-0.037288
0.0073593
0.097292
0.1126
0.02458
0.029045
0.073055
0.098568
0.14736
0.11898
0.07433
0.060298
0.035104
0.026813
0.0067215
0.021072
-0.011456
-0.035375
-0.053552
-0.049088
-0.021343
-0.064395
-0.074601
-0.050363
-0.014645
0.00098112
-0.029953
-0.079703
-0.081935
-0.002208
0.020435
-0.014645
-0.025488
-0.047174
-0.03378
0.047542
0.073374
0.038294
0.064125
0.050093
0.035104
0.084217
0.069228
0.02777
0.015651
-0.0066727
0.0016189
0.015651
-0.010181
-0.066628
-0.078109
-0.064395
-0.022618
-0.00093234
-0.056423
-0.045261
-0.016559
-0.0105
0.025218
0.01023
-0.050044
-0.064077
-0.0073105
-0.015283
-0.03952
-0.038883
-0.067585
-0.04845
-0.038564
-0.031548
0.004808
-0.0105
0.0016189
0.011824
0.052645
0.06859
0.040845
0.020116
0.0067215
0.087406
0.076244
0.047542
0.042758
0.0060837
0.032234
0.10718
0.13779
0.082941
0.063169
0.070822
0.079114
0.11324
0.076563
0.029683
0.040526
0.00066221
0.02777
0.014056
-0.019429
-0.041115
-0.063439
-0.057379
0.00098112
0.028088
-0.027083
-0.015921
0.0038513
0.008316
0.057747
0.017564
-0.051958
-0.059293
-0.00093234
-0.0105
-0.049088
-0.065033
-0.089908
-0.087038
-0.074282
-0.068222
-0.043666
-0.049407
-0.039839
-0.03665
0.0003433
0.0054459
-0.022937
-0.052915
-0.057698
0.012781
0.004808
-0.02804
-0.045261
-0.075238
-0.040477
0.050731
0.032553
-0.009224
0.027132
0.028407
0.019478
0.062531
0.049137
0.033829
0.04531
0.018202
0.036699
0.033829
0.022029
0.0025757
0.011824
0.010867
0.05105
0.073055
0.016927
0.02171
0.052963
0.058704
0.083579
0.059023
0.0038513
-0.030591
0.016608
0.030959
-0.00061343
-0.024213
-0.080979
-0.047812
-0.017197
-0.0063538
0.031596
0.015332
0.0067215
0.0131
0.076244
0.083579
0.061255
0.045629
0.015651
0.087087
0.070185
0.04531
0.029045
-0.0105
-0.0034836
0.050093
0.05679
-0.01337
0.0044891
0.0016189
0.0089539
0.047861
0.015332
-0.033142
-0.036969
-0.067585
-0.056104
-0.05132
-0.054509
-0.09533
-0.10266
-0.082892
-0.03952
0.0032135
-0.055466
-0.049088
-0.01337
0.00098112
0.023305
-0.0076295
-0.051958
-0.050363
0.0131
0.0025757
-0.017516
-0.014964
-0.060887
-0.044304
-0.005716
0.0054459
0.026813
0.026813
0.029045
0.028407
0.071141
0.074012
0.042121
0.01597
-0.013051
0.049455
0.038294
0.012781
0.0060837
-0.014964
0.026494
0.045629
0.051369
0.023305
0.057109
0.079433
0.077201
0.11866
0.093146
0.084536
0.093146
0.074968
0.085811
0.062212
0.049137
0.037975
0.030321
0.0057648
0.045947
0.063169
-0.0085862
-0.020067
0.025856
0.038294
0.053601
-0.0034836
-0.072687
-0.079703
-0.012094
-0.02198
-0.053234
-0.058974
-0.10585
-0.081617
-0.048131
-0.043347
-0.012094
-0.012732
-0.0047593
-0.0073105
0.033191
0.034467
0.020435
-0.0034836
-0.029634
0.03638
0.045947
0.014694
-0.0095429
-0.04845
-0.028678
0.02171
0.043396
0.011505
0.036061
0.046585
0.047223
0.090595
0.067952
0.032553
0.024899
0.015013
0.032553
0.031278
0.015013
-0.025488
-0.018791
-0.02198
-0.00029452
0.030321
-0.023575
-0.014008
0.01023
0.03351
0.060617
0.044034
-0.016878
-0.025807
0.040526
0.041483
0.020116
0.020754
0.0067215
0.013419
0.018521
0.037337
0.044353
0.050412
0.047861
0.047223
0.081346
0.064444
0.01884
0.008316
-0.023894
0.040207
0.03351
0.0013
-0.032186
-0.050044
-0.017835
0.052963
0.056471
-0.0098618
0.015651
0.04818
0.050731
0.098568
0.073374
0.041483
0.037975
0.043715
0.051688
0.055196
0.054877
0.0013
-0.0012513
0.020116
0.043396
0.081665
0.04531
0.067633
0.073055
0.083579
0.11132
0.069228
0.0003433
-0.009224
0.066677
0.066995
0.037337
0.024899
-0.047493
-0.034418
0.013419
0.025218
0.041164
0.03925
0.023624
0.021072
0.078795
0.091233
0.079752
0.04531
0.0038513
0.073055
0.063806
0.016927
0.024262
-0.0069916
0.012143
0.050731
0.055515
-0.020067
-0.0079484
0.017883
0.017246
0.042758
0.0092728
-0.029315
-0.039839
-0.035694
-0.034099
-0.035056
-0.042391
-0.07779
-0.070774
-0.058655
-0.019748
0.041164
-0.042072
-0.029315
0.014056
0.046266
0.068909
0.026813
-0.023575
-0.028996
0.046585
0.041483
0.023305
0.013419
-0.033461
-0.024851
0.0079971
0.026175
0.028726
0.044991
0.04531
0.040207
0.078795
0.081028
0.052645
0.020435
-0.012413
0.055196
0.07146
0.042121
0.0089539
-0.01624
0.00066221
0.086449
0.079752
0.026494
0.044034
0.073055
0.070185
0.096335
0.07433
0.037018
0.025856
0.041164
0.024899
0.0067215
-0.009224
-0.034418
-0.047812
-0.047812
-0.031229
0.0079971
-0.031867
-0.031867
-0.017197
0.0057648
0.030959
0.0025757
-0.056742
-0.066947
0.0032135
-0.0076295
-0.028996
-0.031548
-0.072687
-0.054828
-0.019748
-0.020705
-0.017197
0.0131
0.022348
0.00066221
0.044672
0.052326
0.020754
0.0092728
-0.015602
0.048499
0.043077
0.010548
-0.0053971
-0.021024
-0.0079484
0.056153
0.066358
-0.014008
0.0013
0.025856
0.024899
0.066358
0.031915
-0.021024
-0.040158
-0.0105
-0.0038025
-0.015921
-0.034418
-0.053871
-0.0012513
-0.016559
0.0022568
0.079114
0.031278
0.026813
0.063169
0.12057
0.12249
0.081028
0.042439
0.028726
0.096973
0.080709
0.016608
0.0099106
-0.035694
-0.039839
-0.019748
-0.024532
-0.032823
-0.016878
-0.025807
-0.047174
0.004808
0.0089539
-0.029953
-0.04271
-0.070136
-0.013051
2.4388e-05
-0.01911
-0.045261
-0.06312
-0.041753
0.016289
0.035104
-0.012094
0.031596
0.050093
0.022667
0.056471
0.032872
-0.0098618
-0.023256
0.014375
0.034467
0.02171
-0.012094
-0.058017
-0.050682
-0.019748
-0.013689
0.037337
-0.0047593
-0.005716
0.0079971
0.036061
0.055196
0.016289
-0.035694
-0.052596
0.026175
0.0076782
-0.028359
-0.037607
-0.078746
-0.070455
-0.036012
-0.028678
-0.036969
-0.017516
-0.024532
-0.031548
0.013419
-0.0018891
-0.029634
-0.034737
-0.058974
-0.0034836
0.0003433
-0.017197
-0.047493
-0.06312
-0.038883
0.023943
0.046266
-0.011456
0.0067215
0.043715
0.047223
0.073693
0.06285
0.012781
-0.0028458
0.029045
0.045947
0.044034
0.055196
0.030002
0.054877
0.038612
0.04531
0.10813
0.085811
0.077838
0.10909
0.14066
0.14098
0.10144
0.047223
0.042121
0.10112
0.06285
0.014375
-0.011456
-0.049407
-0.039839
-0.0050782
-0.0066727
-0.043985
-0.0050782
-0.014008
-0.014008
0.01597
-0.028359
-0.046218
-0.040477
-0.069817
-0.034737
-0.037926
-0.056423
-0.087038
-0.10713
-0.090546
-0.030591
-0.010819
-0.073006
-0.062801
-0.041434
-0.024532
0.013419
-0.014008
-0.061844
-0.072368
-0.03665
-0.038564
-0.037926
-0.04271
-0.09533
-0.077152
-0.054509
-0.046218
-0.0038025
-0.018153
-0.014964
0.0038513
0.040845
0.045947
0.013419
-0.028996
-0.030591
0.03638
0.041164
0.0022568
-0.01337
-0.052915
-0.022937
0.019478
0.029683
0.0022568
0.030002
0.046266
0.037337
0.079433
0.076563
0.058066
0.035423
0.015651
0.10718
0.098249
0.065401
0.029045
0.00098112
0.024262
0.074649
0.089
0.043715
0.052007
0.066358
0.061893
0.071779
0.037656
-0.021343
-0.031229
-0.002208
-0.022299
-0.024851
-0.031548
-0.053234
-0.031548
-0.023894
-0.031548
-0.0060349
-0.016878
0.0016189
0.032553
0.087406
0.090595
0.022986
-0.019429
-0.028996
0.03925
0.042121
-0.0012513
-0.038883
-0.087038
-0.078427
-0.013051
-0.010819
-0.054509
-0.037288
-0.038564
-0.059612
-0.014008
-0.022299
-0.046536
-0.050682
-0.081617
-0.045899
-0.040477
-0.051639
-0.089589
-0.093097
-0.066309
-0.002208
0.020754
-0.035056
-0.027083
0.0003433
0.013738
0.062531
0.041164
-0.0066727
-0.020386
0.027451
0.027132
0.0131
-0.017516
-0.054509
-0.009224
0.012462
0.0070404
0.045629
0.037018
0.025537
0.043077
0.10335
0.076244
0.048818
0.016927
-0.0073105
0.046266
0.058704
0.03925
0.0032135
-0.046855
-0.039839
0.010548
0.017883
-0.036969
-0.017197
-0.0015702
-0.012413
0.02458
-0.012094
-0.03091
-0.014008
-0.03665
-0.017835
-0.0038025
-0.017835
-0.051001
-0.06025
-0.031548
0.010548
0.052007
0.011186
0.015332
0.051369
0.081028
0.096335
0.05679
0.0064026
0.0038513
0.027132
0.044672
0.047223
0.028407
-0.032504
-0.01337
0.012781
0.0079971
0.016608
0.0057648
0.016608
0.040526
0.082622
0.068271
0.021072
-0.029315
-0.068541
0.012462
0.011505
-0.034737
-0.055147
-0.083211
-0.084487
-0.038883
-0.028996
-0.071411
-0.043347
-0.036969
-0.041115
0.0041702
-0.011456
-0.043985
-0.051001
-0.057379
-0.021024
0.016608
0.023624
-0.052915
-0.045261
-0.023256
0.010548
0.02777
-0.010819
0.0079971
0.035742
0.061893
0.081984
0.050731
-0.016878
-0.039202
0.0051269
0.0092728
0.0044891
-0.014964
-0.065033
-0.056104
-0.032504
-0.02517
0.014694
0.010867
-0.014645
-0.0076295
0.040845
0.032553
-0.0028458
-0.027721
-0.047812
0.024262
0.01023
-0.033142
-0.061206
-0.074601
-0.053234
-0.0069916
0.0044891
-0.050363
-0.023575
-0.0073105
-0.016559
0.027451
0.0067215
-0.027083
-0.027083
-0.034737
0.0038513
0.0016189
-0.0098618
-0.039202
-0.038564
-0.016559
0.027132
0.073055
0.013419
0.03925
0.065401
0.078157
0.10782
0.068271
0.015332
-0.002208
0.046904
0.046904
0.027451
0.008635
-0.050682
-0.03378
-0.015602
-0.017516
-0.0025269
-0.00061343
-0.0015702
-0.0066727
0.033829
0.035742
0.0064026
-0.020386
-0.053871
0.014694
0.014375
-0.023894
-0.035694
-0.056742
-0.041753
0.013419
0.021072
-0.035056
-0.010181
0.0131
0.0051269
0.052963
0.02171
-0.0053971
0.021391
0.0022568
0.0054459
-0.0076295
-0.013689
-0.040477
-0.033142
-0.021024
0.0070404
0.030321
-0.014327
-0.0098618
0.052326
0.086449
0.06285
0.036699
-0.013689
-0.013689
0.069228
0.060298
0.02458
0.021391
-0.014008
0.011824
0.028407
0.037018
0.059979
0.049455
0.020116
0.00098112
0.071779
0.078157
0.034786
-0.015283
-0.052277
0.0076782
0.012781
-0.018472
-0.048131
-0.070455
-0.077152
-0.027402
-0.009224
-0.061206
-0.027083
-0.017835
-0.019429
0.012143
-0.01337
-0.046855
-0.056742
-0.038564
-0.022937
-0.03091
-0.029634
-0.067903
-0.067903
-0.047493
-0.012413
0.021072
-0.028359
-0.011137
0.024899
0.046585
0.055196
0.028726
-0.009224
-0.013689
0.040526
0.018521
-0.0012513
0.0099106
-0.035694
-0.024532
0.012462
0.019159
0.022029
0.027132
0.020754
0.010548
0.052326
0.037975
-0.010181
-0.036012
-0.052277
0.0025757
-0.0012513
-0.040158
-0.072687
-0.10394
-0.088952
-0.024213
-0.0082673
-0.06312
-0.034418
-0.012094
-0.011456
0.04818
0.020435
-0.018791
-0.014008
-0.0012513
0.010548
0.01023
0.01023
-0.01911
-0.0063538
0.011824
0.024262
0.064763
0.0131
0.0076782
0.044034
0.084854
0.088044
0.040207
-0.020067
-0.053552
0.037018
0.028407
-0.012413
-0.025807
-0.068541
-0.050682
-0.017197
0.016289
0.026813
0.051369
0.061893
0.049137
0.093784
0.094103
0.088362
0.083579
0.062531
0.13843
0.12504
0.079114
0.037018
0.016289
0.035742
0.099524
0.095378
0.017564
0.0099106
0.024262
0.0079971
0.034467
2.4388e-05
-0.040158
-0.058655
-0.06599
-0.072687
-0.075238
-0.081935
-0.12754
-0.13169
-0.12212
-0.096924
-0.04845
-0.094054
-0.081298
-0.04845
-0.020386
-0.0018891
-0.031548
-0.072687
-0.080022
-0.0050782
-0.0073105
-0.038883
-0.038883
-0.069817
-0.028996
0.008316
0.0057648
0.004808
0.028726
0.035104
0.025856
0.075287
0.059342
0.030959
0.0070404
-0.019429
0.060936
0.06285
0.0131
-0.0044404
-0.031867
-0.014645
0.067314
0.071779
0.015332
0.031278
0.054239
0.050731
0.095378
0.093465
0.068271
0.05392
0.05679
0.029364
0.033829
0.028726
-0.010181
-0.013051
-0.010819
-0.0028458
0.038612
-0.0044404
-0.005716
0.0095917
0.023624
0.032872
-0.0015702
-0.035056
-0.046855
0.027132
0.018202
0.0028946
-0.015602
-0.055466
-0.031548
0.010548
0.02171
0.0095917
0.03351
0.03351
0.020754
0.080709
0.063487
0.022986
0.0032135
-0.021024
0.034148
0.027451
-0.009224
-0.038564
-0.056104
-0.031548
0.026175
0.035423
-0.021343
-0.0063538
2.4388e-05
0.0067215
0.047542
0.020116
-0.025488
-0.032504
-0.0095429
-0.0085862
-0.010819
-0.023256
-0.067903
-0.065671
-0.039839
-0.028678
0.013738
-0.0018891
0.031278
0.017883
0.043077
0.063487
0.014694
-0.011137
-0.0063538
0.061255
0.049137
0.0067215
-0.0031647
-0.056423
-0.046218
0.0073593
0.015332
-0.0066727
-0.002208
-0.0028458
-0.0089051
0.030321
-0.0015702
-0.02804
-0.024851
-0.055147
-0.0047593
0.0019378
-0.020705
-0.044942
-0.061844
-0.019748
0.047223
0.057428
0.028088
0.063169
0.089319
0.097611
0.17
0.11547
0.065082
0.040845
0.10048
0.11643
0.088681
0.066358
0.021072
0.018521
0.037337
0.028407
0.059342
0.021391
0.015332
0.017883
0.044034
0.042439
-0.0028458
-0.053552
-0.067585
-0.009224
-0.021661
-0.034737
-0.056742
-0.11765
-0.10968
-0.060569
-0.049407
-0.069498
-0.042072
-0.036012
-0.032186
0.012781
0.014694
-0.0031647
-0.011775
-0.044942
0.012781
0.022986
0.008316
0.011186
-0.0050782
0.013419
0.074649
0.072736
0.031596
0.064125
0.087725
0.086449
0.11069
0.065401
0.016608
0.030002
0.050412
0.027132
0.014694
0.025856
-0.040477
-0.032504
-0.022618
-0.017516
0.0038513
-0.039202
-0.022299
2.4388e-05
0.037975
0.050093
0.015651
-0.058017
-0.090227
0.00098112
0.013738
-0.01337
-0.015921
-0.064077
-0.052915
-0.0089051
0.0057648
-0.016878
0.01597
0.015332
0.014375
0.071779
0.030959
2.4388e-05
-0.011456
-0.035375
0.0067215
0.0131
-0.0028458
-0.024851
-0.055785
-0.043347
0.0044891
0.025218
-0.036331
-0.018791
0.022029
0.039888
0.068271
0.044034
0.010867
-0.0105
0.027132
0.024262
0.012143
0.011186
-0.017835
0.033191
0.037337
0.041164
0.11866
0.086768
0.067314
0.084854
0.13301
0.14353
0.096654
0.023305
0.0003433
0.088362
0.087087
0.058704
0.0003433
-0.044304
-0.025807
0.019797
0.014694
-0.038245
-0.017197
-0.0066727
-0.009224
0.028407
0.0076782
-0.020705
-0.028996
-0.062163
-0.01911
-0.032186
-0.052915
-0.088314
-0.10235
-0.090227
-0.035694
-0.012094
-0.083849
-0.058974
-0.028996
-0.025488
0.00066221
-0.020705
-0.060887
-0.066628
-0.022299
-0.029315
-0.043347
-0.047174
-0.081298
-0.056104
-0.035056
-0.027083
0.0022568
-0.012413
-0.0041214
0.0057648
0.058704
0.066995
0.022667
-0.01624
-0.032504
0.044353
0.046904
0.013738
-0.00029452
-0.032823
-0.017516
0.031596
0.054239
0.034786
0.068909
0.073055
0.058385
0.10526
0.079114
0.046585
0.048818
0.039569
0.067952
0.058066
0.042439
0.0032135
-0.016559
-0.0060349
0.022667
0.047223
-0.013051
0.0028946
0.057747
0.064763
0.078795
0.040207
-0.0073105
0.0051269
0.058066
0.052645
0.067633
0.05105
-0.0028458
0.03638
0.054558
0.039569
0.053282
0.048818
0.083579
0.073693
0.099524
0.091233
0.049774
-0.0041214
-0.03378
0.022986
0.015651
-0.029634
-0.028996
-0.076195
-0.077152
-0.035056
-0.023894
-0.069817
-0.041434
-0.034737
-0.042072
-0.00061343
-0.026445
-0.054509
-0.028678
-0.041753
-0.024213
-0.015283
-0.0047593
-0.039202
-0.038883
-0.016878
0.013738
0.056153
-0.0028458
0.0099106
0.059979
0.067952
0.087725
0.049774
-0.0031647
-0.018472
0.03064
0.0073593
-0.022937
-0.027721
-0.074919
-0.06025
-0.044942
-0.042072
-0.025488
-0.039839
-0.031548
-0.031548
0.011824
0.019159
-0.019429
-0.050682
-0.070774
0.0013
0.0067215
-0.026126
-0.041434
-0.069179
-0.052915
0.0079971
0.037975
2.4388e-05
0.047542
0.057747
0.044034
0.1008
0.080709
0.04531
0.042121
0.041164
0.075606
0.072736
0.045629
0.017883
-0.014327
-0.014008
0.037337
0.048818
-0.009224
0.0019378
0.046585
0.057747
0.087406
0.050412
0.014056
-0.0073105
0.040845
0.047223
0.017564
0.0070404
-0.02517
0.0035324
0.0070404
0.004808
0.014694
-0.015602
-0.0085862
-0.0038025
0.019478
0.00098112
-0.034418
-0.049088
-0.07779
-0.021024
-0.016878
-0.046855
-0.065352
-0.09246
-0.080341
-0.014964
0.01023
-0.033461
-0.0050782
0.0019378
0.0076782
0.061893
0.040526
0.01023
0.0044891
0.0041702
0.024899
0.019797
0.0099106
-0.029953
-0.035694
-0.012094
0.0044891
0.037975
-0.0060349
-0.0031647
0.011824
0.022029
0.037018
0.0019378
-0.06025
-0.063439
-0.00093234
-0.013051
-0.040158
-0.052915
-0.094692
-0.071093
-0.045261
-0.040477
-0.024851
-0.017835
-0.013689
-0.010819
0.029364
0.028726
-0.0076295
-0.027402
-0.043028
0.044991
0.081346
0.0067215
-0.024851
-0.041434
-0.020386
0.038931
0.07433
0.025856
0.040207
0.053601
0.05105
0.077838
0.059023
0.032872
0.018202
0.011824
0.031915
0.03925
0.029045
-0.0066727
0.0041702
0.05105
0.062212
0.09793
0.05105
0.085811
0.11547
0.15151
0.14321
0.10463
0.017883
0.012143
0.086768
0.080071
0.055515
0.029683
-0.06025
-0.05419
-0.044623
-0.051639
-0.029953
-0.029315
-0.058017
-0.066309
-0.009224
-0.014645
-0.051001
-0.079065
-0.10171
-0.029634
-0.029634
-0.061206
-0.08066
-0.09533
-0.079065
-0.012413
0.0092728
-0.04271
-0.021024
-0.0031647
0.012781
0.079114
0.044353
0.0057648
0.0060837
0.011824
0.021391
0.024262
0.026813
-0.009224
-0.0076295
0.0013
0.023305
0.067633
0.015013
-0.0041214
0.018202
0.051688
0.069228
0.026494
-0.043028
-0.058974
0.00098112
-0.005716
-0.035694
-0.041434
-0.090865
-0.07173
-0.024532
-0.0098618
2.4388e-05
0.010548
0.014056
0.0044891
0.070822
0.099843
0.050731
0.026813
0.018521
0.08613
0.087087
0.053282
0.027451
-0.0066727
0.0067215
0.062531
0.059342
-0.00061343
0.032234
0.043715
0.033829
0.057428
0.037656
0.0028946
-0.011775
-0.013689
-0.022299
-0.0073105
-0.012094
-0.072049
-0.055785
-0.040796
-0.024532
0.015013
-0.01911
-0.0085862
0.017246
0.016289
0.052645
0.05105
-0.011137
-0.015283
0.050093
0.03638
0.011824
0.0099106
-0.012732
-0.0038025
0.02171
0.017883
0.008316
0.022348
0.017883
0.011505
0.052326
0.016927
-0.0076295
-0.038245
-0.070774
-0.0089051
-0.012413
-0.022937
-0.044304
-0.094054
-0.051958
0.018521
0.026813
-0.021024
0.034786
0.052645
0.055196
0.087087
0.057109
0.023305
0.036699
0.059661
0.051688
0.023305
0.011186
-0.019429
-0.019429
-0.012094
-0.014008
0.026175
-0.033142
-0.034737
-0.016878
0.018202
0.022348
-0.010181
-0.053871
-0.06312
0.0016189
-0.0066727
-0.049407
-0.058017
-0.091184
-0.061844
-0.022299
-0.0069916
-0.024213
-0.0047593
-0.00061343
-0.014964
0.035423
0.021072
-0.005716
-0.016559
-0.053552
0.004808
0.014375
0.012781
-0.029953
-0.064714
-0.043347
0.02458
0.048818
2.4388e-05
0.012462
0.03351
0.037018
0.069866
0.040526
0.010548
0.0041702
0.025537
0.024899
0.033829
0.016608
-0.01911
-0.01624
-0.0063538
0.0092728
0.05679
0.0131
0.0076782
0.032553
0.071779
0.078795
0.032553
-0.02198
-0.020386
0.041164
0.025856
-0.002208
0.014056
-0.026764
-0.0041214
0.031915
0.043396
0.02171
0.050093
0.054239
0.032872
0.065082
0.069866
0.048499
0.024899
-0.021661
0.020116
0.0076782
-0.02198
-0.051639
-0.070136
-0.058655
0.023624
0.02777
-0.053871
-0.029634
-0.025807
-0.0095429
0.03925
0.0095917
-0.037607
-0.046855
-0.020386
-0.043028
-0.050044
-0.055785
-0.095649
-0.081617
-0.069817
-0.047493
0.0060837
-0.02804
-0.033142
-0.0073105
0.034467
0.047542
0.017246
-0.021024
-0.020067
0.052326
0.055196
0.0076782
0.0025757
-0.041434
-0.021343
0.020754
0.039888
0.012462
0.028726
0.023943
0.0095917
0.048499
0.028726
0.0057648
-0.0105
-0.041434
0.0073593
0.015013
0.020435
-0.023256
-0.041434
-0.026126
0.043715
0.07146
0.010548
0.040526
0.087406
0.077201
0.10335
0.083898
0.049137
0.028088
0.062212
0.041483
0.017883
0.0057648
-0.062163
-0.056742
-0.0095429
-0.0073105
0.012781
-0.029315
-0.044942
-0.045899
0.0054459
0.018521
-0.024851
-0.078427
-0.0864
-0.0105
-0.014008
-0.048131
-0.059612
-0.099157
-0.079065
-0.040796
-0.029953
-0.05132
-0.01337
-0.0076295
-0.012094
0.059023
0.048818
0.024899
0.029364
-0.0034836
0.042439
0.047223
0.028407
-0.0018891
0.0131
0.057747
0.076882
0.10239
0.050731
0.054239
0.07752
0.076563
0.10495
0.073055
0.018202
-0.0098618
0.017883
0.0044891
0.0073593
-0.0079484
-0.057698
-0.059931
-0.055785
-0.049726
-0.016878
-0.043985
-0.036969
-0.033461
0.008635
0.035742
-0.01337
-0.067585
-0.043347
0.060936
0.031278
2.4388e-05
0.015651
-0.028359
-0.012094
0.04818
0.059979
0.043396
0.047542
0.03351
0.032234
0.066358
0.061255
0.019478
-0.01911
-0.061206
-0.029315
-0.039202
-0.063439
-0.096286
-0.1167
-0.1049
-0.055785
-0.029634
-0.09246
-0.063758
-0.02517
-0.017197
0.023624
0.021391
-0.010181
0.010867
0.080071
0.054239
0.044034
0.046585
0.0025757
-0.0028458
0.063487
0.11101
0.1177
0.085811
0.099205
0.078476
0.084854
0.083579
0.049455
-0.01337
-0.04845
0.022029
0.015013
-0.026126
-0.058336
-0.11797
-0.10968
-0.063439
-0.053871
-0.090227
-0.072049
-0.067266
-0.074282
-0.024532
-0.041115
-0.062482
-0.055785
-0.038564
-0.0079484
0.008316
2.4388e-05
-0.026764
-0.026445
0.0051269
0.056471
0.078476
0.03064
0.055834
0.087087
0.096016
0.1244
0.087725
0.014056
-0.014008
0.031596
0.039888
0.025856
-0.009224
-0.072687
-0.047493
-0.046536
-0.04845
-0.014008
-0.038245
-0.01911
0.0016189
0.022986
0.017883
-0.019748
-0.066628
-0.088633
-0.011137
-0.011775
-0.022299
-0.02804
-0.081617
-0.0864
-0.0095429
0.0131
-0.043985
-0.014327
-0.0076295
-0.005716
0.055196
0.031596
0.0044891
0.017246
-0.011775
0.014375
0.0019378
0.0060837
-0.013051
-0.046855
-0.020705
0.038931
0.07146
0.015013
0.023624
0.058066
0.059661
0.092189
0.058066
0.0067215
-0.0038025
0.047223
0.032872
0.0060837
-0.009224
-0.05419
-0.032823
-0.019748
-0.0105
0.0028946
-0.020386
-0.018472
0.012462
0.047861
0.077201
0.044353
0.0028946
-0.016559
0.092827
0.1008
0.069547
0.046585
0.012462
0.032234
0.072736
0.073693
0.037656
0.071141
0.046904
0.02458
0.028726
-0.015921
-0.034099
-0.033142
-0.06599
-0.065352
-0.077471
-0.099476
-0.13456
-0.14349
-0.12754
-0.083211
-0.053234
-0.10203
-0.088314
-0.038564
-0.0089051
0.011824
0.0003433
-0.042391
-0.055785
0.0022568
0.0060837
-0.0085862
0.012781
-0.0073105
0.0099106
0.072417
0.090276
0.12918
0.13078
0.11898
0.11579
0.16618
0.16299
0.12567
0.078476
0.099524
0.18914
0.14194
0.073055
0.029683
-0.00029452
-0.011775
0.0013
0.020435
-0.01337
-0.0073105
-0.0089051
-0.03665
0.0028946
-0.028678
-0.070136
-0.074282
-0.096286
-0.075876
-0.073644
-0.097243
-0.1403
-0.13519
-0.12403
-0.090227
-0.062482
-0.10968
-0.10139
-0.069498
-0.044623
-0.016878
-0.041753
-0.088952
-0.080341
0.0054459
0.020116
-0.0034836
-0.0066727
-0.038564
-0.0060349
0.022986
0.046904
0.073374
0.08039
0.076244
0.072098
0.11547
0.12217
0.07433
0.012462
-0.035056
0.038931
0.049774
-0.0018891
-0.031867
-0.087676
-0.075557
-0.022299
-0.012413
-0.070455
-0.044304
-0.031867
-0.040158
0.0032135
-0.015921
-0.042391
-0.045899
-0.041115
-0.022299
-0.005716
-0.0044404
-0.051639
-0.056104
-0.032504
0.0035324
0.037337
-0.0047593
0.0057648
0.028407
0.052645
0.087725
0.069228
-0.0041214
-0.02198
0.048818
0.038612
0.0073593
0.008635
-0.023894
0.010548
0.026813
0.022029
0.035423
0.050093
0.053601
0.037656
0.079114
0.073055
0.038294
-0.0041214
-0.026126
0.068271
0.081665
0.030959
-0.0082673
-0.044623
-0.033142
0.02777
0.064444
0.0019378
0.022986
0.028088
0.011505
0.057109
0.041483
-0.011456
-0.017516
-0.017197
-0.018153
-0.026126
-0.028359
-0.058974
-0.066309
-0.057061
-0.029953
0.012781
-0.040477
-0.032823
-0.0047593
0.01884
0.046585
0.0089539
-0.045261
-0.052596
0.010867
0.018202
-0.011775
-0.019429
-0.041753
-0.014964
0.012781
0.021391
0.05105
0.055196
0.082303
0.11101
0.13524
0.13811
0.10686
0.06572
0.029045
0.11228
0.11962
0.076882
0.025537
-0.039839
-0.029315
0.017246
0.034786
-0.014327
-0.0073105
-0.028996
-0.033461
0.0064026
-0.022618
-0.059931
-0.064077
-0.060569
-0.04558
-0.047174
-0.052277
-0.095968
-0.077471
-0.070774
-0.051639
0.012143
0.0051269
0.018202
0.049137
0.054877
0.069547
0.03638
-0.0050782
0.015013
0.097611
0.093465
0.05105
0.027132
-0.013051
-0.012732
0.025218
0.054239
0.057747
0.052645
0.016608
0.0016189
0.063169
0.070185
0.026175
0.019797
-0.026126
0.0054459
0.017246
0.020435
-0.049726
-0.092141
-0.062163
-0.015921
-0.012732
-0.070136
-0.039839
-0.02517
-0.044304
-0.012094
-0.039839
-0.077152
-0.0864
-0.07173
-0.069498
-0.066947
-0.070455
-0.11255
-0.092778
-0.064077
-0.053552
-0.0095429
-0.050682
-0.017197
0.025856
0.052963
0.067633
0.044353
-0.013051
-0.018472
0.058066
0.059342
0.046904
0.042439
-0.017835
-0.028678
0.011824
0.031596
0.029683
0.028407
0.020116
0.012781
0.042439
0.019478
0.008316
-0.0085862
-0.049088
0.0057648
0.008635
-0.022299
-0.052596
-0.084806
-0.063758
0.0073593
0.015651
-0.037288
-0.023256
0.0051269
2.4388e-05
0.03351
0.0076782
-0.024851
-0.027721
-0.0095429
-0.014327
-0.017835
-0.023256
-0.062163
-0.054509
-0.035056
-0.016878
0.024899
-0.01337
-0.0076295
0.01597
0.047542
0.064125
0.047542
0.0038513
-0.011456
0.082622
0.10558
0.079433
0.058385
0.016289
0.06285
0.13205
0.13142
0.10526
0.16107
0.16235
0.11547
0.14258
0.12567
0.090595
0.086768
0.040207
0.071779
0.050093
-0.0063538
-0.055147
-0.095968
-0.080979
-0.03091
-0.016878
-0.088314
-0.081617
-0.06025
-0.062163
-0.031867
-0.059612
-0.093097
-0.0982
-0.070774
-0.069498
-0.069179
-0.071093
-0.099794
-0.072368
-0.06025
-0.040477
0.023305
0.0038513
0.0073593
0.032872
0.076244
0.096973
0.057428
0.004808
-0.0053971
0.069228
0.081028
0.046904
0.026175
-0.032823
-0.014008
0.0131
-0.0038025
-0.024532
0.0099106
0.0028946
-0.011456
0.022986
0.00066221
-0.035056
-0.049088
-0.079065
-0.027083
-0.02804
-0.053552
-0.084168
-0.10266
-0.082892
-0.021343
-0.005716
-0.059931
-0.028359
0.012781
0.014694
0.08039
0.11292
0.072736
0.067314
0.093784
0.075606
0.075287
0.077201
0.046585
0.064444
0.077838
0.071141
0.09187
0.042121
0.016608
0.0070404
0.024262
0.033191
-0.016878
-0.073325
-0.10107
-0.036331
-0.03952
-0.066628
-0.06025
-0.10872
-0.088633
-0.031548
-0.022618
-0.051958
-0.022299
-0.011775
-0.010819
0.035423
0.01023
-0.022618
-0.024851
-0.043666
0.011824
0.0099106
-0.014008
-0.048131
-0.067585
-0.029953
0.043077
0.065401
-0.0069916
-0.0012513
0.042758
0.049137
0.068271
0.053282
-0.016878
-0.0015702
0.032234
0.0079971
-0.02198
-0.040158
-0.089908
-0.073325
-0.045899
-0.038245
-0.017516
-0.043347
-0.04271
-0.033142
-0.0018891
0.010867
-0.023575
-0.069179
-0.079703
-0.0089051
-0.013689
-0.04558
-0.044304
-0.077152
-0.046855
2.4388e-05
0.0028946
-0.0095429
0.021391
0.022348
0.0089539
0.061574
0.042758
0.022986
0.015651
-0.012413
0.017883
0.017246
0.024262
-0.014008
-0.014645
0.023624
0.067314
0.084854
0.024899
0.035742
0.064125
0.080709
0.12759
0.10367
0.05105
0.032553
0.043396
0.010867
0.011824
0.024262
-0.02517
-0.026126
-0.020386
-0.016878
0.015013
0.0051269
0.022029
0.018521
0.057747
0.054877
0.0092728
-0.0089051
-0.027083
0.029045
0.029045
-0.00093234
-0.023894
-0.073006
-0.078746
-0.053871
-0.020386
-0.037607
-0.020067
-0.027721
-0.029634
0.010867
-0.01337
-0.046536
-0.050044
-0.059931
-0.015602
-0.022299
-0.047174
-0.083211
-0.0982
-0.08927
-0.020705
0.011824
-0.053871
-0.058017
-0.019748
-0.0066727
0.032553
0.056153
0.014694
-0.0038025
0.032234
0.028407
0.017564
0.017883
-0.014964
-0.0031647
0.014056
0.017246
0.048499
0.020754
0.0089539
0.0131
0.032553
0.028726
-0.014645
-0.063439
-0.082254
-0.011456
-0.014008
-0.039202
-0.053871
-0.094692
-0.07173
-0.013689
0.028726
0.0057648
0.047542
0.059023
0.040207
0.085811
0.076882
0.059979
0.070822
0.066358
0.09506
0.096973
0.049137
-0.0098618
0.0022568
0.039888
0.067633
0.058066
-0.020067
-0.017835
0.022348
0.039888
0.04531
0.004808
-0.053552
-0.066947
-0.025488
-0.03952
-0.04845
-0.059931
-0.11159
-0.088633
-0.063439
-0.05419
-0.023575
-0.04271
-0.036012
-0.020386
0.044034
0.05679
0.026813
-0.034099
-0.040158
0.060617
0.067952
0.038612
0.023943
0.0038513
-0.015602
0.041483
0.084854
0.044672
0.05679
0.064125
0.056153
0.09793
0.046266
0.0073593
0.008635
-0.0047593
0.023943
0.017883
-0.0053971
-0.047174
-0.04845
-0.023575
0.016289
0.024899
-0.049407
-0.034418
-0.009224
0.018521
0.038294
-0.0018891
-0.067903
-0.080341
-0.0089051
-0.015602
-0.051958
-0.055785
-0.079384
-0.074919
-0.064395
-0.058017
-0.018153
-0.016559
-0.005716
-0.0060349
0.034148
0.03064
-0.00061343
-0.02804
-0.03091
0.033829
0.032234
-0.0089051
-0.031867
-0.070455
-0.080341
0.0028946
0.037656
-0.011456
0.03351
0.044991
0.035423
0.08039
0.01884
-0.0018891
-0.0066727
-0.01624
0.013738
0.018202
0.0064026
-0.04271
-0.08066
-0.052277
-0.025807
0.0051269
-0.041115
-0.031548
-0.0095429
0.0041702
0.048818
0.012462
-0.035056
-0.051958
0.023305
0.026175
0.0016189
-0.0034836
-0.049407
-0.024213
0.012781
0.017883
0.032553
0.023943
0.015651
0.0060837
0.038294
0.038612
0.013419
-0.024851
-0.054509
0.0131
0.010548
-0.032823
-0.078109
-0.10841
-0.074601
-0.017835
-0.013051
-0.069817
-0.04271
-0.029634
-0.032823
0.033829
0.017883
-0.021661
-0.002208
2.4388e-05
0.0060837
-0.002208
-0.010819
-0.022937
0.0016189
0.017564
0.059661
0.096973
0.026494
0.032234
0.072736
0.092189
0.10367
0.072098
0.0060837
-0.0069916
0.05392
0.03351
-0.0073105
-0.021343
-0.059612
-0.035056
-0.028678
-0.032186
-0.024532
-0.035694
-0.039202
-0.033142
0.014375
0.01597
-0.02198
-0.049088
-0.072368
-0.0082673
-0.00061343
-0.031867
-0.052915
-0.077152
-0.055785
0.014375
0.050731
-0.0060349
0.014375
0.029364
0.01597
0.047223
0.02171
0.012143
0.013738
0.0044891
0.0028946
-0.0063538
-0.016878
-0.070136
-0.060569
-0.043985
-0.00061343
0.069547
0.00098112
-0.0098618
0.021391
0.052326
0.082622
0.052326
-0.011456
-0.0082673
0.10399
0.082622
0.026175
-0.0015702
-0.044623
-0.020386
0.0099106
0.008635
0.014375
-0.0044404
0.0067215
-0.0069916
0.018202
0.024899
0.0025757
-0.040158
-0.065352
0.015013
0.012462
-0.0098618
-0.036012
-0.075238
-0.053552
0.029045
0.053282
-0.032504
-0.002208
0.021072
0.01597
0.046904
0.019797
-0.013689
-0.018153
-0.01337
-0.010819
-0.030591
-0.034099
-0.070774
-0.074601
-0.053234
-0.015283
0.047223
-0.0095429
-0.0060349
0.025856
0.049137
0.078795
0.037975
0.0028946
-0.0105
0.049455
0.020754
-0.0095429
0.0041702
-0.041434
-0.037607
-0.018472
-0.0031647
-0.0076295
0.0044891
0.025218
0.012143
0.05679
0.043715
0.016927
-0.0038025
-0.031548
0.033829
0.046585
0.016289
0.0057648
-0.037607
-0.046218
0.0070404
0.03925
-0.022299
-0.0085862
-0.0105
-0.02517
0.020116
-0.00093234
-0.026126
-0.044942
-0.043985
-0.038883
-0.039202
-0.048131
-0.089589
-0.085443
-0.06599
-0.041115
0.0016189
-0.042072
-0.044304
-0.017835
0.0092728
0.029683
-0.0028458
-0.055466
-0.066309
0.0022568
-0.0015702
-0.023894
-0.027083
-0.057698
-0.0095429
0.014056
0.018202
0.025537
0.058704
0.062531
0.059023
0.10654
0.09793
0.077201
0.037975
-0.014964
0.043077
0.069866
0.040207
-0.0018891
-0.037607
-0.02198
0.017883
0.026175
-0.035375
-0.0105
0.008635
0.020116
0.094741
0.045947
0.020754
0.037656
0.035742
0.026175
0.029364
0.037018
0.019478
0.015651
0.0051269
0.026175
0.061574
-0.0089051
-0.0028458
0.048818
0.065401
0.05105
-0.0069916
-0.07173
-0.076514
0.0051269
-0.022937
-0.06312
-0.068541
-0.11478
-0.08927
-0.057698
-0.049088
-0.043028
-0.026445
-0.043347
-0.047493
0.0092728
-0.010181
-0.043985
-0.050044
-0.071093
-0.015921
-0.0095429
-0.036331
-0.075557
-0.0982
-0.068222
-0.005716
0.008635
-0.055466
-0.031229
-0.0073105
0.0003433
0.048818
0.025856
-0.016559
-0.024213
0.008316
0.012143
0.018202
0.014375
-0.011137
-0.002208
0.014694
0.074968
0.10558
0.03925
0.058385
0.089957
0.10654
0.12631
0.085811
0.017246
0.012781
0.082941
0.055196
0.019478
-0.012094
-0.041115
-0.015283
-0.013051
-0.015921
-0.019429
0.0003433
-0.0076295
-0.019748
0.024262
0.022029
0.01597
-0.009224
-0.042391
0.034786
0.022348
-0.0073105
-0.032186
-0.051001
-0.026764
0.026813
0.023943
-0.024851
-0.0050782
0.012143
-0.0031647
0.022986
-0.0060349
-0.047493
-0.068222
-0.04845
-0.05419
-0.069498
-0.079703
-0.11797
-0.092141
-0.06886
-0.054828
-0.018153
-0.049407
-0.045899
-0.02804
-0.00029452
0.029045
0.0025757
-0.057379
-0.073963
-0.0076295
-0.0028458
-0.029953
-0.042391
-0.087995
-0.071411
-0.026126
-0.017197
-0.033142
-0.002208
-0.0034836
-0.011775
0.03925
0.030002
0.0099106
-0.002208
-0.028678
0.046585
0.1075
0.07146
0.013738
2.4388e-05
0.025856
0.091552
0.12727
0.060298
0.063169
0.10973
0.080071
0.10558
0.081028
0.023624
-0.0047593
0.011186
-0.0038025
-0.023894
-0.039839
-0.087357
-0.083211
-0.078746
-0.064077
-0.0082673
-0.035375
-0.038883
-0.012413
0.032553
0.036061
0.0095917
-0.035694
-0.048131
0.034467
0.037975
-0.00061343
-0.0015702
-0.033142
-0.0082673
0.032872
0.03638
0.046266
0.062212
0.041483
0.033829
0.080071
0.041483
0.028726
0.03064
0.0019378
0.023305
0.017564
-0.014645
-0.062482
-0.083211
-0.066309
-0.015283
-0.0073105
-0.072687
-0.056423
-0.026764
-0.031229
0.0051269
-0.016559
-0.053871
-0.06312
-0.022299
-0.027083
-0.032186
-0.021024
-0.055785
-0.041753
-0.011137
0.0044891
0.049137
0.0067215
0.0044891
0.055196
0.11483
0.11547
0.078795
-0.0073105
-0.0012513
0.10718
0.085811
0.029683
0.0076782
-0.029634
-0.015283
0.023624
0.025537
-0.011456
0.030959
0.020754
-0.021343
0.037018
0.0019378
-0.03952
-0.035056
-0.052915
-0.022937
-0.026764
-0.043028
-0.080022
-0.09533
-0.062163
-0.0031647
0.012781
-0.050363
-0.041434
0.0016189
0.015332
0.047223
0.017564
-0.028359
-0.029953
0.012143
0.0067215
0.0035324
-0.0098618
-0.052915
-0.010819
-0.0031647
-0.0041214
0.030002
0.0070404
-0.0073105
0.015332
0.057747
0.064125
0.033191
-0.021024
-0.04845
0.027132
0.023624
-0.020067
-0.033142
-0.072687
-0.013689
0.020754
0.037975
0.011824
0.03351
0.020435
0.034786
0.08039
0.058385
0.022667
0.0099106
-0.0047593
0.044034
0.03638
-0.0060349
-0.037607
-0.041434
-0.035694
-0.0047593
0.01023
-0.037607
-0.02198
0.0013
0.0057648
0.031278
0.0038513
-0.026764
-0.017197
0.01884
-0.016559
-0.016559
0.00066221
-0.051958
-0.032186
0.0079971
0.0070404
0.032872
0.020435
0.021072
0.017246
0.061255
0.060936
0.03351
-0.0034836
-0.02198
0.029683
0.015332
-0.020705
-0.029953
-0.044304
-0.029634
0.020116
0.026813
-0.016878
-0.00061343
0.036699
0.028726
0.066677
0.041164
0.0057648
-0.013689
-0.032504
-0.011137
-0.012413
-0.016559
-0.049407
-0.068222
-0.059293
-0.0095429
0.0060837
-0.071093
-0.06025
-0.0089051
-0.0034836
0.022667
0.0028946
-0.048131
-0.063758
-0.01911
-0.029953
-0.026445
-0.0018891
-0.060887
-0.046855
-0.010181
-0.002208
0.030321
0.024262
0.021391
0.021072
0.069866
0.07433
0.035104
-0.012094
-0.043985
0.040207
0.056471
0.0073593
-0.0018891
-0.049407
-0.044304
0.033191
0.052645
0.0025757
0.038612
0.063806
0.06859
0.10495
0.091233
0.044034
0.03925
0.029045
0.060617
0.044034
0.013419
-0.020386
-0.032823
-0.036012
0.01884
0.040845
-0.034737
-0.031229
-0.009224
-0.022618
0.0073593
0.0025757
-0.061206
-0.078109
-0.030591
-0.047174
-0.061844
-0.057379
-0.098838
-0.077152
-0.049088
-0.039202
-0.029634
-0.017835
0.017883
0.020116
0.043715
0.038612
0.023943
0.0038513
-0.017516
0.060617
0.069228
0.014375
0.0035324
-0.038245
-0.016878
0.03925
0.037656
-0.018153
-0.010181
0.030321
0.03351
0.051369
-0.0044404
-0.037926
-0.031229
-0.043985
-0.033142
-0.05419
-0.06599
-0.087676
-0.052277
-0.058655
-0.027402
0.0070404
-0.046536
-0.036331
0.00066221
0.022029
0.060617
0.032872
-0.024213
-0.062163
0.0076782
0.02458
0.0054459
-0.011137
-0.070136
-0.057379
-0.031229
-0.032504
-0.02517
-0.020067
-0.020067
-0.020386
0.015013
0.013419
-0.0038025
-0.047174
-0.098838
-0.014327
-0.0095429
-0.028996
-0.044942
-0.087995
-0.066628
-0.00061343
0.011824
-0.033142
-0.00029452
0.017883
0.022029
0.061255
0.03351
0.014694
0.046585
0.04531
0.06572
0.058704
0.038612
-0.0050782
-0.0018891
0.016289
0.083898
0.13556
0.056153
0.051688
0.074012
0.081665
0.11005
0.086768
0.02458
-0.0073105
0.040526
0.015651
-0.021343
0.0028946
-0.065033
-0.066947
-0.044304
-0.04558
-0.034737
-0.028678
-0.032504
-0.035694
0.017883
0.022986
0.019159
-0.026126
-0.063439
0.0092728
0.034467
-0.00093234
-0.023575
-0.044942
-0.013689
0.051688
0.049774
-0.027402
0.0073593
0.015332
0.01023
0.033829
0.0044891
-0.0025269
-0.017835
-0.022299
-0.019748
-0.040796
-0.051639
-0.072368
-0.067266
-0.053552
0.0003433
0.026175
-0.047493
-0.039202
-0.0082673
0.04818
0.064444
0.0131
-0.04271
-0.031229
0.031915
0.019159
-0.010819
-0.027721
-0.072368
-0.046536
-0.023575
0.014056
0.0022568
-0.0047593
-0.014008
-0.02198
0.028088
0.01884
-0.015283
-0.042072
-0.068222
0.0044891
0.011505
-0.014327
-0.050682
-0.086081
-0.056742
0.010548
0.020754
-0.032823
-0.00061343
0.015013
0.0099106
0.052007
0.0131
-0.018791
-0.0063538
-0.0025269
-0.0089051
-0.015283
0.0003433
-0.035694
-0.050363
-0.03378
0.0025757
0.04818
-0.002208
0.0054459
0.031596
0.066995
0.074968
0.038931
-0.009224
-0.0015702
0.062531
0.035104
-0.0038025
0.0019378
-0.040158
-0.027402
0.0038513
0.023305
0.029364
0.045947
0.043077
0.043077
0.068909
0.064763
0.025218
0.0054459
-0.025807
0.03064
0.029364
-0.011456
-0.045899
-0.079065
-0.064714
-0.011456
-0.0079484
-0.07779
-0.055147
-0.032823
-0.020386
0.012781
-0.023894
-0.053552
-0.057061
-0.039839
-0.040796
-0.040158
-0.029953
-0.070774
-0.087357
-0.049726
-0.025488
0.0044891
-0.044623
-0.043028
-0.0066727
0.021072
0.035104
0.0044891
-0.050044
-0.060569
0.014694
0.026494
-0.0066727
-0.018153
-0.058336
-0.035056
-0.00061343
0.034148
0.029045
0.066677
0.070185
0.050093
0.098886
0.10845
0.067633
0.04531
0.043715
0.097292
0.087406
0.047861
0.0013
-0.0082673
0.0022568
0.046585
0.055834
-0.012094
0.0032135
0.021391
-0.0025269
0.034467
0.0076782
-0.029953
-0.047812
-0.039839
-0.043347
-0.051639
-0.049407
-0.094054
-0.091503
-0.06886
-0.051639
-0.018791
-0.059612
-0.031548
-0.0098618
0.023943
0.046585
0.01023
-0.024213
-0.034737
0.044991
0.047542
0.03925
0.028407
-0.023894
0.017246
0.057747
0.061574
0.082303
0.088362
0.069547
0.040845
0.091552
0.066039
0.026813
0.00066221
-0.038883
0.0028946
0.016608
-0.025488
-0.081935
-0.12116
-0.11478
-0.061525
-0.052277
-0.11765
-0.089908
-0.065033
-0.06599
-0.030272
-0.052915
-0.067585
-0.081935
-0.065033
-0.068222
-0.066309
-0.065352
-0.097562
-0.087676
-0.068541
-0.044304
-0.0053971
-0.04271
-0.037288
-0.014964
0.032553
0.043077
0.008635
-0.02517
-0.044942
0.039569
0.040207
0.020754
0.0131
-0.02517
-0.010181
0.044353
0.069866
0.07146
0.13652
0.11515
0.080071
0.16745
0.15948
0.14959
0.13524
0.13365
0.21369
0.21912
0.2188
0.19265
0.18499
0.26121
0.32085
0.3218
0.27142
0.29821
0.35146
0.35688
0.40313
0.37155
0.32563
0.34668
0.36167
0.30395
0.26855
0.24399
0.18818
0.17128
0.15501
0.11898
0.11834
0.037337
0.010867
-0.036331
-0.097562
-0.18431
-0.32431
-0.49461
-0.58486
-0.53893
-0.53574
-0.59666
-0.70509
-0.79916
-0.83456
-0.83456
-0.86358
-0.92067
-0.92194
-0.9398
-0.91589
-0.85497
-0.86135
-0.90122
-0.8942
-0.89771
-0.81575
-0.79087
-0.77907
-0.80267
-0.81288
-0.7593
-0.66586
-0.60909
-0.63365
-0.55966
-0.49971
-0.44996
-0.37374
-0.34982
-0.34153
-0.30677
-0.23278
-0.19738
-0.15879
-0.1505
-0.18462
-0.13009
-0.078109
-0.043347
0.0032135
-0.011775
0.0003433
0.0041702
0.050731
0.058704
0.035742
0.0032135
-0.0034836
0.10909
0.093784
0.023943
0.034148
0.0054459
0.032553
0.075925
0.089
0.078795
0.084854
0.099205
0.092189
0.13843
0.10813
0.073055
0.069547
0.053601
0.11037
0.11419
0.10016
0.060298
0.024262
0.04531
0.12153
0.16235
0.097611
0.12185
0.1649
0.1531
0.16458
0.14513
0.10495
0.09793
0.14864
0.14736
0.15151
0.13843
0.076563
0.076882
0.092508
0.10239
0.13939
0.10877
0.12472
0.11356
0.13205
0.11866
0.10048
0.045947
0.0003433
0.060298
0.050731
0.013738
-0.0079484
-0.05132
-0.034418
0.0070404
0.018202
-0.020067
0.01023
0.019159
0.0095917
0.069866
0.055515
0.025537
0.012462
-0.01337
0.03925
0.056471
0.043396
-0.00029452
-0.01624
-0.00093234
0.054558
0.090276
0.041483
0.069866
0.10782
0.10782
0.11419
0.06859
0.015651
0.017883
0.068909
0.059023
0.030002
0.015651
-0.04845
-0.04845
-0.037288
-0.035694
-0.015921
-0.047174
-0.05419
-0.048769
0.0099106
-0.0050782
-0.075238
-0.11446
-0.13105
-0.03952
-0.03378
-0.04271
-0.067585
-0.094692
-0.098838
-0.052915
-0.043028
-0.098838
-0.063758
-0.012094
-0.042072
-0.02517
-0.046218
-0.068222
-0.074919
-0.13424
-0.12595
-0.11765
-0.13487
-0.17729
-0.191
-0.18048
-0.132
-0.1151
-0.17793
-0.16836
-0.13966
-0.11989
-0.094054
-0.11542
-0.16932
-0.17633
-0.11542
-0.11032
-0.1167
-0.12722
-0.17633
-0.16262
-0.13519
-0.10458
-0.069817
-0.087357
-0.086081
-0.082892
-0.028996
-0.031548
-0.076833
-0.11925
-0.13519
-0.056423
-0.066628
-0.10266
-0.10904
-0.15401
-0.14349
-0.090546
-0.074282
-0.11415
-0.078427
-0.06599
-0.067903
-0.021343
-0.068541
-0.10426
-0.092778
-0.096605
-0.04845
-0.042391
-0.051639
-0.081617
-0.090227
-0.081617
-0.023256
0.02458
-0.050044
-0.043985
-0.0041214
0.022348
0.05392
0.031915
-0.024213
-0.041753
0.0095917
-0.019429
-0.042072
-0.040477
-0.08353
-0.070455
-0.061844
-0.060887
-0.026764
-0.039839
-0.049726
-0.042391
0.0057648
-0.0034836
-0.04845
-0.10585
-0.1269
-0.032504
-0.029315
-0.065352
-0.1049
-0.13743
-0.11223
-0.040796
-0.040158
-0.086081
-0.044942
-0.036331
-0.04558
0.011824
-0.0098618
-0.050044
-0.036012
-0.061844
-0.023256
-0.015921
-0.047174
-0.088314
-0.086081
-0.066628
-0.026126
-0.0076295
-0.064714
-0.05132
0.004808
0.0060837
0.01597
-0.009224
-0.065033
-0.086081
-0.023575
-0.023256
-0.024532
-0.025488
-0.06312
-0.040796
-0.011775
-0.02198
-0.0105
-0.014964
0.0038513
0.0051269
0.052326
0.070822
0.033191
-0.01624
-0.042391
0.019478
0.019159
0.0022568
-0.033461
-0.075238
-0.054828
0.0064026
0.034148
-0.024851
-0.0031647
0.022029
0.018202
0.068909
0.027451
-0.0031647
0.004808
0.01023
0.030002
0.017246
0.010867
-0.03378
-0.036331
-0.012413
0.010867
0.037975
-0.018791
0.0073593
0.027451
0.044353
0.06859
0.03351
-0.020067
-0.031867
0.027451
0.008635
0.00066221
-0.036331
-0.089908
-0.071411
-0.041115
-0.017516
-0.0034836
-0.002208
-0.011775
-0.0047593
0.021072
0.0016189
-0.026445
-0.037288
-0.065033
0.012462
0.013738
-0.018791
-0.034737
-0.078427
-0.078427
-0.013689
0.0073593
-0.042391
-0.012732
0.00066221
0.0067215
0.055196
0.035104
0.013419
0.0131
0.022348
0.031596
0.026813
0.057109
0.029045
0.01023
0.02171
0.067314
0.099524
0.035423
0.042439
0.069228
0.083898
0.10526
0.049455
2.4388e-05
-0.013689
0.050412
0.030959
-0.0089051
-0.024851
-0.073006
-0.048769
-0.016878
-0.018791
-0.022937
-0.021343
-0.031867
-0.038883
0.013738
0.01597
-0.038564
-0.080341
-0.091184
-0.020705
-0.011137
-0.036331
-0.059293
-0.084168
-0.060887
0.022029
0.052326
-0.021343
0.013419
0.035104
0.021072
0.069866
0.062212
0.046585
0.038612
0.042439
0.048818
0.042121
0.022667
-0.024851
-0.03091
-0.011775
0.022667
0.05392
0.0044891
0.02171
0.050731
0.069547
0.081984
0.046904
-0.0076295
-0.017516
0.042439
0.03064
0.018521
0.017883
-0.013051
0.030321
0.066358
0.055196
0.049455
0.067314
0.079433
0.08613
0.13939
0.12918
0.092189
0.052007
0.016927
0.084854
0.081665
0.048499
0.025856
-0.01337
-0.0085862
0.055196
0.035423
-0.053234
-0.02198
0.010867
0.012781
0.046585
0.015651
-0.022618
-0.021661
-0.015921
-0.019429
-0.025807
-0.032504
-0.062482
-0.062482
-0.043028
-0.012413
0.022986
-0.03091
-0.018472
0.0041702
0.031915
0.040845
-0.0015702
-0.050682
-0.056104
0.0025757
-0.0098618
-0.028359
-0.027083
-0.070774
-0.051958
-0.017197
-0.014008
-0.0076295
0.014694
0.022986
-0.0041214
0.038294
0.040845
0.027132
0.027132
0.0019378
0.085811
0.061574
0.026175
-0.005716
-0.020386
0.0051269
0.075606
0.082622
0.021072
0.052007
0.072417
0.076244
0.10335
0.070503
0.030002
0.013419
0.01597
0.0089539
0.011186
-0.005716
-0.055785
-0.045899
-0.039839
-0.031229
0.020435
-0.027083
-0.027721
-0.00061343
0.03638
0.045947
0.0131
-0.046218
-0.053234
0.052963
0.040845
0.0064026
-0.0066727
-0.055147
-0.020386
0.030321
0.038612
0.013738
0.030959
0.046904
0.065082
0.090595
0.068271
0.0025757
0.0089539
0.0041702
0.06859
0.060617
0.018202
-0.015602
-0.051958
-0.043347
0.03351
0.027451
-0.019429
0.0051269
0.023305
0.044991
0.089638
0.062212
0.0016189
0.0095917
0.039888
0.019797
0.026175
0.017883
-0.016878
-0.002208
0.01884
0.038931
0.059023
0.0041702
-0.01337
0.010548
0.052326
0.064763
0.0057648
-0.070774
-0.056742
0.014694
-0.0085862
-0.045261
-0.056104
-0.11319
-0.084168
-0.023894
-0.0098618
-0.034737
-0.0095429
0.0038513
-0.012094
0.040526
0.037337
0.015013
-0.0069916
-0.017835
0.054558
0.047861
0.040207
0.014694
-0.040158
-0.018791
0.060936
0.10622
0.043396
0.062212
0.05679
0.04818
0.10144
0.07752
0.052645
0.0067215
0.022667
0.030321
0.02777
0.019159
0.0035324
-0.00061343
-0.043028
-0.039202
0.013738
-0.022618
-0.002208
0.046585
0.074012
0.097292
0.04818
-0.027083
-0.038564
0.043077
0.040845
0.017246
0.0028946
-0.033461
-0.0095429
0.0016189
-0.005716
-0.015921
0.013738
-0.018153
-0.046536
0.016927
0.014056
-0.03665
-0.074919
-0.10139
-0.048131
-0.043666
-0.062801
-0.096605
-0.11446
-0.091184
-0.022299
0.0095917
-0.045899
-0.017197
0.011505
0.01884
0.059661
0.040845
0.0070404
0.0060837
0.040207
0.022348
0.031278
0.046904
0.015013
0.018521
0.03351
0.069228
0.12185
0.10877
0.10367
0.12408
0.17319
0.17606
0.1547
0.085811
0.054239
0.15183
0.14194
0.097611
0.092827
0.01023
-0.014645
0.013419
0.013419
0.0019378
0.023624
-0.0079484
-0.029634
0.030321
0.0038513
-0.040477
-0.048769
-0.056742
-0.015602
-0.02198
-0.059612
-0.083211
-0.096605
-0.061844
-0.0041214
0.01597
-0.062163
-0.02804
0.0070404
0.015013
0.063487
0.032553
0.016927
0.064125
0.09187
0.064444
0.06572
0.081346
0.043715
0.056471
0.096016
0.1126
0.13429
0.061893
0.049774
0.074968
0.14704
0.12599
0.038612
-0.04271
-0.059293
0.010867
0.0016189
-0.045261
-0.06025
-0.10362
-0.078109
-0.036012
-0.053871
-0.066947
-0.024532
-0.0038025
0.0038513
0.043396
0.022667
0.0028946
0.016289
0.018521
0.060617
0.053601
0.047223
0.0070404
-0.014645
-0.01337
0.070503
0.11579
0.033829
0.028088
0.059661
0.087725
0.095697
0.050412
0.0076782
0.0092728
0.061893
0.040845
0.053282
0.046266
-0.0063538
-0.0076295
0.00098112
0.0079971
0.037975
0.014375
0.014056
0.055515
0.078795
0.059023
-0.0041214
-0.053552
-0.047493
0.03638
0.029045
-0.0018891
-0.02198
-0.06025
-0.028996
0.03064
0.073055
0.044034
0.067952
0.066995
0.058066
0.14321
0.12663
0.083898
0.093465
0.06859
0.065082
0.078476
0.069547
0.022029
-0.013689
0.0035324
0.050412
0.073693
0.0131
0.03351
0.021072
0.028407
0.068271
0.044034
0.029364
0.026813
0.068271
0.056471
0.029045
0.055834
0.017246
0.0131
0.0022568
0.047542
0.085492
0.038294
-0.0025269
0.0079971
0.045629
0.028407
-0.016878
-0.08066
-0.090865
-0.030591
-0.052915
-0.090546
-0.11319
-0.16007
-0.14891
-0.087038
-0.06312
-0.11032
-0.070455
-0.058017
-0.069498
-0.023894
-0.035375
-0.050044
-0.059931
-0.077471
-0.044304
-0.018791
-0.023894
-0.074919
-0.084487
-0.045261
0.016289
0.03638
-0.0082673
0.00098112
0.028726
0.040207
0.082622
0.07146
0.034148
0.034148
0.060617
0.067314
0.079752
0.093784
0.030959
0.027451
0.05679
0.056153
0.096335
0.086449
0.038294
0.052645
0.081346
0.081665
0.029045
-0.026764
-0.099794
-0.028359
-0.015921
-0.062482
-0.091503
-0.12882
-0.11829
-0.069498
-0.040158
-0.06025
-0.031548
-0.0079484
-0.012413
0.05679
0.026175
-0.0053971
0.041483
0.075606
0.081665
0.075287
0.044991
0.022348
0.018202
0.062212
0.12057
0.17447
0.042439
0.0028946
0.029683
0.055515
0.087087
0.060617
-0.042072
-0.058974
-0.034099
-0.061844
-0.070774
-0.081935
-0.13647
-0.11478
-0.10139
-0.078427
-0.017197
-0.036331
-0.0073105
0.012462
0.06285
0.073693
0.048818
0.038612
0.043077
0.14481
0.15151
0.10845
0.059023
0.040845
0.06572
0.11005
0.093146
0.060936
0.10973
0.10845
0.060617
0.069547
0.03351
0.0079971
-0.0031647
-0.00093234
-0.0105
-0.017197
-0.03378
-0.060887
-0.07779
-0.051639
0.033829
0.045947
-0.071411
-0.053552
0.010867
0.03638
0.054558
0.035104
-0.030591
-0.017197
0.019159
-0.014327
-0.034418
-0.028678
-0.073325
-0.061844
-0.043347
-0.051958
-0.031229
-0.016559
-0.017197
-0.028359
0.0041702
0.011824
-0.018472
-0.052915
-0.073963
-0.00061343
0.023624
-0.0089051
-0.035694
-0.070136
-0.044942
0.031915
0.058385
0.018202
0.072736
0.087725
0.083579
0.10176
0.097611
0.093465
0.080709
0.08613
0.081346
0.071141
0.026813
-0.026445
-0.024851
-0.028996
-0.010181
0.038294
-0.043985
-0.067266
-0.057061
-0.037288
-0.014327
-0.046218
-0.10617
-0.12595
-0.059931
-0.050682
-0.067585
-0.066628
-0.097562
-0.064714
-0.014964
0.020754
0.021391
0.034148
0.096016
0.11579
0.12344
0.10909
0.095378
0.10399
0.11675
0.18021
0.17542
0.14864
0.087406
0.068909
0.069866
0.12376
0.16841
0.072736
0.070822
0.041483
0.03351
0.10271
0.059661
-0.04271
-0.072049
-0.057379
-0.057698
-0.081617
-0.12116
-0.16166
-0.1151
-0.11383
-0.10841
-0.071093
-0.11032
-0.088633
-0.053871
-0.019748
0.017883
-0.021024
-0.07173
-0.074601
0.025218
-0.012094
-0.072049
-0.06312
-0.094692
-0.07779
-0.053234
-0.055466
-0.046536
-0.034418
-0.036012
-0.037607
0.02777
0.031596
0.014375
-0.01337
-0.021661
0.074012
0.069228
0.063806
0.054558
0.025856
0.046904
0.088362
0.10208
0.038294
0.050412
0.091552
0.053282
0.096973
0.064125
0.0019378
-0.027721
-0.034418
-0.029953
-0.043347
-0.055785
-0.080979
-0.08927
-0.077471
-0.04271
-0.0041214
-0.052596
-0.03091
0.0016189
0.027451
0.057428
0.035423
0.0035324
-0.0060349
0.064763
0.051369
0.02171
0.0038513
-0.041434
0.019159
0.079114
0.06572
0.03351
0.036699
0.031915
0.022029
0.067314
0.080071
0.063487
0.039888
0.00066221
0.053282
0.038612
0.00066221
-0.012413
-0.039839
-0.018472
0.033829
0.02171
-0.02804
-0.015283
-0.012094
-0.0095429
0.018202
-0.0098618
-0.032823
-0.053871
-0.056423
-0.057698
-0.052596
-0.050044
-0.049407
-0.018791
0.013419
0.058066
0.077838
0.059661
0.063806
0.088362
0.10048
0.14417
0.11675
0.045629
-0.01911
0.09506
0.09187
0.038294
-0.020386
-0.088633
-0.062801
-0.020386
-0.0095429
-0.020067
-0.0034836
-0.015283
-0.045261
-0.013689
0.021072
-0.0073105
-0.045899
-0.098519
-0.052596
-0.038564
-0.077152
-0.093097
-0.10617
-0.086081
-0.0079484
-0.0012513
-0.093735
-0.0098618
0.020754
0.014694
0.082622
0.075606
0.045947
0.050412
0.027132
0.050093
0.098249
0.084217
-0.035694
-0.074601
-0.03091
0.0095917
0.010548
-0.05132
-0.062482
-0.060569
-0.055466
-0.024851
-0.060887
-0.12754
-0.14125
-0.072368
-0.07779
-0.099157
-0.10043
-0.14061
-0.11128
-0.062482
-0.040158
-0.03378
0.004808
0.0051269
0.015332
0.1008
0.071141
0.026494
0.019478
0.0041702
0.067952
0.066039
0.05105
0.042758
0.0089539
0.034786
0.10048
0.11675
0.042439
0.10526
0.12727
0.14481
0.18531
0.14003
0.072098
0.081028
0.10463
0.10048
0.10176
0.065082
-0.0105
-0.029634
-0.030591
-0.050044
-0.033461
-0.077152
-0.094692
-0.088314
-0.05132
-0.015283
-0.057698
-0.11765
-0.15273
-0.069498
-0.085443
-0.098838
-0.089589
-0.087357
-0.088314
-0.043028
-0.012094
-0.01624
0.014694
0.027132
0.016289
0.0089539
0.011824
0.0060837
0.026813
0.0057648
0.054558
0.031278
-0.02804
-0.036012
-0.045261
-0.035375
0.045947
0.054877
-0.026764
-0.0047593
0.027451
-0.0053971
0.03351
0.015332
-0.0098618
-0.027721
-0.0076295
-0.021661
-0.027721
-0.035375
-0.076195
-0.058336
-0.021343
0.004808
0.030002
-0.021661
0.0016189
0.037018
0.07146
0.080709
0.052963
0.0028946
-0.011137
0.042439
-0.0018891
0.015013
0.02777
-0.027083
-0.0050782
0.026175
0.03925
-0.0098618
-0.017516
0.0038513
0.019478
0.096654
0.069866
0.02777
0.017246
-0.017835
0.010867
0.011824
-0.022618
-0.075238
-0.094054
-0.064077
0.008635
0.025218
-0.016559
-0.015921
0.0057648
-0.011775
0.011186
0.012462
-0.011775
-0.011775
-0.013051
-0.01337
0.0022568
-0.0082673
-0.095011
-0.088314
-0.05419
-0.051001
-0.021024
-0.050044
-0.05132
-0.046855
-0.020067
-0.01337
-0.043985
-0.088314
-0.098838
-0.027402
-0.031867
-0.048131
-0.029315
-0.04845
-0.024851
0.017883
0.030002
0.011824
0.047542
0.069547
0.067314
0.11611
0.10495
0.069866
0.063806
0.030959
0.059342
0.039569
-0.0018891
-0.015921
-0.052915
-0.04558
0.0057648
0.0064026
-0.060887
-0.054509
-0.024851
-0.013051
0.026813
-0.0050782
-0.047174
-0.032186
0.044034
0.055834
0.038931
0.047861
0.033829
0.064763
0.10622
0.11356
0.13301
0.11834
0.11866
0.087406
0.15055
0.19711
0.14577
0.03638
-0.0069916
0.054239
2.4388e-05
-0.05132
-0.051958
-0.094054
-0.08353
-0.050044
-0.045899
-0.093735
-0.065352
-0.050682
-0.042391
0.031596
-0.0073105
-0.039202
-0.041753
-0.069498
-0.041753
-0.015921
-0.030591
-0.04558
-0.050044
-0.053234
-0.026126
-0.0047593
-0.073963
-0.058655
-0.0063538
0.0028946
0.043077
0.0016189
-0.054509
-0.056104
-0.0095429
-0.010819
0.0019378
0.031596
0.036699
0.037018
0.034786
0.043715
0.11037
0.10144
0.095378
0.097611
0.14034
0.13046
0.081665
-0.023256
-0.034418
0.041164
0.022986
-0.04271
-0.056423
-0.11159
-0.095968
-0.034418
-0.02804
-0.078427
-0.033461
-0.029315
-0.020705
0.050412
0.066039
0.055515
0.085173
0.063487
0.059023
0.043077
0.035423
-0.0060349
-0.0041214
0.027451
0.06572
0.061574
-0.014008
0.0070404
0.015332
0.0079971
0.03064
0.00098112
-0.050682
-0.062482
-0.0073105
-0.014964
-0.055147
-0.034418
-0.055785
-0.066309
-0.054828
-0.055785
-0.023575
-0.029953
-0.002208
-0.0085862
0.012781
0.0044891
-0.044942
-0.10522
-0.09246
-0.029953
-0.04558
-0.061206
-0.056742
-0.12626
-0.10936
-0.06312
-0.042072
-0.064395
-0.013051
0.0079971
0.052326
0.17319
0.1362
0.093465
0.090595
0.097292
0.15438
0.19233
0.19041
0.16044
0.13971
0.13365
0.1582
0.17574
0.073055
0.075287
0.065401
0.059023
0.046585
-0.023575
-0.11574
-0.13838
-0.11223
-0.15146
-0.1674
-0.16039
-0.2264
-0.2197
-0.20216
-0.18941
-0.1556
-0.15752
-0.14667
-0.12786
-0.071411
-0.058017
-0.082254
-0.11861
-0.12754
-0.038564
-0.032823
-0.059612
-0.067903
-0.097562
-0.070136
-0.011456
0.004808
-0.033461
0.0092728
0.022348
0.017246
0.067314
0.048818
0.023305
0.025218
0.035742
0.074012
0.074968
0.064125
0.024899
0.031278
0.061255
0.10016
0.13205
0.067314
0.080709
0.084854
0.097611
0.13939
0.09506
0.025537
-0.016559
0.018202
0.017246
-0.0089051
-0.028996
-0.080341
-0.057061
-0.023256
-0.017516
0.008316
0.01884
0.012143
0.048499
0.09187
0.087406
0.072417
0.087725
0.049774
0.12695
0.18754
0.19966
0.12982
0.063806
0.097611
0.16554
0.17255
0.13173
0.16076
0.16139
0.12567
0.13524
0.039569
0.026175
0.042121
0.0060837
-0.01911
-0.052915
-0.061525
-0.1049
-0.12371
-0.11542
-0.072687
-0.087357
-0.17442
-0.12977
-0.068541
-0.051001
-0.039839
-0.096286
-0.12945
-0.12371
-0.039202
-0.041753
-0.034418
-0.02804
-0.056423
0.027132
0.063806
0.095378
0.11993
0.13237
0.15374
0.19296
0.2577
0.24654
0.17511
0.11419
0.07433
0.10048
0.081346
0.065082
-0.0076295
-0.13264
-0.13392
-0.065352
-0.11032
-0.19898
-0.19579
-0.19419
-0.20727
-0.16677
-0.18813
-0.20886
-0.18813
-0.17442
-0.13615
-0.1285
-0.13392
-0.16964
-0.1454
-0.11128
-0.043666
0.0019378
-0.066947
-0.07779
-0.067903
-0.026445
0.035104
-0.0085862
-0.072368
-0.084168
-0.033461
-0.045899
-0.057379
-0.072687
-0.10777
-0.062801
0.0016189
0.05392
0.1177
0.18531
0.22262
0.17606
0.22581
0.26344
0.24208
0.25515
0.20987
0.26185
0.2239
0.18978
0.15501
0.05392
0.054239
0.047861
0.0003433
-0.10936
-0.077152
-0.10298
-0.14827
-0.13105
-0.16134
-0.1859
-0.18845
-0.18239
-0.13902
-0.11797
-0.11478
-0.14954
-0.12563
-0.074282
-0.022618
0.0079971
-0.019429
0.020754
0.028726
0.046585
0.090914
0.062212
-0.023894
-0.051001
0.0054459
0.013419
-0.025807
-0.056423
-0.10936
-0.074919
-0.058974
-0.064077
-0.060569
-0.050682
-0.043666
0.014694
0.14066
0.16681
0.22486
0.20413
0.12759
0.19201
0.21784
0.23634
0.23761
0.207
0.21943
0.26631
0.21912
0.081346
0.061893
0.081984
0.05679
0.022029
-0.059293
-0.14412
-0.16995
-0.17219
-0.19355
-0.20854
-0.21843
-0.2551
-0.25734
-0.22576
-0.18431
-0.14763
-0.19355
-0.169
-0.12882
-0.090227
-0.052277
-0.060887
-0.090227
-0.095968
-0.022299
-0.024851
-0.036012
-0.029634
-0.063439
-0.035694
-0.0025269
0.040207
0.070185
0.075287
0.063169
0.11611
0.2054
0.19902
0.14481
0.099205
0.093465
0.15916
0.14927
0.12823
0.14481
0.078795
0.047861
0.077201
0.083579
0.061255
0.059661
0.074968
0.028726
0.11515
0.12567
0.1547
0.20317
0.17893
0.11643
0.10144
0.13365
0.11962
0.11611
0.1295
0.12057
0.090276
0.043396
-0.0038025
0.013419
-0.021024
-0.062163
-0.17091
-0.21683
-0.22704
-0.16198
-0.19642
-0.20727
-0.2044
-0.22544
-0.17601
-0.12754
-0.11542
-0.11128
-0.1033
-0.04845
-0.014645
0.081028
0.090914
0.09793
0.058704
0.023305
0.099205
0.075925
0.018202
-0.017197
-0.03952
-0.056742
0.027132
0.052645
-0.069817
-0.080022
-0.099476
-0.1269
-0.057698
-0.030272
0.10877
0.034467
-0.021024
-0.044942
-0.048769
-0.053234
-0.087676
-0.020386
0.036699
0.037018
-0.0015702
-0.088314
-0.087357
-0.10458
-0.11064
-0.10266
-0.13137
-0.20472
-0.228
-0.15337
-0.1556
-0.17633
-0.16836
-0.19324
-0.14731
-0.098838
-0.080022
-0.067903
-0.032186
-0.016878
-0.015283
0.038612
0.037018
0.012462
-0.0060349
-0.02517
0.043396
0.045629
0.019159
-0.0069916
-0.030272
-0.0069916
0.057109
0.073374
0.0099106
0.040526
0.060936
0.055515
0.098249
0.077201
0.044991
0.042758
0.062531
0.056471
0.060617
0.084536
0.059661
0.069228
0.12695
0.17415
0.21688
0.18053
0.19265
0.20221
0.21975
0.21114
0.17287
0.13843
0.12057
0.15884
0.14385
0.096654
0.047542
-0.016878
0.050093
0.14832
0.06285
-0.0047593
0.047542
0.055834
0.028407
0.066677
0.068909
0.043077
0.0070404
-0.10043
-0.066309
-0.038883
-0.068222
-0.12626
-0.15497
-0.15146
-0.15146
-0.13966
-0.18335
-0.14699
-0.12563
-0.11957
-0.060887
-0.046218
-0.050682
-0.058336
-0.032504
-0.0038025
-0.0025269
0.0070404
-0.0095429
0.016289
0.036699
0.05392
0.063487
0.031278
0.019478
0.019478
0.05105
0.058704
0.017564
-0.068222
-0.057698
0.071779
0.11037
0.14449
0.11834
0.02171
0.046266
0.067952
0.061255
0.097611
0.23187
0.24208
0.12982
0.16937
0.036061
-0.038245
0.0028946
-0.041434
-0.04271
-0.092141
-0.16198
-0.20503
-0.26244
-0.24841
-0.2079
-0.16708
-0.15241
-0.14795
-0.06599
-0.036969
-0.018472
-0.042391
-0.057379
-0.04558
0.026175
0.05105
0.07433
0.060617
0.015651
0.0025757
-0.0041214
0.041164
0.083898
0.0016189
-0.02198
-0.03952
-0.0060349
-0.0038025
-0.050363
-0.094054
-0.098838
0.01023
0.008635
-0.022299
-0.011775
-0.021343
0.012462
0.07146
0.095378
0.13492
0.20381
0.17798
0.10335
0.13843
0.12918
0.071779
0.034786
-0.014327
0.044353
-0.00061343
-0.087357
-0.11383
-0.10872
-0.062163
-0.043666
-0.069498
-0.14667
-0.11989
-0.055785
-0.030591
0.012143
-0.0073105
-0.084168
-0.079065
-0.06886
-0.069179
-0.033142
-0.035056
-0.067903
-0.033461
-0.01337
-0.014327
0.027132
-0.00029452
0.067314
0.050731
0.14226
0.19584
0.16713
0.03638
-0.015283
0.099205
0.077201
0.022667
-0.028678
-0.11351
-0.14667
-0.097881
-0.041115
-0.10713
-0.14125
-0.13296
-0.15178
-0.11574
-0.12786
-0.13679
-0.12435
-0.11542
-0.06025
-0.026126
-0.02804
-0.055785
-0.053552
0.0079971
0.099843
0.11898
0.072417
0.11292
0.16713
0.15916
0.18244
0.17319
0.11834
0.078476
0.13365
0.14513
0.11993
0.10526
0.044672
0.03638
0.0057648
0.022348
0.031915
0.03064
0.064125
0.05679
0.095378
0.10144
0.097292
0.028726
-0.022937
-0.01624
-0.0053971
-0.012094
-0.028359
-0.043666
-0.0041214
-0.03665
-0.095011
-0.097881
0.0003433
0.021072
-0.060887
-0.019748
0.004808
0.076563
0.052963
0.004808
0.096335
0.10973
0.063806
0.013738
0.010548
0.059661
0.12408
0.09187
-0.03952
-0.045899
0.023943
-0.023256
-0.041434
-0.085762
-0.169
-0.17314
-0.15401
-0.191
-0.20312
-0.19547
-0.21652
-0.15752
-0.11287
-0.11861
-0.080979
-0.071093
0.03638
0.073374
0.14832
0.2577
0.19488
0.1346
0.13237
0.18754
0.17989
0.12504
0.10144
-0.0034836
0.051688
0.11834
0.0028946
-0.12371
-0.11032
-0.087357
-0.096286
-0.076514
-0.042391
-0.010819
-0.033142
-0.040158
0.040845
0.028088
0.0028946
-0.0025269
0.050093
0.1008
0.10495
0.06572
-0.053234
0.011186
0.017883
-0.073325
-0.041753
-0.073006
-0.12658
-0.16294
-0.12977
-0.16485
-0.17378
-0.15497
-0.16166
-0.092778
-0.074282
-0.077471
-0.034418
-0.012094
-0.024851
0.012462
0.070185
0.041483
-0.012413
-0.052915
-0.065671
0.032234
-0.020705
-0.06025
-0.037288
0.031596
0.027132
0.0089539
0.089638
0.14545
0.17479
0.17032
0.13779
0.16522
0.16331
0.15119
0.097611
0.14321
0.21529
0.16426
0.0060837
-0.066628
-0.10458
-0.11925
-0.050044
-0.052596
-0.13998
-0.15688
-0.19355
-0.21365
-0.13264
-0.10426
-0.18941
-0.2264
-0.15465
-0.14667
-0.14253
-0.12754
-0.16485
-0.13743
-0.084168
-0.062163
-0.075876
-0.071093
-0.054509
-0.032504
0.032553
0.020435
-0.038245
-0.074282
-0.10362
0.012781
0.017246
0.042439
0.0003433
-0.058336
0.0076782
0.079114
0.10399
0.074968
0.10622
0.17702
0.17032
0.2475
0.25451
0.207
0.20572
0.19265
0.24431
0.24527
0.19966
0.077201
0.070822
0.06572
0.12089
0.13365
0.024899
-0.0073105
-0.015283
-0.050044
-0.044942
-0.060569
-0.1049
-0.16517
-0.11478
-0.14125
-0.18622
-0.19706
-0.2162
-0.16262
-0.13392
-0.13679
-0.13583
-0.16007
-0.18367
-0.16039
-0.099157
-0.097881
-0.1521
-0.21396
-0.23214
-0.12913
-0.086081
-0.04845
0.011505
0.029045
0.023943
0.045947
0.053282
0.05679
0.10016
0.18563
0.29661
0.46946
0.35816
0.23315
0.27365
0.29055
0.2813
0.23251
0.19105
0.1885
0.20859
0.16235
0.13205
0.1346
0.04531
-0.071411
-0.030591
-0.097881
-0.055785
-0.1167
-0.22417
-0.28412
-0.23533
-0.25064
-0.28157
-0.22544
-0.18462
-0.16645
-0.1521
-0.15337
-0.12371
-0.10203
-0.10426
-0.061525
0.070822
0.087406
0.019797
-0.069498
-0.10107
-0.054509
-0.021661
-0.081935
-0.12563
-0.12786
-0.13487
-0.12435
-0.11096
-0.12499
-0.052277
-0.0079484
0.10239
0.19392
0.15501
0.11993
0.18914
0.28258
0.35114
0.31766
0.35306
0.36326
0.31989
0.2542
0.24622
0.37315
0.20859
0.072736
0.057747
0.076882
0.063806
-0.11255
-0.19579
-0.2213
-0.21269
-0.26595
-0.29114
-0.2618
-0.23437
-0.23693
-0.24809
-0.24936
-0.22768
-0.20408
-0.17314
-0.1269
-0.072049
-0.076833
-0.12977
-0.11542
-0.098838
-0.084806
-0.087357
-0.051639
-0.016559
-0.036331
-0.017197
0.11579
0.15087
0.11132
0.15406
0.17606
0.15501
0.19265
0.16299
0.15597
0.1362
0.12536
0.092508
0.022029
0.017883
-0.029634
-0.050044
0.026494
0.20923
0.29246
0.2172
0.10941
0.12312
0.18053
0.26695
0.36199
0.39579
0.37857
0.30012
0.11547
0.030959
0.097611
0.083898
0.11069
0.020754
-0.10203
-0.17282
-0.22194
-0.28604
-0.33993
-0.28349
-0.29273
-0.33037
-0.32494
-0.36577
-0.29816
-0.29497
-0.30549
-0.3023
-0.30996
-0.25319
-0.1977
-0.14954
-0.11159
0.039569
0.059023
0.022029
0.099524
0.10845
0.13205
0.14672
0.1464
0.17192
0.17351
0.13524
0.049137
0.095697
0.13939
0.2121
0.23283
0.098249
0.082941
0.12121
0.16458
0.12791
0.19615
0.24527
0.19265
0.18372
0.14034
0.20381
0.19233
0.089
0.12057
0.10367
0.048818
0.087087
0.08613
-0.0044404
-0.041434
-0.014327
-0.075557
-0.1926
-0.24554
-0.26914
-0.24873
-0.26595
-0.28221
-0.30581
-0.36162
-0.33547
-0.30103
-0.25351
-0.30358
-0.26754
-0.22257
-0.19515
-0.11446
-0.11319
-0.132
-0.13264
-0.097562
-0.067266
-0.049407
-0.081935
-0.1167
-0.094692
-0.081298
-0.06025
-0.012732
-0.069817
-0.035375
-0.0050782
-0.0034836
0.024262
0.0131
-0.0028458
-0.00093234
0.062212
0.075925
0.15661
0.28354
0.23028
0.31383
0.35051
0.41939
0.39101
0.38559
0.40121
0.36486
0.44777
0.39834
0.41333
0.35561
0.28896
0.18595
0.089638
0.051369
0.056153
-0.047812
-0.083849
-0.10394
-0.13073
-0.20599
-0.15592
-0.20854
-0.20631
-0.16166
-0.17506
-0.21715
-0.26212
-0.21715
-0.20408
-0.16772
-0.18558
-0.15688
-0.15465
-0.169
-0.12307
-0.086081
-0.12371
-0.080022
-0.0082673
0.03638
0.029045
-0.016559
-0.12339
-0.13902
-0.084487
-0.068541
-0.041434
-0.075876
-0.19547
-0.15943
-0.09533
-0.076195
-0.068222
-0.062801
-0.034418
0.013738
0.22581
0.28928
0.2711
0.23984
0.17542
0.27684
0.29693
0.3049
0.31256
0.26823
0.2188
0.22199
0.091552
0.011505
0.13939
0.14513
0.015651
-0.053234
-0.15114
-0.13934
-0.14795
-0.072049
-0.079065
-0.10107
-0.095011
-0.096286
-0.017197
0.11834
0.15565
0.14545
0.14513
0.1547
0.10973
0.096016
0.1665
0.10654
0.020754
0.038612
0.11993
0.042439
-0.10617
-0.10713
-0.16932
-0.19005
-0.19929
-0.19961
-0.21939
-0.19961
-0.2095
-0.19483
-0.13615
-0.16868
-0.14795
-0.065033
-0.015921
0.046904
0.014375
-0.0034836
0.016927
0.046904
0.18978
0.30299
0.32946
0.21242
0.14513
0.13397
0.18531
0.23474
0.12185
0.099524
0.029364
-0.053234
-0.029953
-0.06886
-0.11702
-0.17506
-0.20312
-0.22289
-0.17984
-0.10585
-0.13774
-0.016559
0.013738
0.035742
0.062531
0.04531
0.023624
0.059661
0.15151
0.14545
0.067633
0.0003433
0.012462
-0.0038025
0.017883
-0.015283
-0.06025
-0.013689
-0.097562
-0.1269
-0.11032
-0.085125
0.032234
0.024899
-0.017516
0.064763
0.052007
0.070822
0.063487
0.025218
0.081028
0.19902
0.26759
0.19552
0.13971
0.16139
0.13014
0.052963
-0.058336
-0.12499
-0.089589
-0.038245
-0.025807
-0.067266
-0.13105
-0.17474
-0.14604
-0.16708
-0.132
-0.10043
-0.11383
-0.11989
-0.051639
-0.026126
-0.0053971
-0.056742
-0.091184
-0.081617
-0.029634
-0.056104
-0.094373
-0.10617
-0.14476
-0.1167
-0.034418
-0.023894
-0.0069916
0.082941
0.11706
0.083898
0.11834
0.093146
0.074968
0.034467
0.016289
0.16299
0.18117
0.11866
0.0057648
-0.061206
-0.083211
0.0003433
0.016289
-0.11957
-0.10936
-0.087357
-0.084168
-0.0031647
0.015013
-0.017197
-0.020386
0.028088
0.048818
0.038612
0.05392
0.086768
0.11451
0.12153
0.19743
0.23474
0.17702
0.11483
0.1295
0.17957
0.16299
0.11292
0.0028946
-0.056423
0.042121
0.078795
0.022986
-0.05132
-0.12595
-0.10266
0.0022568
0.0003433
-0.076833
-0.069179
0.027451
0.052963
0.068271
0.05392
0.047542
0.0067215
-0.044623
-0.0069916
-0.020705
-0.057061
-0.096605
-0.089908
-0.072368
-0.011137
0.0095917
-0.060569
-0.074919
-0.076195
-0.06312
0.023624
0.064125
0.0013
0.0070404
0.082622
0.13907
0.1228
0.14736
0.17032
0.17893
0.20253
0.12886
0.10813
0.12472
0.10845
0.058704
0.15151
0.2188
0.10399
-0.034418
-0.091503
-0.014327
0.0019378
0.011824
0.0032135
-0.030591
-0.036012
0.008635
0.049137
0.0057648
0.072417
0.099843
0.13301
0.14321
0.12791
0.089
0.11706
0.10144
0.11579
0.085492
0.087087
0.088362
0.073693
0.11962
0.19902
0.20891
0.11547
0.094741
0.15055
0.14545
0.14066
0.080709
0.029683
0.052645
0.065401
-0.0038025
-0.027721
0.0032135
-0.037288
-0.023894
-0.0082673
0.020435
0.082622
0.13205
0.1547
0.13524
0.1767
0.19647
0.15597
0.079114
0.044034
0.15916
0.20285
0.17128
0.10463
0.027451
-0.016559
-0.018153
-0.060569
-0.066628
-0.030591
-0.018791
-0.090227
0.0028946
-0.002208
-0.073325
-0.074919
-0.06312
-0.04271
0.020435
0.012143
0.01023
0.0089539
0.016608
0.12982
0.18467
0.10335
0.12344
0.098568
0.11802
0.19615
0.18786
0.058704
0.045629
0.091233
0.074968
0.081028
0.022986
-0.052915
-0.058017
-0.019429
0.0073593
0.059342
0.038294
0.11292
0.15183
0.15565
0.14034
0.13779
0.079114
0.026813
0.13939
0.20604
0.15374
0.076563
0.026175
0.071141
0.11515
0.09793
0.03638
0.02171
-0.009224
-0.028996
0.008316
0.058385
-0.027721
-0.079065
-0.023575
-0.041753
-0.058017
-0.047812
-0.12882
-0.22863
-0.10649
-0.0028458
0.014375
-0.064714
-0.076514
-0.027721
-0.03378
-0.024851
-0.0098618
-0.026445
-0.026126
0.077201
0.064444
0.066677
0.10526
0.033829
0.10495
0.10654
0.019159
0.058066
0.034148
0.02458
-0.0018891
-0.031548
0.0057648
-0.02198
-0.079703
-0.15082
-0.13774
-0.17219
-0.18813
-0.20185
-0.2162
-0.19387
-0.13615
-0.1336
-0.16421
-0.094373
-0.069817
-0.081298
-0.0031647
0.027132
-0.018472
-0.036012
-0.041434
0.020435
0.032553
0.038294
0.021391
0.030002
0.062212
0.17989
0.23283
0.20349
0.14927
0.16426
0.20891
0.24654
0.15374
0.11993
0.12791
0.2054
0.20732
0.16267
0.10208
0.013419
-0.045261
0.0089539
0.11419
0.29087
0.21975
0.12982
0.16363
0.22517
0.19169
0.1598
0.13971
0.096016
0.15119
0.17383
0.16745
0.11356
0.0092728
-0.014964
-0.042072
-0.078109
-0.1269
-0.14253
-0.16007
-0.13487
-0.081935
-0.14476
-0.17793
-0.20185
-0.23533
-0.20089
-0.16517
-0.18112
-0.20982
-0.19993
-0.19292
-0.14221
-0.084168
-0.15497
-0.1438
-0.095011
-0.081935
-0.037607
-0.041434
-0.094054
-0.11128
-0.079703
-0.11032
-0.099157
-0.08353
-0.13647
-0.088633
-0.03378
0.011824
0.022029
0.049774
0.11547
0.10271
0.096335
0.076882
0.1126
0.11037
0.11451
0.24622
0.32436
0.22294
0.19679
0.15151
0.083579
0.14672
0.20604
0.12089
0.093465
0.12886
0.078795
0.044991
0.0051269
-0.057698
0.017246
-0.011137
-0.033142
-0.076195
-0.070774
-0.077471
-0.0982
-0.084806
-0.057698
0.046585
0.024899
0.010548
0.075287
0.13684
0.15501
0.10431
0.03638
0.0016189
0.099524
0.11834
0.081346
0.043715
-0.047812
-0.049088
-0.031229
0.011824
0.038294
-0.00061343
-0.03378
-0.047812
0.043077
0.037018
-0.010819
-0.056104
-0.085443
-0.056742
-0.064395
-0.085762
-0.11096
-0.13105
-0.092141
-0.043666
-0.065033
-0.097881
-0.079703
-0.10649
-0.12467
-0.069179
-0.065671
-0.069498
-0.035056
0.029683
0.033191
0.073693
0.067314
0.011186
0.015651
0.055196
0.1244
0.19807
0.11069
0.15533
0.22773
0.21146
0.26121
0.20221
0.0028946
-0.011456
-0.011456
-0.016878
-0.00029452
0.0016189
-0.057698
-0.032186
-0.070136
-0.067266
-0.038564
-0.056423
-0.052277
-0.065352
0.0038513
0.064125
0.069866
0.02458
-0.023894
0.11993
0.11515
0.080071
0.041483
0.028088
0.10495
0.13524
0.11005
-0.0038025
-0.023575
0.054239
0.084536
0.064763
0.055515
0.0054459
-0.043028
-0.085125
-0.048769
-0.051958
-0.054828
-0.073325
-0.078109
-0.065352
-0.03378
0.028088
-0.036012
-0.087038
-0.058017
-0.029315
0.015013
-0.038245
-0.059931
-0.062482
-0.031548
-0.084168
-0.068541
-0.11128
-0.14061
-0.10043
-0.05132
-0.050044
0.035104
0.064763
0.083579
0.061893
0.094422
0.075925
0.073374
0.059023
0.06572
0.10526
0.055515
0.044353
0.054239
-0.0034836
0.0038513
0.046585
0.052645
0.0095917
0.01884
0.050412
0.065082
0.10367
0.024262
0.036699
0.13142
0.12791
0.10558
0.12312
0.099843
0.060617
0.026494
0.017246
-0.0076295
0.020116
2.4388e-05
0.039569
0.054877
0.036699
-0.019429
0.0099106
-0.03952
-0.063758
0.004808
-0.046855
-0.016878
0.035104
0.020435
0.011824
-0.022937
0.016608
0.10144
0.10973
0.065082
0.069866
0.054877
0.058066
0.045947
-0.017197
-0.063758
-0.022937
-0.049726
-0.071093
-0.047174
-0.062801
-0.07779
-0.047812
-0.066947
-0.11925
-0.062163
-0.04558
-0.043666
0.0076782
-0.021024
-0.079065
-0.10649
-0.066309
0.01023
0.020754
0.036061
-0.051958
-0.080341
-0.066628
-0.035694
0.0073593
0.020435
0.09187
0.17
0.12759
0.077838
0.017246
-0.055147
-0.064395
0.055834
0.12408
0.075606
0.064763
-0.0018891
0.022029
0.081665
0.041483
0.01884
0.09187
0.090276
0.050412
0.13588
0.1059
0.066995
0.054239
0.0051269
0.018521
-0.0012513
0.0032135
-0.029634
-0.051958
-0.036012
0.038612
0.042121
-0.045899
-0.014645
0.027451
0.033829
0.032553
0.024262
0.04531
0.037975
-0.0089051
-0.029953
-0.040158
-0.067585
-0.073644
-0.10362
-0.083849
-0.073963
-0.04558
-0.11478
-0.11957
-0.093416
-0.035375
0.018202
0.0092728
-0.051639
-0.055785
0.011186
0.0016189
0.0032135
-0.014645
-0.048769
0.028088
0.054239
0.022986
-0.019429
0.044353
0.061574
0.1008
0.15087
0.1228
0.079114
0.02458
-0.014645
0.0089539
0.050093
0.17319
0.11388
0.044991
0.13078
0.17255
0.14066
0.026494
0.031915
0.10399
0.094103
0.14034
0.13078
0.07146
0.050412
0.055515
0.019797
-0.005716
0.025856
0.014375
0.008316
0.0057648
0.0038513
0.028088
0.0060837
0.028726
0.08326
0.081665
0.014375
0.013738
0.022986
-0.048131
-0.046536
-0.014645
0.047542
0.078476
-0.057061
-0.060887
0.0019378
-0.051001
-0.10745
-0.022618
-0.049407
-0.11765
-0.086081
-0.071411
-0.078427
-0.12722
-0.19387
-0.15178
-0.1623
-0.20918
-0.2433
-0.28476
-0.23788
-0.12563
-0.078427
-0.12467
-0.1033
-0.06886
-0.040158
0.015332
0.0028946
-0.013689
-0.014327
0.013738
0.0019378
0.011824
0.075925
0.0016189
0.010548
0.039569
0.042439
0.10239
0.073055
0.081665
0.097611
0.11866
0.16841
0.14162
0.09187
0.093465
0.18563
0.21848
0.16937
0.10367
0.066039
0.14896
0.17702
0.13684
0.097611
0.17447
0.20732
0.10909
0.11037
0.098568
0.094741
0.036061
-0.020386
0.052007
0.060298
-0.02198
-0.015283
-0.031548
-0.041434
-0.0060349
0.059342
0.033191
-0.0105
-0.015602
-0.035694
-0.0060349
0.022348
-0.069498
-0.087038
-0.015921
-0.036012
-0.078427
-0.10426
-0.17314
-0.19132
-0.15592
-0.14636
-0.12403
-0.10872
-0.10203
-0.09533
-0.065352
-0.048769
-0.066628
-0.1202
-0.1049
-0.021343
-0.009224
-0.031867
-0.02517
-0.052915
-0.028678
0.014375
0.023305
0.016608
0.059023
0.04818
0.025218
0.063806
0.057747
0.046904
0.041483
0.028088
0.065082
0.052007
0.023943
-0.0105
-0.023575
-0.00093234
0.02777
0.060617
0.026494
0.061255
0.11164
0.16618
0.15246
0.093146
0.079433
0.095378
0.097611
0.094422
0.12791
0.13716
0.16618
0.19328
0.1547
0.12025
0.11962
0.06572
0.047223
0.03638
0.025856
0.043715
0.090914
-0.053234
-0.12467
-0.084168
-0.10777
-0.065671
-0.11542
-0.19387
-0.1977
-0.17665
-0.1438
-0.14125
-0.069179
-0.014327
-0.037926
0.038931
-0.0038025
-0.030591
-0.036331
-0.082254
0.0041702
0.018202
0.015332
-0.022937
-0.053871
-0.037607
0.022348
0.032872
-0.031229
-0.043347
-0.03378
-0.03665
-0.018153
-0.040158
-0.075238
-0.073325
-0.037607
-0.040158
-0.049726
-0.049088
-0.093097
-0.077152
-0.031867
0.0076782
0.053601
0.046585
0.058066
0.087406
0.14736
0.17766
0.16841
0.11898
0.12504
0.21338
0.2459
0.20476
0.18148
0.16586
0.21242
0.19105
0.1531
0.13875
0.16841
0.19456
0.16841
0.13365
0.065401
-0.00061343
-0.0089051
-0.041434
-0.018472
-0.087357
-0.050363
-0.059293
-0.076514
-0.11446
-0.11446
-0.13169
-0.16421
-0.11351
-0.072049
-0.07173
-0.029634
-0.043347
-0.12913
-0.20025
-0.11829
-0.10394
-0.1033
-0.15241
-0.23661
-0.18431
-0.11351
-0.12339
-0.076195
-0.074601
-0.072687
-0.072368
-0.032504
-0.021661
-0.039202
-0.055466
-0.073006
-0.0076295
0.011824
-0.0047593
-0.0098618
-0.038245
-0.014645
0.036699
0.052326
0.021391
0.063169
0.093146
0.096335
0.14385
0.12089
0.092189
0.11037
0.097292
0.12759
0.13971
0.14353
0.10973
0.097292
0.10048
0.12153
0.12599
0.14736
0.17447
0.1531
0.1834
0.23921
0.20062
0.10813
0.090595
0.20221
0.15406
0.076882
0.04531
0.049137
0.049137
0.025856
-0.086081
-0.023894
-0.04845
-0.072049
-0.13009
-0.11989
-0.1269
-0.16549
-0.1674
-0.15624
-0.10075
-0.13392
-0.15911
-0.14221
-0.16166
-0.12084
-0.037926
-0.0095429
-0.019748
-0.015602
-0.029953
-0.037288
0.047223
0.033829
-0.005716
0.0054459
-0.035056
-0.058655
-0.083849
-0.069179
-0.084806
-0.093097
-0.067585
-0.041753
-0.011456
-0.065033
-0.053234
-0.021024
0.0013
0.03351
0.0044891
-0.043985
-0.034737
0.022348
0.0079971
-0.0073105
-0.00093234
0.0013
0.064125
0.080071
0.049774
0.1126
0.13524
0.11292
0.098568
0.15406
0.1952
0.14768
0.056153
0.023305
0.096654
0.088362
0.050731
0.019797
-0.032823
-0.033142
0.033191
0.042758
-0.0076295
0.075606
0.055834
0.032872
0.083898
0.084536
0.060936
0.1193
0.10782
0.12536
0.11483
0.09793
0.06285
0.039569
0.071141
0.15214
0.17511
0.037975
0.058066
0.11069
0.14194
0.19169
0.11005
-0.045261
-0.052915
0.0076782
-0.035375
-0.057379
-0.050682
-0.093097
-0.13041
-0.15847
-0.18207
-0.15433
-0.15241
-0.13456
-0.12467
-0.058655
-0.072687
-0.13041
-0.17251
-0.19068
-0.13711
-0.12563
-0.1572
-0.16964
-0.18239
-0.1556
-0.077152
-0.081617
-0.13679
-0.0982
-0.073325
-0.045261
0.026175
0.034786
0.060298
0.071779
0.082622
0.099843
0.094741
0.10367
0.099524
0.14417
0.11324
0.12886
0.14194
0.15119
0.095378
0.096654
0.09793
0.12759
0.11037
0.056471
0.060936
0.16363
0.1547
0.089319
0.075925
0.08613
0.11643
0.095697
0.059979
0.12536
0.16873
0.15788
0.15278
0.17638
0.22741
0.15661
0.063169
0.037337
0.11132
0.10622
0.020435
-0.040796
-0.071093
-0.047812
-0.0060349
-0.0034836
-0.12116
-0.11989
-0.10235
-0.10553
-0.084168
-0.12084
-0.16772
-0.14923
-0.18175
-0.14253
-0.11287
-0.13073
-0.15847
-0.13934
-0.11733
-0.080341
-0.0028458
-0.048131
-0.036969
0.031596
0.030959
0.055834
0.042758
-0.029634
-0.0038025
0.048499
0.020754
-0.00093234
0.015013
-0.032823
-0.041115
-0.010181
-0.032504
0.0035324
0.029683
-0.009224
-0.029315
0.0054459
0.0095917
-0.037288
-0.045899
-0.065352
0.0076782
-0.0018891
-0.055147
-0.080979
-0.081298
-0.040477
0.013738
-0.0015702
0.0057648
0.068271
0.073374
0.11579
0.2121
0.2829
0.28736
0.23697
0.24654
0.29502
0.30395
0.32818
0.28736
0.24527
0.22103
0.17766
0.16873
0.095378
0.094422
0.085173
0.062531
0.016927
-0.11255
-0.17314
-0.22608
-0.18112
-0.18175
-0.21046
-0.21205
-0.20822
-0.2146
-0.21907
-0.18239
-0.17282
-0.1741
-0.17091
-0.16166
-0.09246
-0.039202
-0.088314
-0.11351
-0.11542
-0.056423
-0.03091
-0.033142
-0.037926
-0.058336
-0.041753
0.013419
0.035423
0.0035324
0.019478
-0.021343
-0.0012513
0.035104
-0.041115
-0.073644
-0.031867
-0.05132
-0.045899
0.031278
0.05392
-0.027083
-0.030272
0.0038513
0.073693
0.13397
0.12217
0.17893
0.21114
0.2475
0.36677
0.35816
0.23187
0.19966
0.22486
0.16586
0.23123
0.20445
0.12217
0.1295
0.18435
0.11419
0.12121
0.14449
0.044991
0.0019378
0.0067215
-0.050044
-0.085443
-0.08066
-0.1269
-0.14604
-0.11478
-0.13998
-0.22417
-0.27966
-0.2567
-0.21333
-0.2162
-0.24809
-0.18271
-0.19738
-0.20503
-0.14604
-0.11415
-0.11446
-0.10681
-0.11829
-0.095011
-0.079065
-0.074282
-0.10043
-0.10043
-0.081617
-0.056423
-0.016559
-0.076195
-0.055466
-0.030272
-0.012732
-0.00029452
-0.02517
-0.059612
-0.065671
-0.012094
-0.013051
-0.022299
0.020116
0.12408
0.28864
0.31575
0.2475
0.22454
0.21912
0.25738
0.30937
0.37506
0.41812
0.42067
0.3824
0.2762
0.2475
0.20891
0.18404
0.066358
-0.012094
0.0076782
0.027451
-0.01624
-0.0047593
0.047861
0.054877
0.030321
0.019478
-0.031229
-0.087357
-0.1202
-0.11478
-0.03091
0.00066221
-0.051639
-0.14285
-0.2079
-0.20376
-0.14859
-0.14349
-0.24904
-0.22321
-0.2079
-0.19961
-0.17665
-0.21301
-0.27264
-0.25
-0.19292
-0.18781
-0.21141
-0.21046
-0.24299
-0.21014
-0.16326
-0.14923
-0.1521
-0.10426
-0.075557
-0.081298
-0.043347
-0.043347
-0.055466
-0.031867
-0.0038025
0.14385
0.23315
0.20604
0.15246
0.12121
0.13588
0.19711
0.18467
0.18978
0.22805
0.27875
0.23889
0.21943
0.22422
0.15852
0.059342
0.012781
0.013738
0.041802
0.041164
0.017564
-0.018791
-0.07173
-0.064714
0.044991
0.05105
0.073374
0.090595
0.082622
0.070185
0.087087
-0.0025269
-0.028996
0.035104
0.05392
0.05679
0.13333
-0.028678
-0.041434
-0.0031647
0.01023
-0.040158
-0.060887
0.0035324
0.0073593
-0.028359
-0.091184
-0.11446
-0.097881
-0.12754
-0.070774
-0.099794
-0.13487
-0.12722
-0.132
-0.097562
-0.049088
-0.053552
-0.11702
-0.099794
-0.073325
-0.094692
-0.011456
-0.032823
-0.058017
-0.069498
-0.11128
-0.12339
-0.10649
-0.11893
-0.17538
-0.18622
-0.15241
-0.11
-0.053552
-0.040477
-0.0066727
0.020116
0.044353
0.044034
0.014375
-0.017197
0.056471
0.14927
0.091552
-0.011775
0.019159
-0.0041214
0.025856
0.013419
0.01597
0.0089539
-0.0060349
0.0035324
0.038931
0.077838
0.079433
0.079752
0.050093
0.075925
0.19584
0.11005
0.15151
0.23283
0.11866
0.054877
0.098886
0.15438
0.13014
0.16618
0.16331
0.13556
0.18946
0.11643
-0.01911
-0.060569
0.030321
0.093465
0.16618
0.08326
0.06859
0.098886
0.091552
0.042439
0.040526
0.040845
-0.0098618
-0.023256
0.017564
-0.0060349
-0.096286
-0.19993
-0.19292
-0.17697
-0.25287
-0.30166
-0.3157
-0.35269
-0.3259
-0.29624
-0.25223
-0.22098
-0.18112
-0.16294
-0.14604
-0.068222
-0.024851
-0.027721
-0.035694
-0.078109
-0.032823
-0.010819
-0.025488
-0.049088
-0.1033
-0.096924
-0.03091
-0.047174
-0.14667
-0.093735
-0.045899
-0.035056
0.056471
0.060617
0.10335
0.12695
0.14098
0.20253
0.30139
0.29725
0.19265
0.19647
0.24654
0.2003
0.26663
0.29693
0.27397
0.21146
0.1936
0.13205
0.03064
-0.026126
-0.045899
-0.045261
-0.079384
-0.11542
-0.079703
-0.11128
-0.19164
-0.23533
-0.2146
-0.1757
-0.19802
-0.20344
-0.22895
-0.18048
-0.1977
-0.21046
-0.22226
-0.24777
-0.17984
-0.16103
-0.15528
-0.13392
-0.087357
-0.0041214
0.083898
0.15629
0.15884
0.18467
0.17064
0.21338
0.29789
0.26153
0.21848
0.20253
0.2239
0.2121
0.1598
0.20987
0.12185
0.038294
-0.017835
-0.044304
-0.037607
-0.091822
-0.10809
-0.050682
-0.057379
-0.13456
-0.095011
-0.069817
-0.11287
-0.12658
-0.1167
-0.14891
-0.15401
-0.17984
-0.15241
-0.087357
-0.084487
-0.13041
-0.10777
-0.10936
-0.061206
-0.0085862
0.012781
0.054877
0.032872
-0.024213
0.021391
0.042758
0.044991
0.040526
0.040526
0.10654
0.19966
0.13397
-0.014008
0.0025757
0.059661
0.10271
0.094422
0.021391
-0.073325
-0.11765
-0.046218
-0.048131
-0.055466
-0.10553
-0.15528
-0.10171
-0.057061
-0.049407
-0.052915
-0.064395
-0.041434
-0.029953
-0.01337
0.0022568
-0.017197
-0.10043
-0.15241
-0.052277
-0.005716
-0.06599
-0.10458
-0.17219
-0.19451
-0.13392
-0.088314
-0.097243
-0.06025
-0.074601
-0.08353
-0.015602
-0.019748
-0.041115
-0.040796
-0.069817
-0.005716
-0.0069916
-0.050682
-0.072687
-0.082573
-0.058336
0.0051269
0.023624
-0.022937
-0.010181
0.079752
0.15055
0.1582
0.12727
0.11324
0.1228
0.14003
0.14736
0.17511
0.25005
0.2188
0.13429
0.089638
0.15151
0.22964
0.17989
0.24846
0.27078
0.3065
0.31734
0.24399
0.18085
0.14226
0.229
0.23028
0.23729
0.15342
0.0016189
-0.0044404
0.0131
0.026813
-0.067266
-0.099476
-0.18686
-0.24522
-0.25032
-0.29848
-0.31442
-0.31346
-0.36768
-0.33228
-0.32813
-0.34312
-0.36034
-0.36832
-0.32048
-0.24586
-0.21939
-0.26021
-0.23182
-0.17633
-0.15114
-0.08927
-0.099794
-0.11255
-0.099157
-0.059293
-0.040158
-0.023256
-0.038245
-0.06599
-0.049726
-0.026126
-0.0025269
0.034786
0.020754
0.010867
0.03351
0.059661
0.070185
0.02777
-0.018791
-0.048131
0.027132
0.050731
0.067314
0.059342
-0.0085862
-0.026764
0.025537
-0.0053971
0.0057648
0.098249
0.14927
0.13173
0.13365
0.074012
0.070822
0.085811
0.11898
0.14864
0.1362
0.12631
0.09506
0.081028
0.11993
0.14066
0.18244
0.11132
0.09506
0.099524
0.093146
0.15183
0.10622
0.047542
-0.0095429
-0.047174
-0.052277
-0.067903
-0.081617
-0.19706
-0.23533
-0.16613
-0.13934
-0.13902
-0.17793
-0.19898
-0.19642
-0.16166
-0.13615
-0.16836
-0.19515
-0.18239
-0.10171
-0.099794
-0.088633
-0.029953
-0.056423
-0.030591
0.026813
0.082941
0.087406
0.084854
0.070822
0.099205
0.14481
0.09506
0.055515
0.069228
0.049137
0.05105
0.016289
-0.051639
-0.055147
-0.085443
-0.088952
-0.065671
-0.057379
-0.1285
-0.10426
-0.044623
-0.030272
-0.0034836
-0.072049
-0.13487
-0.1151
-0.073644
-0.061844
-0.088952
-0.10394
-0.14827
-0.13487
-0.11128
-0.10203
-0.043985
-0.067903
-0.058974
-0.013689
0.03351
0.06285
0.036699
0.040207
0.073374
0.11579
0.11037
0.10303
0.11515
0.1228
0.11962
0.1582
0.16554
0.096973
0.080071
0.08326
0.15374
0.22167
0.14513
0.085811
0.072417
-0.032823
2.4388e-05
0.02777
0.013419
-0.030272
-0.069498
-0.070455
-0.021024
-0.013051
-0.049088
-0.057061
-0.0047593
0.02458
0.060617
0.011186
-0.062163
-0.086081
-0.055147
-0.077152
-0.043666
-0.039202
-0.10713
-0.12754
-0.12244
-0.16708
-0.13137
-0.14412
-0.15943
-0.15433
-0.11415
-0.10362
-0.1454
-0.18622
-0.19164
-0.11542
-0.085443
-0.10745
-0.11446
-0.1454
-0.11542
-0.050044
-0.037926
-0.058017
-0.028678
-0.012732
-0.011456
0.041164
0.02777
0.010548
0.011505
-0.0044404
0.031915
0.026813
0.0060837
-0.017197
-0.02517
-0.010181
0.024262
0.028726
-0.013689
0.0067215
0.026813
0.025856
0.046904
0.013419
-0.024532
-0.021343
0.021391
0.050731
0.10654
0.11675
0.090276
0.13429
0.15661
0.18627
0.23028
0.20094
0.20923
0.20795
0.27333
0.25802
0.19902
0.14321
0.086449
0.11643
0.047223
-0.028359
-0.040477
-0.097243
-0.11319
-0.099476
-0.096605
-0.1674
-0.16549
-0.12945
-0.12435
-0.10713
-0.14157
-0.17219
-0.17601
-0.17155
-0.13487
-0.13838
-0.1572
-0.16964
-0.17506
-0.15879
-0.083849
-0.069817
-0.1151
-0.08927
-0.049407
-0.023894
0.021391
0.013419
-0.037607
-0.044304
0.0076782
0.019159
0.0073593
-0.019748
-0.069179
-0.044304
-0.019748
-0.01337
0.01597
-0.005716
-0.0044404
-0.0044404
0.032234
0.037337
0.0051269
-0.037607
-0.052915
0.024262
0.023305
-0.0060349
-0.014645
-0.047493
-0.033142
0.018521
0.028088
-0.013689
0.010867
0.03351
0.027132
0.066677
0.044672
0.025218
0.015332
-0.020386
0.018202
0.021072
-0.0034836
-0.04271
-0.045261
0.0089539
0.022029
0.059979
0.01597
0.0051269
0.050412
0.10144
0.16681
0.1783
0.13046
0.077838
0.11451
0.12855
0.1295
0.12249
0.062531
0.073374
0.096973
0.071779
0.085173
0.080709
0.059979
0.015332
0.038612
0.024899
-0.017835
-0.059612
-0.094373
-0.019748
-0.00061343
-0.053234
-0.10203
-0.1556
-0.1285
-0.054509
-0.051958
-0.090227
-0.073325
-0.059612
-0.051958
-0.0082673
-0.054828
-0.076514
-0.081617
-0.085762
-0.053871
-0.045899
-0.056423
-0.10841
-0.132
-0.10904
-0.066628
-0.040158
-0.088952
-0.082573
-0.053871
-0.048131
-0.020705
-0.037607
-0.078427
-0.087676
-0.038883
-0.043666
-0.053871
-0.059612
-0.10968
-0.085125
-0.051001
-0.044623
-0.005716
-0.014964
-0.014645
0.0044891
0.041164
0.031278
0.00066221
-0.011456
-0.012413
0.045947
0.040845
0.023624
0.0003433
-0.036969
0.00098112
0.094103
0.095378
0.047542
0.051688
0.060936
0.073055
0.11292
0.096654
0.057428
0.038294
0.017883
0.04531
0.012781
0.046904
0.077838
0.052645
0.034786
0.054239
0.076244
0.0070404
0.038612
0.091233
0.13301
0.18372
0.061574
0.0016189
0.019797
0.070185
0.05392
-0.021661
-0.034099
-0.087357
-0.053234
-0.067903
-0.058655
-0.053234
-0.077152
-0.089589
-0.10043
-0.053234
-0.031867
-0.069817
-0.1218
-0.15688
-0.070774
-0.063758
-0.11
-0.12818
-0.14954
-0.1285
-0.074601
-0.056423
-0.09533
-0.069179
-0.054828
-0.063758
-0.02198
-0.036969
-0.061844
-0.072049
-0.069498
-0.043347
-0.036969
-0.053234
-0.089908
-0.09246
-0.07173
-0.028996
0.0057648
-0.038564
-0.023894
0.014375
0.035423
0.061574
0.032872
-0.01911
-0.023575
0.031915
0.030321
0.015013
0.018521
-0.024213
-0.0060349
0.022029
0.038294
0.059979
0.063487
0.067314
0.074012
0.10941
0.10973
0.089957
0.068909
0.05679
0.11802
0.10048
0.10813
0.11579
0.091552
0.10271
0.14098
0.1665
0.085492
0.09793
0.10718
0.084854
0.16139
0.12057
0.048818
0.0025757
-0.047812
0.0035324
-0.0069916
-0.071093
-0.15114
-0.16836
-0.17538
-0.14061
-0.085762
-0.13456
-0.13169
-0.13169
-0.11351
-0.069179
-0.091822
-0.13296
-0.11383
-0.043666
-0.054828
-0.041434
-0.046536
-0.083849
-0.058655
-0.024213
-0.017197
-0.0089051
-0.0034836
-0.0038025
-0.01337
0.05679
0.047223
-0.0012513
-0.053871
-0.065033
0.0044891
-0.0047593
-0.043666
-0.056423
-0.0982
-0.066628
0.0028946
0.008635
-0.048131
-0.015283
0.031278
-0.0044404
0.032234
0.020754
-0.0031647
-0.015921
-0.027083
-0.0089051
-0.023894
-0.033461
-0.051639
-0.056423
-0.046536
-0.010819
0.016608
-0.022618
-0.0105
0.014694
0.036061
0.069547
0.040845
0.0079971
0.0054459
0.06285
0.061255
0.044034
0.050731
0.021391
0.027451
0.027132
0.042439
0.096973
0.12312
0.10654
0.12759
0.17479
0.13492
0.070822
0.029364
0.056153
0.16426
0.14672
0.092189
0.044353
0.0028946
2.4388e-05
0.029364
0.037018
-0.031867
-0.011775
-0.014645
-0.027402
-0.010181
-0.04271
-0.089908
-0.10522
-0.12722
-0.12084
-0.11478
-0.1218
-0.15879
-0.16262
-0.15433
-0.11574
-0.078427
-0.12595
-0.10872
-0.075238
-0.048769
-0.013689
-0.036331
-0.089589
-0.093416
-0.026445
-0.029953
-0.04558
-0.047812
-0.084806
-0.04845
0.0044891
0.0095917
0.028407
0.028088
0.015651
0.0038513
0.081984
0.1126
0.088362
0.059342
0.0028946
0.064444
0.065401
0.042121
0.027132
-0.013689
-0.012094
0.036699
0.058704
-0.002208
0.052326
0.05679
0.057747
0.098568
0.066995
0.039888
0.025218
0.035104
0.043715
0.047223
0.046266
-0.011456
-0.022937
-0.0095429
0.034148
0.061255
-0.0085862
-0.034418
-0.022299
-0.0066727
0.0073593
-0.029634
-0.084487
-0.10043
-0.039202
-0.062801
-0.079065
-0.095968
-0.16645
-0.12276
-0.08066
-0.073325
-0.046218
-0.040796
-0.038883
-0.026764
0.025537
0.041802
0.0022568
-0.022937
-0.04558
0.032234
0.044991
0.0070404
-0.037607
-0.070774
-0.046855
0.0032135
0.017564
-0.049407
-0.021024
-0.0076295
-0.021343
0.015332
0.0003433
-0.024532
-0.03091
-0.031867
-0.026126
-0.029315
-0.027721
-0.062163
-0.060569
-0.035694
-0.00093234
0.032234
-0.0050782
0.047542
0.07433
0.098249
0.11611
0.10016
0.053282
0.048499
0.13907
0.12249
0.11101
0.09506
0.03351
0.039888
0.054558
0.069547
0.063169
0.043715
0.02777
0.0003433
0.037975
0.035423
0.031278
-0.013689
-0.059612
0.0051269
0.0044891
-0.04558
-0.080022
-0.073644
0.013738
0.049137
0.0095917
-0.069817
-0.023575
0.0028946
0.022986
0.031915
-0.0069916
-0.039202
-0.047812
-0.047812
-0.02804
-0.04271
-0.053871
-0.097562
-0.11383
-0.087676
-0.04845
-0.0079484
-0.051001
-0.037607
-0.024851
-0.0069916
0.017564
0.00066221
-0.026764
-0.028678
0.012143
-0.015283
-0.014327
-0.005716
-0.067266
-0.052915
-0.0098618
-0.0038025
0.00066221
0.023624
0.020754
0.0054459
0.064763
0.057109
0.015013
-0.014645
-0.05132
-0.0098618
-0.0031647
-0.023894
-0.049407
-0.084806
-0.078109
-0.031548
-0.017835
-0.075557
-0.058017
-0.036969
-0.032504
0.042121
0.0092728
-0.02804
-0.030591
-0.018153
-0.0105
-0.0053971
-0.0095429
-0.043347
-0.053234
-0.030272
0.0095917
0.044991
-0.017835
-0.022299
0.0032135
0.035742
0.05392
0.012462
-0.028678
-0.023575
0.038294
0.038612
0.018202
0.01884
-0.015283
0.010867
0.053282
0.085811
0.096016
0.10909
0.11611
0.12249
0.18021
0.17447
0.14385
0.10845
0.081346
0.11834
0.11101
0.059342
0.016608
-0.035375
-0.034418
0.0057648
-0.016878
-0.081935
-0.072049
-0.073963
-0.097881
-0.076833
-0.10426
-0.12658
-0.13487
-0.12371
-0.11191
-0.11702
-0.11989
-0.15114
-0.15082
-0.12339
-0.079384
-0.055466
-0.092141
-0.078746
-0.046218
-0.018791
-0.00093234
-0.026764
-0.070136
-0.076833
0.008316
0.0131
-0.0105
0.0073593
-0.032823
-0.017516
0.017246
0.029364
0.03638
0.068271
0.072736
0.068909
0.091552
0.087406
0.073693
0.046585
0.0095917
0.069547
0.07433
0.033829
0.008316
-0.01337
0.046266
0.091552
0.080071
0.03925
0.034467
0.070503
0.11101
0.13971
0.1295
0.10208
0.094103
0.094103
0.082622
0.10463
0.10654
0.037975
0.027451
0.024262
0.079433
0.10813
0.0089539
-0.016559
-0.0063538
0.012143
-0.020386
-0.070136
-0.12339
-0.13743
-0.08927
-0.11446
-0.15369
-0.17059
-0.21652
-0.19355
-0.15784
-0.14731
-0.11893
-0.096286
-0.10553
-0.10617
-0.046218
-0.048769
-0.072049
-0.083849
-0.11702
-0.04558
-0.031548
-0.060887
-0.088952
-0.11478
-0.097562
-0.02517
-0.0044404
-0.059612
-0.028678
0.011824
0.035423
0.081984
0.066995
0.043396
0.049137
0.090914
0.12759
0.14098
0.11738
0.095697
0.11069
0.11451
0.10399
0.1598
0.10845
0.12536
0.18467
0.23538
0.21848
0.20381
0.08613
0.052645
0.10367
0.13205
0.10558
0.089638
0.0067215
-0.0079484
-0.0012513
-0.0069916
-0.036012
-0.057379
-0.11032
-0.12212
-0.077152
-0.11893
-0.17793
-0.21779
-0.25
-0.18335
-0.18494
-0.2095
-0.23214
-0.24904
-0.2197
-0.14827
-0.12722
-0.19164
-0.14572
-0.10585
-0.094692
-0.049407
-0.069498
-0.095011
-0.093735
-0.06312
-0.054509
-0.051001
-0.04845
-0.081617
-0.066947
-0.039839
2.4388e-05
0.069547
0.018202
0.043396
0.081028
0.1362
0.16076
0.11388
0.079433
0.090595
0.17798
0.17383
0.13588
0.096335
0.062212
0.031278
0.06572
0.080709
0.04818
0.059023
0.024899
0.013738
0.034786
0.0013
-0.031548
-0.050044
-0.075876
-0.032823
-0.044623
-0.069498
-0.096286
-0.10872
-0.091822
-0.037288
-0.02517
-0.087676
-0.075557
-0.031548
-0.0105
0.029045
0.008316
-0.033142
-0.043666
-0.013689
2.4388e-05
-0.010181
-0.018791
-0.053871
-0.012094
0.032553
0.029683
0.07433
0.071141
0.12185
0.12153
0.1126
0.13301
0.11675
0.088362
0.12791
0.20508
0.16426
0.089319
0.054558
0.072736
0.079752
0.075925
0.059342
0.060617
0.051688
0.021072
0.0064026
0.057747
0.012143
-0.046855
-0.085762
-0.11702
-0.063758
-0.072687
-0.10745
-0.16326
-0.20312
-0.20057
-0.14859
-0.12882
-0.18558
-0.17697
-0.15146
-0.14412
-0.10904
-0.12307
-0.15178
-0.14476
-0.09533
-0.055147
-0.059293
-0.081298
-0.12371
-0.10585
-0.061844
-0.020067
0.048499
0.034786
0.075925
0.044353
0.054877
0.11834
0.098886
0.032872
0.03064
0.11356
0.12567
0.09187
0.040845
0.014375
0.026175
0.063487
0.10144
0.11292
0.17383
0.11738
0.10208
0.1429
0.078157
0.046585
0.069866
0.049137
0.12599
0.076563
-0.024213
-0.050682
-0.041753
-0.038245
-0.012094
-0.0053971
-0.046536
-0.059931
-0.048769
-0.02198
0.015651
-0.035056
-0.094054
-0.096286
-0.032186
0.004808
0.0041702
-0.038883
-0.092778
-0.0982
-0.11383
-0.072049
-0.012413
-0.025488
-0.068541
-0.060887
-0.028678
-0.012094
-0.05132
-0.12084
-0.13456
-0.055466
-0.060887
-0.087676
-0.10936
-0.14572
-0.1218
-0.079065
-0.061525
-0.072049
-0.024851
-0.0076295
0.0022568
0.096335
0.061574
0.032234
0.044034
0.026494
0.09187
0.1008
0.082941
0.041164
0.021391
0.021391
0.099524
0.093146
0.055515
0.049137
0.064763
0.099205
0.10144
0.088362
0.046585
0.02777
0.040526
0.020435
0.044991
0.078476
0.065401
0.054239
0.058385
0.028407
0.052007
0.011186
0.040207
0.073374
0.11356
0.093146
-0.0095429
-0.054828
-0.039839
0.028088
-0.022937
-0.068541
-0.089908
-0.13743
-0.11765
-0.11733
-0.10043
-0.13392
-0.093735
-0.099476
-0.089908
-0.027083
-0.01337
2.4388e-05
-0.029953
-0.074282
0.019159
0.030959
0.010867
0.044353
0.040845
0.071779
0.12982
0.1177
0.059979
0.076563
0.10845
0.085492
0.14321
0.12025
0.035423
-0.010181
0.025218
0.019159
0.0076782
-0.0095429
-0.061844
-0.073963
-0.042072
-0.0073105
0.072098
0.013738
0.0095917
-0.017516
-0.026764
-0.023256
0.026813
-0.00061343
0.014694
0.040526
-0.039839
-0.074282
-0.083849
-0.042391
-0.00061343
0.017883
0.028407
0.0035324
0.03925
0.074012
0.03638
0.073374
0.059342
0.01597
-0.0105
-0.076195
-0.03378
-0.0018891
-0.042072
-0.13519
-0.19132
-0.15114
-0.12467
-0.078109
-0.11606
-0.12148
-0.05419
0.013738
0.11579
0.19807
0.16139
0.14194
0.17415
0.18978
0.16745
0.15119
0.11292
0.11515
0.20763
0.16777
0.11419
-0.010181
0.054877
0.037975
0.05105
-0.034418
-0.095011
-0.12658
-0.13073
-0.066309
-0.076195
-0.092778
-0.032504
-0.074601
-0.11032
-0.087676
-0.055466
-0.03952
-0.034099
-0.11255
-0.1151
-0.057698
-0.086081
-0.13105
-0.16613
-0.18973
-0.14604
-0.16932
-0.20759
-0.25128
-0.26595
-0.2162
-0.086081
-0.042072
-0.10745
-0.073325
-0.058974
-0.024851
0.030002
0.089957
0.13365
0.21656
0.17096
0.096335
0.079114
0.11101
0.038612
0.14034
0.10271
0.089
0.05679
-0.04845
-0.05132
0.075925
0.11675
0.087087
-0.013689
-0.066309
-0.11319
-0.081617
-0.031229
-0.020067
-0.027083
-0.071093
-0.085443
-0.064077
-0.012413
-0.036969
0.024899
0.076563
0.031596
0.039888
0.03638
0.052645
0.040207
0.029683
0.10271
0.05105
0.01023
-0.044623
-0.10681
-0.031229
0.012143
-0.01911
-0.075238
-0.029634
-0.053552
-0.047174
-0.024532
-0.033461
-0.047174
-0.041434
-0.036331
0.0016189
0.11356
0.17989
0.10112
0.14481
0.10144
0.07146
0.10622
0.083898
0.15501
0.19934
0.20827
0.12376
-0.064395
-0.067585
-0.11255
0.045947
0.060936
0.021072
-0.005716
-0.10809
-0.13328
-0.088633
0.016608
-0.010181
0.03925
0.059023
0.032553
0.070503
0.02458
-0.052915
-0.11989
-0.10394
-0.065033
-0.10011
-0.10617
-0.15879
-0.18813
-0.20089
-0.18973
-0.19196
-0.22704
-0.13551
-0.050682
-0.063439
-0.055466
-0.0095429
-0.070455
-0.0864
-0.021024
0.020435
0.028726
0.071779
0.021391
0.06285
0.13779
0.15884
0.20891
0.15661
0.26631
0.30044
0.23155
0.29278
0.23442
0.20668
0.14704
0.14226
0.10112
0.037975
0.043396
-0.06886
-0.10298
-0.15592
-0.13838
-0.21683
-0.23214
-0.23087
-0.26435
-0.21046
-0.16198
-0.15943
-0.14795
-0.095649
-0.020067
-0.016878
-0.0105
0.05679
0.12982
0.14353
0.20062
0.25292
0.2695
0.17479
0.10877
0.14864
0.15757
0.12599
0.020435
-0.078109
-0.064714
-0.13711
-0.2264
-0.29305
-0.41296
-0.34854
-0.36481
-0.30422
-0.23437
-0.26818
-0.20599
-0.12945
-0.034099
-0.034099
-0.00093234
0.011186
0.053601
0.11292
0.13397
0.11451
0.18276
0.12376
0.13652
0.1346
0.14609
0.13588
0.11101
0.060617
0.11324
0.24973
0.23984
0.1716
0.17574
0.15342
0.14991
0.14545
0.1244
0.10718
0.069228
0.031915
0.076244
0.13333
0.041802
0.072417
0.047861
0.052645
0.096335
0.0013
-0.014964
0.041802
0.087725
0.014056
0.026175
0.080709
-0.024851
-0.14317
-0.13551
-0.13487
-0.078109
-0.18909
-0.20057
-0.24043
-0.28636
-0.29018
-0.31123
-0.37501
-0.41934
-0.30996
-0.29337
-0.30485
-0.32494
-0.36066
-0.33196
-0.25702
-0.22863
-0.23342
-0.16868
-0.18144
-0.1151
0.024262
-0.0079484
0.0095917
0.1177
0.1885
0.23538
0.24654
0.35912
0.62413
0.61999
0.64614
0.72172
0.77753
0.55493
0.49529
0.54345
0.62445
0.6506
0.44522
0.27748
0.19871
0.16681
0.14098
-0.0089051
-0.12116
-0.26914
-0.29433
-0.35652
-0.39957
-0.34727
-0.37501
-0.3546
-0.33196
-0.25989
-0.27328
-0.3444
-0.36577
-0.33005
-0.23406
-0.23278
-0.23055
-0.2634
-0.3039
-0.2551
-0.16453
-0.14508
-0.09533
0.0092728
-0.017835
-0.023894
0.11388
0.074012
0.021391
0.028726
0.0095917
0.11962
0.12855
0.011186
-0.060569
-0.048769
0.046585
0.053601
-0.0069916
-0.13137
-0.11574
0.004808
0.14226
0.14226
0.10271
0.072736
0.047542
0.12057
0.17925
0.17032
0.21816
0.16076
0.1767
0.14034
0.11164
0.15151
0.11196
0.089319
0.1075
0.18595
0.12376
-0.0038025
-0.09246
-0.10522
-0.01337
-0.0069916
0.0032135
0.030959
-0.12563
-0.17857
-0.16071
-0.086719
-0.090227
-0.11733
-0.16453
-0.2264
-0.19387
-0.1674
-0.17506
-0.17155
-0.21875
-0.20727
-0.17027
-0.09246
-0.1336
-0.14827
-0.018153
0.05679
0.028726
-0.01911
0.066995
0.17511
0.17479
0.16841
0.088681
0.11675
0.08613
0.10112
0.16426
0.23219
0.16522
0.011186
-0.013051
-0.009224
0.042758
0.083579
0.076882
0.17734
0.1767
0.17989
0.18531
0.11101
0.028088
0.018521
0.11515
0.11005
0.035423
-0.0031647
-0.11797
-0.15241
-0.17123
-0.16485
-0.12116
-0.12658
-0.18718
-0.20759
-0.096605
-0.15815
-0.13966
-0.044623
-0.059293
-0.039202
0.0076782
0.030002
0.014375
0.044991
0.087406
0.15151
0.18563
0.10941
0.066995
0.13173
0.11356
0.098249
0.028088
-0.085125
-0.073006
0.020435
-0.042391
-0.11797
-0.14412
-0.14189
-0.076195
-0.068541
-0.090865
-0.035056
-0.044942
-0.012413
-0.016878
0.082622
0.07433
0.060298
0.059023
0.10909
0.25515
0.28194
0.26057
0.20189
0.13365
0.14545
0.2172
0.17064
0.13716
0.14194
0.055515
0.10782
0.081028
-0.0028458
-0.065033
-0.082254
-0.10553
-0.11
-0.15273
-0.24299
-0.29433
-0.20535
-0.027402
0.12504
0.054239
-0.081298
-0.061525
0.020754
0.023305
0.044991
0.066995
0.041164
-0.058655
-0.074601
-0.17187
-0.10266
-0.10904
-0.17825
-0.23565
-0.2398
-0.24713
-0.19961
-0.2213
-0.17857
-0.12307
-0.066309
0.014694
0.1783
0.11419
0.11643
0.20955
0.24335
0.25388
0.20381
0.13652
0.14991
0.19137
0.1818
0.064444
0.099843
0.089
-0.009224
-0.0047593
-0.098519
-0.14444
-0.11925
-0.1269
-0.13264
-0.13647
-0.088633
-0.11383
-0.089908
0.020754
0.084854
0.058385
0.043396
0.11292
0.16841
0.20476
0.23857
0.10495
-0.047174
-0.0044404
0.070185
0.045947
0.03351
-0.031229
-0.14731
-0.13328
-0.016559
0.0041702
-0.045261
-0.083849
-0.036331
0.04531
0.21178
0.15214
0.081028
0.081984
0.026813
0.08326
0.17606
0.12121
0.08326
-0.0025269
-0.043028
-0.08353
-0.13679
-0.19132
-0.1623
-0.18494
-0.19706
-0.16421
-0.21078
-0.22002
-0.26212
-0.25861
-0.21396
-0.18941
-0.12882
-0.12467
-0.055466
-0.0012513
0.034467
0.078157
-0.005716
0.044034
0.088362
0.1429
0.18085
0.14034
0.078476
0.061574
0.069866
0.059661
0.082941
0.14959
0.062212
0.0022568
-0.016878
-0.043985
-0.02517
0.084536
0.17383
0.11164
0.10367
0.098249
0.11356
0.11419
0.19584
0.24495
0.20445
0.099205
0.10208
0.064763
0.055834
0.13014
0.10016
0.05105
0.019797
0.042758
0.026175
0.026175
-0.0063538
-0.058017
-0.10011
-0.13774
-0.11606
-0.012094
-0.022299
-0.095968
-0.11191
-0.10171
-0.096286
-0.073963
-0.047493
-0.074601
-0.091822
-0.056104
-0.053234
-0.12371
-0.1757
-0.132
-0.057379
-0.078746
-0.091503
-0.083849
-0.10553
-0.044623
-0.0012513
0.03351
0.075287
0.042121
0.0060837
0.0028946
0.008635
0.039569
-0.0069916
0.021391
0.008316
0.010548
-0.024532
-0.081298
-0.079703
-0.10266
-0.050682
0.041483
0.05105
0.054877
0.11643
0.13173
0.063169
0.10654
0.10495
0.10654
0.063169
0.033191
0.077201
0.024262
0.023624
-0.03091
0.054877
-0.0050782
-0.0053971
0.029045
-0.0050782
0.018202
0.042758
0.064125
0.11356
0.095697
-0.0053971
0.017246
0.053282
0.028407
-0.026445
-0.052596
-0.12148
-0.044942
-0.0066727
-0.038564
-0.026126
-0.035056
-0.051639
0.020435
0.07146
0.064444
-0.032823
2.4388e-05
0.096016
0.18563
0.19392
0.18308
0.11483
0.055515
-0.0015702
0.087087
0.068271
0.019797
0.056471
-0.016878
-0.056423
0.042121
-0.032823
-0.091184
-0.13328
-0.18144
-0.14795
-0.15114
-0.14923
-0.11765
-0.069498
0.079752
0.084854
0.044034
-0.031229
-0.013051
-0.010181
0.043077
0.11866
0.076563
0.067314
0.070503
-0.025488
-0.11159
-0.15273
-0.18877
-0.13966
-0.12276
-0.12148
-0.11383
-0.061206
0.012143
0.035423
-0.027721
0.01884
0.05392
0.027451
-0.032186
0.0013
0.05679
0.10973
0.025856
-0.034418
-0.063439
-0.061844
-0.03378
-0.032823
-0.10553
-0.096924
-0.055785
-0.036969
0.00098112
0.026813
0.020435
0.0073593
0.034148
0.092508
0.15501
0.14258
0.15374
0.17542
0.22996
0.25228
0.24335
0.21688
0.24527
0.36167
0.36454
0.22677
0.12057
0.12217
0.10526
0.17542
0.1346
0.034148
-0.018791
-0.10139
-0.13264
0.059661
0.083898
0.013419
-0.0098618
-0.0060349
0.015651
0.089319
0.06859
0.013419
-0.009224
-0.14157
-0.021343
0.031278
-0.073644
-0.0864
-0.17793
-0.21939
-0.17984
-0.19866
-0.27169
-0.23501
-0.22289
-0.17442
-0.09246
-0.1269
-0.17729
-0.19164
-0.18335
-0.17346
-0.15784
-0.1285
-0.14125
-0.15273
-0.16198
-0.091503
-0.055785
-0.1269
-0.13328
-0.11542
-0.079065
-0.025488
-0.032186
-0.058655
-0.04845
0.0099106
0.025537
0.02171
0.028088
0.051369
0.07752
0.071779
0.12567
0.16394
0.14226
0.16745
0.21114
0.30713
0.2711
0.19584
0.21338
0.17415
0.14385
0.087725
0.1177
0.12918
0.044034
0.021391
0.038612
0.023624
0.0041702
-0.0050782
0.0044891
0.019159
-0.032823
-0.050044
-0.068222
-0.086081
-0.077471
-0.12658
-0.20121
-0.16071
-0.14795
-0.20248
-0.13009
-0.099157
-0.16198
-0.20344
-0.20567
-0.19483
-0.14125
-0.073325
-0.040477
-0.091822
-0.077152
0.040207
-0.0095429
-0.04558
0.044991
0.089
0.11738
0.15501
0.13843
0.13142
0.16139
0.17734
0.14321
0.20891
0.17128
0.16139
0.17606
0.19998
0.18659
0.074012
0.06572
0.14353
0.06285
0.016608
0.027132
0.077838
0.069228
0.091552
0.042758
0.049137
0.059342
0.017246
0.0060837
-0.0028458
-0.0063538
0.032234
-0.084487
-0.12913
-0.17952
-0.18909
-0.12116
-0.0079484
-0.036969
-0.17346
-0.18431
-0.10968
-0.071093
-0.076195
-0.10553
-0.15305
-0.13966
-0.090227
-0.10904
-0.074282
-0.086719
-0.18016
-0.20695
-0.20759
-0.20057
-0.1505
-0.092778
-0.092141
-0.085762
-0.046855
-0.012094
-0.065033
-0.087676
-0.059931
0.16076
0.26153
0.16426
0.14736
0.11388
0.10941
0.18627
0.20508
0.13269
0.23028
0.19456
0.078157
0.091552
0.045947
-0.048131
-0.075238
-0.062482
-0.094373
0.010867
0.063806
-0.056742
-0.093735
-0.073006
-0.044623
-0.0031647
-0.046536
-0.031548
0.063806
0.079114
0.042121
0.022348
-0.0031647
-0.049088
0.00066221
0.021391
0.032553
0.037018
-0.032823
-0.0015702
0.059342
0.10016
0.24431
0.26472
0.15597
0.097292
0.18978
0.18404
0.1362
0.093465
0.1177
0.207
0.16586
0.065401
-0.075557
-0.16453
-0.088952
0.061574
0.011824
-0.090546
-0.072049
-0.073325
-0.10458
-0.063439
-0.08927
-0.13264
-0.14604
-0.11733
-0.10107
-0.066947
-0.069817
-0.10777
-0.1387
-0.17697
-0.18781
-0.17697
-0.19005
-0.15305
-0.14954
-0.11415
-0.01911
-0.055147
-0.14636
-0.15018
-0.086081
-0.11446
-0.10043
-0.041753
-0.02804
0.016608
0.032872
0.062531
0.08613
0.086449
0.099843
0.10463
0.10335
0.099205
0.18021
0.19201
0.13397
0.099524
0.0076782
0.022348
-0.04845
-0.1387
-0.015921
0.052645
0.089957
-0.010181
-0.018153
-0.055785
-0.099476
-0.015921
0.084217
0.10463
0.03351
0.048818
0.069866
0.088362
0.10367
0.11419
0.11866
0.073374
0.17606
0.22135
0.12025
0.050412
0.10877
0.10271
0.072098
0.056153
-0.023894
-0.068222
-0.0018891
0.0076782
-0.002208
-0.048769
-0.063439
-0.035694
-0.013051
-0.016878
-0.017197
-0.0063538
-0.04845
-0.03952
0.068271
0.043077
-0.018791
-0.064714
-0.062163
-0.052277
-0.050682
-0.07173
-0.11319
-0.16039
-0.1285
-0.024532
0.0032135
-0.032823
-0.012413
-0.0066727
0.035742
0.083898
0.029364
-0.032504
-0.056423
0.0092728
-0.013051
-0.043666
-0.051958
-0.16262
-0.17314
-0.15146
-0.10936
-0.099157
-0.14444
-0.088633
-0.099157
-0.11255
-0.051639
-0.060887
-0.10362
-0.082573
0.0089539
0.018202
0.049137
0.063806
0.0060837
0.081984
0.1936
0.19584
0.22645
0.22741
0.2054
0.19233
0.25707
0.2711
0.20158
0.19488
0.16107
0.19807
0.13205
0.082941
0.022348
-0.019429
-0.025807
-0.011456
-0.058336
-0.14093
-0.14412
-0.11542
-0.087676
-0.053234
-0.03952
-0.01624
0.019797
0.010867
-0.018153
-0.063758
-0.075557
-0.071093
-0.12339
-0.13009
-0.066309
-0.0015702
0.0060837
-0.018791
-0.064714
-0.10235
-0.11446
-0.13456
-0.17378
-0.16517
-0.098838
-0.087038
-0.076833
-0.058017
-0.067585
-0.056742
-0.022937
-0.020705
2.4388e-05
0.026813
0.014375
-0.015921
0.010548
0.081346
0.061255
0.0028946
-0.021343
0.036699
0.014694
-0.0063538
-0.020386
-0.049407
-0.057379
0.027451
0.098568
0.015332
0.042439
0.060617
0.051369
0.097611
0.088362
0.085811
0.05105
0.055515
0.1008
0.10877
0.075606
0.0028946
-0.020067
-0.01911
-0.025488
0.020435
-0.0063538
-0.013051
0.0032135
0.031596
0.099205
0.050731
0.01597
0.058066
0.11962
0.10463
0.1228
0.095697
0.061574
0.096016
0.17989
0.19424
0.14162
0.10399
0.052326
0.011505
0.088362
0.099843
0.025218
-0.10043
-0.14093
-0.12339
-0.11255
-0.13838
-0.15656
-0.17442
-0.16613
-0.10043
-0.081935
-0.12084
-0.084806
-0.094054
-0.077471
-0.0098618
-0.015602
-0.0085862
-0.020067
-0.0079484
0.0044891
0.023305
0.026494
-0.03378
-0.033142
0.01884
0.02171
0.056153
0.065401
0.058385
0.0054459
0.017246
0.031278
-0.017197
-0.066947
-0.059612
0.03925
-0.036969
-0.10841
-0.049726
-0.078427
-0.10394
-0.094692
-0.076833
-0.089589
-0.069817
-0.074601
-0.068222
-0.032504
-0.020705
-0.012732
-0.00029452
-0.010819
0.081665
0.11037
0.074968
0.087087
0.054877
0.072098
0.11069
0.13205
0.12791
0.15023
0.1244
0.1582
0.17638
0.089957
0.053282
0.12249
0.10239
0.060298
0.047223
0.078157
0.041164
0.025537
0.053601
0.18499
0.14832
0.020116
0.099843
0.19041
0.13046
0.054877
0.063806
-0.0031647
-0.042391
-0.0089051
0.01884
-0.028359
-0.10649
-0.088952
-0.043985
-0.075876
-0.1049
-0.093735
-0.091503
-0.1151
-0.11829
-0.11096
-0.089908
-0.093416
-0.12499
-0.13647
-0.071093
-0.085443
-0.093416
-0.13743
-0.1808
-0.16326
-0.043028
-0.019748
-0.084168
-0.048131
-0.017197
-0.016878
0.014375
-0.0076295
-0.030272
-0.045261
-0.024851
-0.036331
-0.037926
-0.03378
-0.080979
-0.086081
-0.054828
-0.019429
0.011505
-0.020386
0.016608
0.11005
0.16458
0.17383
0.14577
0.10526
0.08039
0.13779
0.14959
0.13046
0.15183
0.12855
0.09793
0.08613
0.12727
0.13205
0.14449
0.098568
0.082622
0.13811
0.097611
0.097611
-0.0038025
-0.019748
0.063487
0.041802
0.035423
0.029045
-0.070136
-0.046218
-0.024851
-0.013689
-0.072368
-0.062801
-0.052596
-0.070774
-0.063439
-0.020067
0.026813
0.056153
0.038612
-0.017835
-0.034737
-0.021661
-0.058017
-0.045899
-0.030591
0.028726
0.092189
-0.0018891
-0.024532
-0.041115
-0.031229
-0.036331
-0.067585
-0.1033
-0.11
-0.042391
-0.087038
-0.10298
-0.097881
-0.12945
-0.1049
-0.06599
-0.063439
-0.043347
0.014375
0.03064
0.038294
0.085811
0.038612
-0.046855
-0.083849
-0.061844
-0.018791
-0.03378
-0.064395
-0.02198
-0.040158
-0.071093
-0.051958
-0.067903
-0.11542
-0.11606
-0.030591
0.1177
0.17893
0.11164
0.066358
0.053282
0.079752
0.084536
0.12536
0.15629
0.10239
0.10782
0.083898
0.1598
0.22581
0.16777
0.10367
0.094422
0.13301
0.11898
0.071779
-0.0012513
0.0064026
0.098568
0.078795
-0.01624
-0.042072
-0.11446
-0.10011
-0.07779
-0.052915
-0.060569
-0.034418
-0.043347
-0.08066
0.0041702
-0.016559
-0.055147
-0.052915
-0.065033
0.02777
0.12567
0.05105
0.017883
-0.017516
-0.018153
0.040207
0.043396
0.017564
0.042758
0.033191
-0.032186
0.035423
0.0131
-0.039202
-0.10075
-0.095011
-0.1151
-0.10777
-0.10075
-0.13264
-0.1336
-0.049088
-0.06025
-0.079384
-0.085443
-0.058336
-0.035375
0.044034
0.10845
0.059023
-0.026764
-0.050363
0.0032135
0.0076782
-0.013689
-0.012094
-0.10394
-0.091822
-0.0095429
0.0003433
-0.038564
0.017883
0.025218
0.070822
0.10877
0.11675
0.11132
0.095697
0.059342
0.16873
0.21178
0.18021
0.081346
0.057747
0.16139
0.22549
0.1311
0.037656
0.065401
0.066995
0.0076782
0.0032135
-0.035375
-0.072049
-0.085443
-0.028996
-0.076195
-0.10522
-0.11606
-0.11478
-0.03091
-0.031867
0.0028946
0.044034
0.038294
0.15533
0.17255
0.16841
0.20923
0.17415
0.067314
0.082303
0.148
0.10909
0.067633
-0.042072
-0.16294
-0.1285
-0.031548
-0.10841
-0.19898
-0.20057
-0.20886
-0.19036
-0.15688
-0.18431
-0.20153
-0.16645
-0.15178
-0.078109
-0.06886
-0.064077
-0.10872
-0.060887
-0.0031647
0.051369
0.092827
0.031278
0.037656
0.019797
0.050412
0.12057
0.075287
-0.0098618
-0.0041214
0.10367
0.07146
0.10335
0.05105
0.092189
0.11132
0.079114
0.064763
0.081028
0.080071
0.091552
0.13333
0.13588
0.13492
0.0092728
0.043396
-0.005716
-0.002208
-0.018791
-0.060569
-0.092141
-0.16453
-0.18239
-0.12945
-0.046855
-0.06312
-0.058336
-0.081298
-0.051001
0.0095917
-0.055785
-0.054828
0.0019378
0.014056
0.026175
0.0092728
0.042121
0.068271
0.038612
-0.02804
0.048818
0.11101
0.019159
-0.026126
0.025856
0.047861
0.018521
-0.0063538
-0.041434
-0.073325
-0.054509
-0.088314
-0.081935
-0.08353
-0.10075
-0.058017
-0.040158
-0.022937
-0.021343
-0.054828
-0.015283
0.01023
0.015013
0.037656
0.075287
0.016289
0.0076782
0.13843
0.1059
0.00098112
-0.04558
-0.0050782
0.074649
0.14226
0.10813
0.053282
0.088681
0.072098
0.057109
0.025856
0.023305
-0.0105
-0.051639
-0.009224
0.080709
0.032553
-0.0085862
-0.045899
-0.092141
-0.063758
0.023943
0.053601
0.055196
0.047223
-0.00029452
-0.016878
0.032553
0.041483
-0.066309
-0.097562
-0.091184
-0.13232
-0.13615
-0.14349
-0.2028
-0.15784
-0.094054
-0.043347
-0.01624
-0.053234
-0.026764
2.4388e-05
0.083579
0.16777
0.12855
0.055515
0.060936
0.14321
0.11962
0.035423
0.013738
0.027132
0.14003
0.18818
0.10782
-0.00061343
0.017883
0.019478
0.026813
0.070503
0.054877
0.066677
0.06285
-0.010181
0.011824
0.053601
0.09506
0.024262
0.0076782
0.03351
0.039569
-0.0105
-0.066947
-0.046218
-0.016559
0.035104
0.043715
0.046266
-0.024851
-0.10585
-0.10011
-0.098519
-0.11096
-0.11574
-0.15847
-0.035375
0.021391
-0.043347
-0.044623
-0.065352
-0.10203
-0.081617
0.038612
0.03351
0.008635
-0.066947
-0.13902
-0.12116
-0.045261
-0.11606
-0.13679
-0.23437
-0.21875
-0.19228
-0.10617
-0.13774
-0.13105
-0.16198
-0.14508
-0.10235
-0.12435
-0.16326
-0.1674
-0.15433
-0.12467
-0.1438
-0.13105
-0.14954
-0.1808
-0.12499
-0.075238
-0.057061
-0.080022
-0.045261
-0.002208
0.032553
0.090276
0.16745
0.17957
0.17542
0.22549
0.25388
0.3537
0.40568
0.3588
0.44937
0.54887
0.57311
0.52814
0.36071
0.34859
0.37985
0.39962
0.34923
0.33934
0.19488
0.078157
-0.018472
-0.090546
-0.091822
-0.13998
-0.29114
-0.33547
-0.29337
-0.33451
-0.33993
-0.32367
-0.29273
-0.2685
-0.17059
-0.1403
0.10367
0.16968
0.0025757
0.045629
0.07146
0.086449
0.092508
0.10399
0.15023
0.20413
0.057428
-0.11638
-0.043347
-0.015283
-0.10426
-0.18718
-0.27934
-0.36704
-0.40053
-0.37151
-0.38458
-0.368
-0.36034
-0.37757
-0.33674
-0.30677
-0.27775
-0.19611
-0.17888
-0.14827
-0.132
-0.077152
-0.072368
-0.10585
-0.13743
-0.12658
-0.031867
-0.0063538
-0.035375
-0.04845
-0.08353
-0.085762
-0.021661
-0.0050782
-0.051958
-0.0018891
0.044353
0.09187
0.15055
0.20604
0.18276
0.13971
0.087406
0.12472
0.16937
0.18212
0.19934
0.22932
0.18308
0.19902
0.15119
0.17
0.24208
0.25069
0.2223
0.27078
0.26536
0.16873
0.19839
0.24782
0.13269
0.081984
0.17734
0.15884
0.18754
0.089638
0.028726
0.011824
0.092827
0.13237
0.026813
0.021391
0.029045
0.0099106
-0.088952
-0.10649
-0.053552
-0.053871
-0.097562
-0.14986
-0.19674
-0.23724
-0.15752
-0.17059
-0.24203
-0.20854
-0.21747
-0.22608
-0.16581
-0.20089
-0.24713
-0.25574
-0.23884
-0.21046
-0.20121
-0.1808
-0.19674
-0.19898
-0.18367
-0.10203
-0.00093234
-0.044942
-0.051001
-0.009224
0.040526
0.061255
0.093784
0.13269
0.16841
0.12727
0.10016
0.15661
0.24431
0.15757
0.17383
0.1582
0.094741
0.1059
0.14545
0.19424
0.23315
0.13939
0.082622
0.072736
0.042758
-0.040477
-0.012094
-0.0085862
-0.0025269
-0.0015702
0.025856
0.033829
0.0051269
0.11866
0.16426
0.15246
0.13237
0.17798
0.22868
0.24495
0.20891
0.20094
0.23697
0.31734
0.25547
0.14864
0.035423
-0.055785
-0.048131
0.028407
-0.002208
-0.10043
-0.11797
-0.16517
-0.23246
-0.20567
-0.25893
-0.28795
-0.32622
-0.30549
-0.35205
-0.30071
-0.29433
-0.33005
-0.35747
-0.30868
-0.27743
-0.23374
-0.24522
-0.22257
-0.21078
-0.15146
-0.12531
-0.10522
-0.12913
-0.086081
-0.01337
-0.022299
-0.052277
-0.093735
-0.12945
-0.074919
0.083898
0.12759
0.019478
0.031596
0.035742
0.035423
0.070185
0.089
0.084854
0.065082
0.10144
0.18978
0.18818
0.19743
0.19966
0.25388
0.38144
0.41493
0.4532
0.40887
0.39292
0.32595
0.32149
0.35465
0.3352
0.32595
0.19743
0.08039
-0.015921
-0.014645
-0.080979
-0.20472
-0.26148
-0.30103
-0.30549
-0.30996
-0.35173
-0.34982
-0.33834
-0.28508
-0.23437
-0.2398
-0.22513
-0.18558
-0.11542
-0.094054
-0.1269
-0.1521
-0.17442
-0.10522
-0.057379
-0.081617
-0.098838
-0.12786
-0.066628
-0.084806
-0.062482
-0.051958
-0.11096
-0.10298
-0.12116
-0.1033
-0.099794
-0.0982
-0.0982
-0.074282
-0.043347
-0.059293
-0.036331
-0.037926
-0.027083
-0.017516
-0.0066727
-0.0073105
-0.061844
-0.074282
-0.03665
0.011824
-0.0069916
-0.017516
-0.027402
-0.059612
-0.014645
0.008635
0.011186
0.0095917
0.013419
0.027132
-0.0015702
0.053601
0.053282
0.0079971
-0.051639
-0.074601
2.4388e-05
0.01884
0.0035324
0.0038513
0.010548
0.070185
0.17383
0.21943
0.16299
0.21784
0.23347
0.22358
0.30522
0.30841
0.2424
0.19839
0.18563
0.20126
0.12982
0.099205
0.01884
-0.022299
-0.053552
-0.069498
-0.071411
-0.16358
-0.15497
-0.13487
-0.12563
-0.087357
-0.11702
-0.1741
-0.20472
-0.17601
-0.15305
-0.11159
-0.017516
0.022986
-0.031229
-0.06886
-0.06886
-0.061525
-0.084168
-0.035694
-0.047493
0.024262
0.049137
-0.067903
-0.096924
-0.12754
-0.12371
-0.061525
-0.074601
-0.11064
-0.17538
-0.15337
-0.10139
-0.07173
-0.083849
-0.025807
0.0028946
-0.002208
0.0095917
-0.032186
-0.036012
-0.021661
-0.016559
-0.013051
-0.0073105
-0.0063538
-0.047493
-0.017835
0.027132
0.060936
0.10686
0.056153
0.081665
0.10782
0.1177
0.14959
0.11356
0.053601
0.054558
0.1126
0.062212
-0.0041214
-0.0085862
-0.059293
-0.066309
-0.053234
-0.070774
-0.057379
-0.070136
-0.075238
-0.056742
-0.0047593
-0.014008
0.019159
0.025537
0.035742
0.1244
0.12057
0.066358
0.033829
0.022348
0.087087
0.19296
0.17702
0.081665
0.043715
0.054239
0.053601
0.095697
0.035423
-0.078109
-0.11319
-0.11765
-0.10107
-0.10298
-0.097243
-0.16134
-0.18941
-0.18781
-0.13934
-0.097562
-0.13647
-0.12786
-0.11191
-0.078427
-0.052596
-0.11319
-0.14476
-0.12212
-0.049088
-0.053871
-0.072049
-0.086081
-0.12148
-0.097243
-0.080022
-0.069179
-0.040796
-0.032186
-0.020386
-0.021343
0.030321
0.022348
-0.0025269
-0.012413
-0.036331
0.031596
0.021391
-0.022937
-0.015283
-0.02517
-0.012094
0.078795
0.11579
0.031915
0.083898
0.11898
0.055515
0.10654
0.10176
0.071779
0.076244
0.078476
0.084854
0.076563
0.06285
-0.021024
-0.064714
-0.012094
0.066358
0.075925
0.010867
0.011824
0.033829
-0.0089051
0.010548
0.040207
-0.0073105
-0.021661
0.074968
0.037337
-0.011775
0.0019378
-0.047812
-0.036331
-0.04271
-0.023894
0.028088
0.048499
-0.0076295
-0.051958
-0.0025269
0.024899
0.026494
-0.051639
-0.11383
-0.049407
-0.068222
-0.087357
-0.11032
-0.11446
-0.07779
-0.039202
-0.034099
-0.11128
-0.064077
-0.051639
-0.044304
-0.0041214
-0.017835
-0.040158
-0.048769
-0.049088
-0.034737
-0.014645
-0.014645
-0.04271
-0.063439
-0.050363
-0.0044404
0.023624
-0.005716
0.0070404
0.017883
0.037337
0.072098
0.03638
-0.040158
-0.063758
0.013738
0.0019378
-0.019748
-0.040796
-0.084487
-0.077152
-0.074919
-0.06025
-0.043666
-0.048769
-0.043347
-0.045261
0.0032135
0.0025757
-0.029634
-0.065671
-0.074919
-0.0050782
-0.0015702
-0.023575
-0.042391
-0.073644
-0.032504
0.072098
0.10239
0.052326
0.11738
0.13397
0.12727
0.17
0.16713
0.15725
0.17957
0.17574
0.15501
0.1346
0.14991
0.075925
0.014056
0.10112
0.12376
0.090914
0.0041702
0.0067215
-0.0034836
0.0041702
0.048499
0.0057648
-0.065352
-0.10203
-0.097243
-0.12626
-0.11223
-0.11255
-0.17984
-0.17825
-0.16485
-0.16613
-0.17091
-0.16868
-0.16804
-0.16772
-0.1202
-0.11415
-0.12722
-0.1521
-0.12913
-0.058336
-0.084806
-0.088633
-0.094692
-0.12595
-0.097881
-0.035056
-0.013689
-0.054509
-0.012094
-0.0073105
-0.022937
0.023943
0.015013
-0.012094
-0.03091
-0.027721
-0.012413
-0.010181
-0.016878
-0.045899
-0.029953
-0.017516
0.028088
0.055834
0.0067215
0.014375
0.035423
0.060936
0.09187
0.057747
0.0070404
-0.017516
0.061574
0.06859
0.040526
0.022348
-0.034418
-0.016878
0.0051269
0.014375
0.023305
0.028726
0.023624
0.020754
0.064444
0.052326
-0.0018891
-0.035375
-0.040158
0.030959
0.017883
-0.016878
-0.049088
-0.084806
-0.050363
0.012462
0.028088
-0.029634
0.0022568
0.0131
0.015332
0.05679
0.032872
0.0092728
0.0019378
0.0060837
0.019478
0.01597
0.017246
-0.01337
-0.0034836
0.031596
0.072417
0.10399
0.11898
0.13779
0.14003
0.17064
0.1834
0.13492
0.082303
0.1228
0.1885
0.13237
0.09506
0.024899
-0.031867
0.0064026
0.010867
0.0076782
-0.0105
-0.028359
-0.044942
-0.028678
0.0064026
0.028726
-0.012094
-0.026126
-0.026445
0.037656
0.028726
-0.025807
-0.060569
-0.066628
-0.043028
0.01597
0.0057648
-0.074919
-0.051639
-0.078746
-0.084168
-0.031867
-0.072368
-0.11797
-0.13073
-0.13105
-0.11733
-0.11478
-0.13328
-0.16453
-0.1556
-0.13902
-0.099157
-0.071093
-0.11383
-0.10235
-0.057698
-0.027083
-0.0034836
-0.031548
-0.07779
-0.081935
-0.01337
-0.012732
-0.027083
-0.039202
-0.090865
-0.066947
-0.025807
-0.010819
-0.013689
0.0044891
0.0051269
-0.0050782
0.062212
0.066677
0.040526
0.018202
-0.023256
0.07433
0.072736
0.05105
0.012781
-0.014327
0.0131
0.087087
0.15151
0.12312
0.14545
0.087725
0.089638
0.13779
0.11419
0.096335
0.13173
0.10909
0.079752
0.034786
-0.0095429
-0.038245
-0.027083
0.014694
0.028726
0.027451
-0.06886
-0.069817
-0.052596
-0.027402
-0.0038025
-0.026126
-0.073325
-0.10298
-0.051958
-0.080341
-0.082573
-0.084806
-0.12977
-0.11733
-0.1269
-0.11893
-0.10458
-0.078746
-0.082254
-0.085443
-0.041115
-0.038883
-0.060569
-0.081935
-0.091503
-0.018791
-0.01911
-0.041434
-0.060569
-0.083211
-0.061525
-0.0038025
0.020754
-0.017835
0.019159
0.026175
0.023624
0.054239
0.034786
0.018202
0.0057648
0.028088
0.022986
0.012781
0.02458
-0.009224
-0.027083
-0.019748
0.014375
0.058066
0.018202
0.038612
0.08326
0.12599
0.19807
0.16171
0.081984
0.083579
0.1464
0.13588
0.12599
0.14385
0.11515
0.15023
0.092508
0.015332
0.039888
0.093146
0.082303
0.032872
0.038612
0.018521
-0.017835
-0.064077
-0.079065
0.016608
-0.0015702
-0.040796
-0.11
-0.1808
-0.169
-0.072049
-0.037607
-0.087676
-0.1033
-0.10171
-0.11638
-0.048131
-0.080341
-0.12754
-0.12977
-0.097881
-0.090227
-0.088314
-0.082892
-0.09533
-0.085125
-0.075238
-0.053234
-0.010819
-0.040477
-0.037607
-0.020386
-0.00061343
0.034467
-0.005716
-0.073006
-0.088952
-0.0095429
-0.017516
-0.047174
-0.060887
-0.10171
-0.079065
-0.048769
-0.033142
-0.035375
-0.014964
-0.014964
-0.023894
0.026494
0.026175
0.0092728
-0.012732
-0.027721
0.027132
0.025218
0.00098112
-0.017835
-0.032823
-0.0085862
0.053601
0.066677
0.01597
0.053282
0.10208
0.16905
0.19328
0.15533
0.10558
0.10495
0.12089
0.11419
0.13205
0.15214
0.099843
0.059661
0.058066
0.061574
0.072417
0.0022568
0.011186
0.017883
0.037337
0.043077
-0.031548
-0.094054
-0.090227
-0.0069916
-0.041115
-0.072368
-0.074282
-0.10107
-0.095011
-0.089589
-0.072687
-0.067903
-0.045261
-0.04845
-0.10394
-0.056104
-0.045261
-0.084168
-0.10171
-0.13487
-0.067585
-0.074919
-0.051001
-0.040158
-0.091822
-0.041434
2.4388e-05
0.010548
-0.038883
0.016608
0.075287
0.074968
0.10686
0.069228
0.029364
0.035104
-0.00061343
0.00098112
0.014694
-0.016878
-0.074601
-0.081298
-0.070455
-0.043985
-0.029953
-0.080979
-0.070774
-0.052915
-0.025488
0.0044891
-0.016878
-0.058017
-0.058974
0.0095917
-0.0041214
-0.021024
-0.017516
-0.051958
-0.020386
0.015013
0.039888
0.019159
0.050731
0.058385
0.049774
0.08613
0.067952
0.037975
0.004808
-0.01337
0.055834
0.038612
0.0051269
-0.021661
-0.040796
-0.032504
0.030002
0.080071
0.04531
0.030002
0.03351
0.034786
0.099205
0.084536
0.063806
0.069228
0.072098
0.07146
0.050412
0.056471
0.011824
-0.0095429
-0.0044404
0.0131
0.020435
-0.031229
-0.014008
-0.0031647
0.0013
-0.009224
-0.074919
-0.10649
-0.10426
-0.060569
-0.077471
-0.10681
-0.1202
-0.16358
-0.14572
-0.12148
-0.096286
-0.088314
-0.07779
-0.077471
-0.073644
-0.029315
-0.038883
-0.050044
-0.041434
-0.058974
0.0076782
0.0032135
-0.018153
-0.034418
-0.043347
-0.010819
0.074649
0.096654
0.02458
0.03638
0.037656
0.053601
0.087087
0.052963
0.016608
0.0038513
0.0013
-0.0041214
-0.011137
-0.023256
-0.076514
-0.070455
-0.054828
-0.029953
0.013419
-0.041753
-0.031229
-0.014645
0.014056
0.037337
0.0073593
-0.044623
-0.071093
0.0092728
0.030002
0.042439
-0.0025269
-0.043347
-0.03378
-0.02804
-0.029953
0.00066221
0.054558
0.063169
0.069547
0.094103
0.055515
0.027451
0.022667
0.0022568
0.063487
0.054877
0.058704
0.019478
-0.017197
-0.02517
0.020435
0.013738
-0.011456
0.010548
0.022986
0.012781
0.02458
-0.021343
-0.044623
-0.055147
-0.043028
-0.052277
-0.065352
-0.058974
-0.066309
-0.065352
-0.063758
-0.037607
0.023943
0.0003433
-0.0060349
0.020116
0.050412
0.073693
0.035423
-0.0015702
0.013738
0.071141
0.047223
0.022986
0.020754
-0.025488
-0.018153
-0.0098618
0.00098112
0.0070404
0.00098112
0.0057648
-0.024213
0.034786
0.025537
-0.03378
-0.067585
-0.083849
-0.02804
-0.034099
-0.057698
-0.085762
-0.11478
-0.095968
-0.02804
-0.012732
-0.074601
-0.041115
-0.010819
-0.0041214
0.041164
0.01597
-0.021661
-0.024532
0.0131
0.025537
0.017564
0.0070404
-0.045261
-0.044623
-0.0098618
0.018202
0.044034
-0.0028458
0.0073593
0.016927
0.031596
0.043715
0.0095917
-0.056423
-0.075557
-0.017516
-0.011775
-0.021024
-0.034099
-0.077471
-0.05132
0.049455
0.065401
0.019478
0.044991
0.049455
0.053601
0.099843
0.13843
0.10813
0.10144
0.074012
0.10271
0.099205
0.086768
0.047542
0.016927
-0.0095429
0.035742
0.035742
-0.0066727
-0.0098618
-0.015602
0.0054459
0.050093
0.011505
-0.074601
-0.091184
-0.052277
-0.065352
-0.051958
-0.063758
-0.1151
-0.14444
-0.11319
-0.078746
-0.037926
-0.083211
-0.06886
-0.069179
-0.047174
-0.028359
-0.06599
-0.11255
-0.095011
-0.027083
-0.031229
-0.044304
-0.043985
-0.051001
-0.032823
-0.002208
0.019159
0.020116
0.055515
0.054239
0.03351
0.085811
0.075287
0.04531
0.01597
-0.028359
0.016289
0.010867
-0.018472
-0.070455
-0.099794
-0.086081
-0.028996
-0.019429
-0.073325
-0.043028
-0.026764
-0.00061343
0.03925
0.0060837
-0.01911
-0.011456
0.020754
0.01884
0.015651
0.013738
0.0038513
0.052963
0.07752
0.070503
0.077201
0.024262
0.031915
0.059661
0.11547
0.15533
0.10877
0.0099106
-0.022618
0.050093
0.034786
-0.0079484
-0.022937
-0.052277
-0.046855
-0.02804
-0.04845
-0.056423
-0.014964
-0.011775
-0.040158
0.0060837
0.0038513
-0.02517
-0.042072
-0.066309
-0.010181
-0.020067
-0.026445
-0.026126
-0.057379
-0.081298
-0.0095429
0.0079971
-0.025488
-0.0076295
0.0070404
-0.002208
0.049774
0.021391
-0.017516
-0.023256
-0.0095429
-0.024851
-0.014008
-0.020067
-0.054828
-0.021024
0.0044891
-0.0028458
0.03064
-0.0025269
-0.01624
-0.023575
0.043396
0.092508
0.052645
-0.028359
-0.074601
-0.0015702
0.0003433
-0.033142
-0.061525
-0.099794
-0.079065
-0.050044
-0.029315
-0.053552
-0.029953
-0.023575
-0.018472
0.022986
0.0028946
-0.0069916
-0.019748
-0.02804
0.039569
0.01884
-0.010819
-0.035694
-0.061206
-0.0034836
0.057109
0.067952
0.013419
0.035423
0.033829
0.01884
0.076244
0.069547
0.066677
0.049137
0.05392
0.027132
0.026175
0.0057648
-0.044304
-0.012413
0.0073593
0.015651
0.023624
-0.041753
-0.050682
-0.027083
0.033829
0.037337
-0.02804
-0.087038
-0.098519
-0.024532
-0.038564
-0.052277
-0.056104
-0.10394
-0.081935
-0.043985
-0.028996
-0.051639
-0.039839
-0.042072
-0.03378
0.029683
0.016608
-0.030272
-0.050363
-0.058017
-0.0031647
-0.00093234
-0.023256
-0.028996
-0.043666
-0.039202
0.01597
0.026175
