-0.024851
-0.032186
-0.023575
-0.010819
-0.01337
-0.025807
-0.026126
-0.017835
-0.0069916
0.0022568
0.011505
0.0070404
0.0028946
0.0054459
0.0089539
0.0003433
-0.012413
-0.022299
-0.02804
-0.018791
-0.013689
-0.014964
-0.027721
-0.023894
-0.015283
-0.0066727
0.0073593
0.0095917
0.0016189
0.0022568
0.008316
0.0057648
-0.0012513
-0.017835
-0.024851
-0.023894
-0.0079484
-0.011456
-0.015602
-0.026764
-0.020386
-0.0089051
0.00098112
0.014375
0.014375
0.0064026
0.0041702
0.0089539
0.0041702
-0.0047593
-0.019429
-0.027083
-0.020386
-0.0085862
-0.0076295
-0.021024
-0.022618
-0.013689
-0.00061343
0.012781
0.020116
0.016927
0.015013
0.014694
0.016289
0.015013
0.0013
-0.0105
-0.015921
-0.0066727
-0.0018891
-0.0076295
-0.029953
-0.023575
-0.017835
-0.010181
0.00098112
0.0025757
-0.0098618
-0.009224
0.011824
0.018521
0.0099106
-0.017197
-0.022299
-0.01337
0.0064026
0.0060837
-0.0047593
-0.012413
0.0051269
0.02458
0.0079971
-0.0047593
0.0016189
-0.0031647
-0.014964
-0.032186
-0.036969
-0.043666
-0.060887
-0.075557
-0.069817
-0.055785
-0.061844
-0.071093
-0.067266
-0.056104
-0.041753
-0.029953
-0.019429
-0.023575
-0.025488
-0.031548
-0.002208
-0.011137
-0.042391
-0.061844
-0.067266
-0.046855
-0.039839
-0.046536
-0.06025
-0.052915
-0.037607
-0.029634
-0.020386
-0.022299
-0.022937
-0.014008
-0.011775
-0.015602
-0.027402
-0.042072
-0.048131
-0.04845
-0.029953
-0.037607
-0.04558
-0.053552
-0.042391
-0.028996
-0.023256
-0.010819
-0.0066727
-0.011775
-0.0073105
0.0079971
-0.00029452
-0.0085862
-0.014964
-0.020705
-0.0098618
0.0019378
0.0044891
-0.0066727
-0.0079484
0.0064026
0.01884
0.029045
0.037018
0.03638
0.034786
0.034148
0.039888
0.03638
0.02777
0.022986
0.028088
0.034467
0.03351
0.037656
0.034148
0.040207
0.051369
0.058066
0.071779
0.077838
0.068271
0.065082
0.058704
0.047542
0.030959
-0.002208
-0.0053971
0.0038513
0.0067215
-0.0098618
-0.02198
-0.04271
-0.035694
-0.028996
-0.019748
-0.010181
-0.009224
-0.014964
-0.017835
-0.0085862
-0.012732
-0.021024
-0.028678
-0.03378
-0.019748
-0.0066727
-0.0076295
-0.017516
-0.019748
-0.022937
-0.0038025
0.012462
0.019159
0.012143
0.010548
0.016927
0.020754
0.013738
0.0089539
-0.0044404
-0.00093234
0.027451
0.050412
0.050093
0.031596
0.037975
0.040845
0.059342
0.078157
0.078157
0.059661
0.054877
0.067952
0.053282
0.027132
0.0022568
-0.0095429
-0.017835
-0.0098618
-0.01911
-0.027721
-0.035056
-0.034099
-0.02198
-0.012094
-0.00061343
0.0057648
-0.0028458
-0.0031647
0.0041702
-0.00093234
-0.011137
-0.020386
-0.026445
-0.018791
-0.0069916
-0.010181
-0.019748
-0.020705
-0.011775
0.00066221
0.011505
0.016289
0.012143
0.010867
0.013738
0.016289
0.0054459
-0.0098618
-0.016878
-0.01911
-0.013051
-0.0095429
-0.010819
-0.023256
-0.01911
-0.010181
-0.00029452
0.012143
0.012462
0.0070404
0.0051269
0.012143
0.011824
0.0016189
-0.012413
-0.019429
-0.020386
-0.0031647
-0.0053971
-0.0069916
-0.014645
-0.0098618
0.0025757
0.012462
0.02458
0.02777
0.019478
0.015332
0.024262
0.01884
0.0060837
-0.0085862
-0.027083
-0.010181
0.0028946
-0.005716
-0.020386
-0.022937
-0.014327
-0.0031647
0.0070404
0.013419
0.0092728
0.0070404
0.0089539
0.013738
0.0057648
-0.0073105
-0.014964
-0.019748
-0.0098618
-0.0044404
-0.0050782
-0.016878
-0.012094
-0.0028458
0.0067215
0.02171
0.024899
0.017564
0.015013
0.022667
0.022029
0.010867
-0.0044404
-0.011775
-0.0089051
0.0076782
0.0022568
-0.0050782
-0.012413
-0.0050782
0.0054459
0.01597
0.027132
0.027451
0.019159
0.020116
0.024899
0.018202
0.008635
-0.0044404
-0.012413
-0.0066727
0.0070404
0.0022568
-0.0098618
-0.0098618
-0.0028458
0.0092728
0.021391
0.02777
0.022029
0.019478
0.022986
0.026813
0.017246
0.004808
-0.0028458
-0.0076295
-0.0018891
0.0038513
0.00098112
-0.0076295
-0.0050782
0.011505
0.019478
0.030959
0.031596
0.028088
0.02777
0.036061
0.042758
0.033829
0.017564
0.015013
0.016289
0.03064
0.028088
0.0073593
0.011824
0.018202
0.020754
0.028407
0.035423
0.025537
0.010867
0.0092728
0.010867
0.0054459
-0.0098618
-0.028359
-0.038883
-0.035375
-0.023894
-0.026126
-0.035056
-0.031867
-0.015283
-0.0012513
0.008635
0.035104
0.045947
0.033829
0.03638
0.040526
0.035104
0.024262
0.012462
0.011824
0.02458
0.026494
0.0099106
-0.015283
-0.0089051
-0.0063538
-0.009224
-0.0041214
2.4388e-05
-0.0089051
-0.020705
-0.01911
-0.024213
-0.032823
-0.044623
-0.051639
-0.049407
-0.033142
-0.036012
-0.043985
-0.047493
-0.038883
-0.024213
-0.015283
-0.0018891
0.0038513
-0.0044404
-0.0031647
0.011505
0.0044891
-0.0069916
-0.016559
-0.02198
-0.013689
-0.0031647
-0.0063538
-0.021343
-0.018791
-0.0069916
0.0051269
0.013419
0.017564
0.0089539
0.0044891
0.0057648
0.012781
0.0022568
-0.012732
-0.019748
-0.023894
-0.015602
-0.012094
-0.01337
-0.024851
-0.01911
-0.011775
-0.0025269
0.012462
0.012462
0.0070404
0.0064026
0.012781
0.008635
0.0016189
-0.013051
-0.019429
-0.018153
0.0016189
-0.00029452
-0.0095429
-0.015283
-0.0063538
0.0089539
0.018521
0.036699
0.03638
0.026175
0.025218
0.030959
0.02171
0.0070404
-0.0018891
-0.0069916
-0.0015702
2.4388e-05
-0.0038025
-0.014645
-0.020067
-0.012413
-0.0038025
0.0057648
0.011505
0.0032135
0.0013
0.0028946
0.01884
0.027132
0.021391
0.012781
0.0064026
0.018202
0.018521
0.018202
0.0095917
0.018521
0.028088
0.038931
0.043077
0.03064
0.0131
0.0041702
0.014375
-0.0044404
-0.019429
-0.037926
-0.050044
-0.05419
-0.048131
-0.06025
-0.073006
-0.071093
-0.060569
-0.049407
-0.035694
-0.020705
-0.018472
-0.02517
-0.027402
-0.022937
-0.024851
-0.032504
-0.034099
-0.038564
-0.029634
-0.017516
-0.015921
-0.026126
-0.027083
-0.01624
-0.002208
0.0099106
0.014375
0.0079971
0.0070404
0.011505
0.015013
0.0057648
-0.0095429
-0.017197
-0.01911
-0.010181
-0.0066727
-0.011137
-0.021343
-0.017516
-0.0069916
0.0038513
0.017246
0.017883
0.0099106
0.0089539
0.018202
0.01884
0.014056
-0.0050782
-0.01337
-0.012094
0.013738
0.013419
0.00066221
-0.0044404
0.008316
0.021072
0.024899
0.030321
0.029683
0.029683
0.031915
0.030959
0.014694
0.0025757
-0.0105
-0.027721
-0.016878
-0.0012513
-0.0082673
-0.025807
-0.02804
2.4388e-05
0.0079971
0.0067215
0.0095917
0.0025757
0.004808
0.019159
0.018202
0.011505
2.4388e-05
-0.014327
-0.02198
-0.0047593
0.0016189
-0.005716
-0.022937
-0.022618
-0.011456
-0.002208
0.010548
0.012143
-0.00061343
-0.002208
-0.0047593
-0.013051
-0.01624
-0.03378
-0.039202
-0.039202
-0.030272
-0.034737
-0.041434
-0.04558
-0.036969
-0.023575
-0.01624
-0.00093234
0.0013
-0.002208
0.0016189
0.0041702
-0.0073105
-0.018153
-0.023894
-0.040158
-0.039839
-0.022299
-0.0095429
-0.028359
-0.033461
-0.019429
-0.0050782
0.0051269
0.0070404
0.0016189
0.008316
0.016289
0.053282
0.066995
0.033191
0.019159
0.013738
0.022348
0.034786
0.044991
0.037018
0.043077
0.056153
0.056153
0.052645
0.039888
0.021391
0.022348
0.036699
0.020754
0.0060837
-0.020386
-0.041434
-0.036331
-0.018472
-0.027083
-0.043347
-0.051001
-0.044304
-0.032823
-0.022618
-0.010819
-0.010181
-0.015602
-0.015921
-0.009224
-0.014964
-0.026764
-0.034099
-0.041753
-0.034099
-0.023575
-0.025807
-0.037607
-0.03665
-0.028359
-0.018153
-0.0079484
0.00098112
-0.002208
0.00098112
0.0079971
0.0041702
-0.0066727
-0.027083
-0.037607
-0.039202
-0.023256
-0.017516
-0.016878
-0.022937
-0.024851
-0.018791
-0.0076295
0.013738
0.023305
0.024262
0.022029
0.022667
0.029683
0.024262
0.013419
0.0051269
0.014056
0.035742
0.040526
0.026175
0.011186
0.016927
0.026494
0.038931
0.047223
0.040526
0.036699
0.030002
0.030321
0.015013
-0.0069916
-0.0025269
-0.0069916
-0.011775
-0.015921
-0.017835
-0.026445
-0.026126
-0.018153
-0.0089051
0.0044891
0.010867
0.0079971
-0.0012513
-0.0034836
0.0067215
0.0016189
-0.012413
-0.019748
-0.020386
-0.009224
0.011186
0.01023
-0.0085862
-0.011775
-0.012732
-0.0085862
0.011824
0.015651
2.4388e-05
2.4388e-05
0.0076782
-0.0105
-0.017516
0.0099106
0.0003433
-0.011137
0.0013
-0.0063538
-0.0073105
-0.01624
-0.0069916
0.020435
0.041164
0.053282
0.046904
0.035742
0.014375
0.016289
0.016289
0.0060837
-0.024851
-0.037288
-0.026126
-0.010181
-0.019429
-0.03378
-0.027083
-0.018791
-0.010819
-0.00093234
0.0013
-0.002208
0.008316
0.013419
0.0064026
-0.0063538
-0.018472
-0.026445
-0.032186
-0.021343
-0.020705
-0.029953
-0.040477
-0.037288
-0.026764
-0.02517
-0.011775
-0.010819
-0.018791
-0.019429
-0.016559
-0.022937
-0.029634
-0.041434
-0.043028
-0.035375
-0.020705
-0.024532
-0.03378
-0.034737
-0.027721
-0.012413
-0.0031647
0.0079971
0.0079971
0.0032135
0.0054459
0.0095917
0.0041702
-0.0015702
-0.0038025
-0.013051
-0.0085862
2.4388e-05
0.00098112
-0.013689
-0.0098618
-0.00029452
0.0073593
0.015651
0.016608
0.0060837
0.0060837
0.0013
0.010548
-0.0089051
-0.026445
-0.040796
-0.043347
-0.028678
-0.024213
-0.022299
-0.02517
-0.024532
-0.017516
-0.017197
0.0013
0.016289
0.008635
0.0044891
0.011505
0.0051269
-0.005716
-0.01911
-0.024532
-0.018472
-0.005716
-0.0082673
-0.014645
-0.017197
-0.011775
-0.0018891
0.010548
0.020116
0.021072
0.015013
0.017564
0.02458
0.01597
-0.0015702
-0.012413
-0.019429
-0.01337
-0.0034836
-0.0073105
-0.016559
-0.017197
-0.0089051
0.00066221
0.012781
0.018521
0.011505
0.011824
0.015651
0.019159
0.012143
-0.0082673
-0.017835
-0.023575
-0.01337
-0.010819
-0.014645
-0.029315
-0.031229
-0.023575
-0.018153
-0.0073105
-0.0025269
-0.009224
-0.010819
0.0044891
-0.005716
-0.018472
-0.030591
-0.03378
-0.021024
-0.0047593
-0.0038025
-0.012413
-0.014327
-0.0098618
0.004808
0.016927
0.028088
0.026813
0.02171
0.023624
0.026494
0.016608
0.00066221
-0.0085862
-0.016878
-0.0073105
0.016289
0.020754
-0.0015702
0.008316
0.023943
0.041164
0.048818
0.048818
0.03925
0.041164
0.049137
0.046266
0.036061
0.02171
0.015332
-0.0018891
-0.0025269
-0.0038025
-0.005716
-0.016878
-0.022299
-0.018472
-0.013051
0.016608
0.026813
0.014694
0.00066221
-0.0047593
-0.0073105
-0.0063538
-0.014645
-0.031548
-0.035375
-0.018472
-0.018791
-0.030591
-0.046855
-0.03952
-0.029953
-0.027083
-0.011775
-0.014964
-0.018472
-0.014645
-0.0098618
-0.015921
-0.026126
-0.033461
-0.037288
-0.028678
-0.018472
-0.019429
-0.031229
-0.02517
-0.014964
-0.0050782
0.0070404
0.011186
0.0051269
0.012781
0.016608
0.016289
0.0064026
-0.011775
-0.01624
-0.016559
-0.0031647
-0.0031647
-0.010819
-0.02198
-0.014964
-0.0069916
0.0003433
0.011505
0.010867
0.0076782
0.0095917
0.012462
0.0076782
-0.00061343
-0.014008
-0.0085862
0.00098112
0.014375
0.0070404
0.00066221
-0.0015702
0.0054459
0.0079971
0.01597
0.028726
0.024899
0.0076782
0.0025757
0.011505
0.0019378
-0.018791
-0.041115
-0.050363
-0.043666
-0.034099
-0.036012
-0.049088
-0.047493
-0.037288
-0.023575
-0.009224
-0.0073105
-0.010181
-0.012413
-0.0034836
-0.0028458
-0.0085862
-0.023575
-0.031548
-0.031229
-0.01337
-0.014327
-0.020705
-0.032823
-0.031867
-0.019429
-0.0047593
0.014694
0.017883
0.0076782
0.0044891
0.0076782
0.0044891
2.4388e-05
-0.01337
-0.020705
-0.012094
0.0073593
2.4388e-05
-0.020067
-0.02198
-0.010819
-0.0041214
0.0038513
0.0095917
0.0044891
0.0016189
0.00066221
0.0044891
-0.0069916
-0.019748
-0.025488
-0.030272
-0.024532
-0.018791
-0.015602
-0.026445
-0.021661
-0.011137
0.0003433
0.014056
0.016289
0.0095917
0.0079971
0.013419
0.011505
0.0038513
-0.014645
-0.023575
-0.023894
-0.010819
-0.01337
-0.020705
-0.029634
-0.026764
-0.0098618
-0.00029452
0.011186
0.0131
0.0044891
0.0060837
0.01597
0.01023
0.0013
-0.011456
-0.016559
-0.0050782
0.0073593
0.0073593
-0.00061343
-0.0041214
0.0022568
0.015332
0.029683
0.044034
0.042439
0.035104
0.032553
0.034148
0.0131
-0.0044404
-0.0079484
-0.0095429
-0.0069916
-0.0028458
-0.016559
-0.025488
-0.02804
-0.011456
-0.005716
-0.0031647
0.0013
-0.0028458
-0.0015702
0.0060837
0.0067215
-0.0031647
-0.022299
-0.023575
-0.021343
-0.0105
-0.017516
-0.021024
-0.032504
-0.026764
-0.015283
-0.0076295
0.0038513
0.0064026
-0.0012513
-0.0015702
0.0070404
0.0025757
-0.0066727
-0.021024
-0.029953
-0.020067
-0.00029452
-0.0050782
-0.020705
-0.022937
-0.0105
0.0038513
0.008316
0.012143
0.0073593
0.0079971
0.015651
0.023624
0.0051269
-0.021024
-0.026126
-0.02198
-0.010181
-0.0063538
-0.012094
-0.022618
-0.019748
-0.0085862
0.0016189
0.012143
0.016608
0.018202
0.019159
0.02458
0.020435
0.017883
0.019797
0.0054459
0.0003433
0.025218
0.023943
0.036061
0.031915
0.03064
0.02777
0.041164
0.045947
0.042758
0.030002
0.028726
0.030002
0.021072
-0.00029452
-0.017197
-0.041434
-0.041753
-0.031867
-0.03091
-0.046536
-0.052915
-0.042391
-0.028996
-0.021024
-0.010819
-0.011456
-0.013689
-0.0105
-0.0069916
-0.012413
-0.02804
-0.032504
-0.035375
-0.028359
-0.022299
-0.023575
-0.03378
-0.028996
-0.019748
-0.0095429
0.0054459
0.0073593
0.00066221
-0.00093234
0.0032135
-0.00061343
-0.0085862
-0.022618
-0.029634
-0.026126
-0.012094
-0.013689
-0.017197
-0.024532
-0.013051
0.0019378
0.012462
0.026494
0.034467
0.032234
0.034786
0.044991
0.037975
0.029364
0.016927
0.0089539
0.018521
0.019478
0.013738
-0.0034836
-0.0082673
-0.0012513
0.013419
0.010548
0.010867
0.012781
0.012781
0.0051269
0.0095917
-0.00061343
-0.011775
-0.018791
-0.018153
-0.0038025
-0.00061343
-0.0028458
-0.012094
-0.012094
-0.0018891
0.0099106
0.023305
0.024899
0.017883
0.013419
0.01597
0.014375
0.0028946
-0.01624
-0.024851
-0.024851
-0.012094
-0.017197
-0.025488
-0.03378
-0.027721
-0.013689
-0.0095429
-0.00093234
0.0013
0.0003433
-0.00061343
0.0057648
-0.0015702
-0.0076295
-0.014645
-0.022299
-0.014008
-0.005716
-0.009224
-0.0105
-0.0060349
0.00066221
0.0092728
0.018202
0.022986
0.023943
0.025856
0.026175
0.034786
0.022029
0.0057648
-0.0031647
-0.005716
0.0025757
0.0073593
0.0057648
-0.0073105
-0.0073105
0.0016189
0.0095917
0.014694
0.01597
0.0131
0.012462
0.01597
0.010867
0.0003433
-0.01624
-0.018472
-0.014008
0.0044891
0.01597
0.0057648
-0.0018891
0.025856
0.036699
0.039569
0.035423
0.037018
0.034786
0.038612
0.038931
0.023305
0.0099106
-0.005716
-0.027083
-0.026126
-0.01911
-0.026126
-0.038883
-0.051639
-0.04271
-0.032823
-0.017197
-0.010819
-0.012413
-0.0095429
-0.0073105
-0.0047593
-0.011775
-0.024851
-0.032186
-0.031229
-0.01911
-0.015921
-0.015283
-0.027721
-0.024213
-0.014327
-0.0050782
0.008316
0.008316
0.0028946
-0.00061343
0.0022568
-0.00061343
-0.0066727
-0.020705
-0.028359
-0.03091
-0.023256
-0.017835
-0.022299
-0.025807
-0.017835
-0.0066727
0.00098112
0.015332
0.019478
0.015013
0.008316
0.01023
0.0079971
0.0067215
-0.0038025
-0.017835
-0.012094
-0.0012513
-0.0047593
-0.016878
-0.01911
-0.012094
-0.0012513
0.010548
0.014694
0.012143
0.010867
0.0131
0.015013
0.004808
-0.0076295
-0.017835
-0.021024
-0.0085862
0.0038513
-0.002208
-0.01624
-0.0073105
0.0057648
0.017883
0.034467
0.036061
0.026813
0.027132
0.028726
0.029045
0.028407
0.0067215
-0.005716
-0.0073105
0.004808
-0.0018891
-0.009224
-0.023575
-0.026126
-0.0105
-0.0044404
0.0064026
0.0022568
-0.010181
-0.0098618
-0.0015702
-0.015921
-0.031867
-0.042072
-0.048131
-0.036969
-0.027083
-0.031867
-0.040796
-0.038883
-0.028996
-0.014964
-0.013051
-0.013689
-0.0060349
0.0060837
0.0067215
0.0054459
-0.002208
-0.015921
-0.022299
-0.027083
-0.022299
-0.002208
0.02777
0.013419
0.010548
0.016289
0.019478
0.028088
0.040845
0.044353
0.053282
0.066995
0.059661
0.034467
0.0076782
0.0054459
0.0025757
0.019159
0.02171
0.0092728
2.4388e-05
-0.00029452
0.0095917
0.019159
0.030002
0.027451
0.018202
0.01597
0.020754
0.012781
-0.0031647
-0.016878
-0.031867
-0.02804
-0.015283
-0.018153
-0.031548
-0.032823
-0.0095429
0.03351
0.025856
0.018521
0.01597
0.020754
0.02458
0.030321
0.02171
0.012462
0.010548
-0.012094
-0.014008
-0.015921
-0.0076295
-0.031229
-0.050363
-0.05132
-0.041753
-0.024532
-0.026126
-0.037607
-0.038883
-0.036331
-0.038883
-0.049088
-0.062482
-0.067266
-0.057379
-0.038564
-0.045261
-0.047174
-0.055466
-0.046218
-0.036969
-0.026764
-0.0098618
-0.0069916
-0.016878
-0.014645
-0.0082673
-0.0060349
-0.014008
-0.028678
-0.03378
-0.024532
-0.015921
-0.025488
-0.037926
-0.022937
-0.0076295
-0.00061343
-0.00061343
0.0041702
0.0089539
0.008635
0.0092728
0.025537
0.024899
-0.0031647
-0.012094
-0.010819
0.0003433
0.0079971
0.0022568
-0.005716
0.0073593
0.012462
0.023305
0.022348
0.017246
0.0095917
0.008635
0.008635
-0.002208
-0.0105
-0.023575
-0.017516
-0.023575
-0.014964
-0.021661
-0.02804
-0.036331
-0.027402
-0.013689
-0.0050782
0.0057648
0.0032135
-0.0015702
-0.0063538
-0.0085862
-0.0041214
-0.021661
-0.032186
-0.046536
-0.038245
-0.014964
-0.020067
-0.040477
-0.043666
-0.03378
-0.01911
-0.00061343
0.034467
0.019159
0.0067215
0.0070404
0.011186
0.0025757
-0.011775
-0.015602
-0.014327
-0.0095429
-0.012413
-0.012094
-0.023575
-0.024213
-0.018791
-0.015921
-0.005716
-0.0031647
-0.013051
-0.018791
-0.012094
-0.010181
-0.018791
-0.041115
-0.049407
-0.04845
-0.028678
-0.03091
-0.033461
-0.034418
-0.023575
-0.0053971
0.0057648
0.017564
0.025856
0.020435
0.016608
0.022348
0.0095917
-0.0038025
-0.0082673
-0.009224
-0.01337
-0.012094
-0.011775
-0.027083
-0.014008
0.011824
0.015651
0.042758
0.037337
0.029683
0.034786
0.047542
0.052326
0.045947
0.039569
0.026813
0.012143
0.0089539
0.015332
0.0051269
-0.020705
-0.02517
-0.023894
-0.023894
-0.015283
-0.015921
-0.033461
-0.035056
-0.029315
-0.024851
-0.034099
-0.047812
-0.05419
-0.051639
-0.028996
-0.030591
-0.036331
-0.039202
-0.029953
-0.018153
-0.0018891
0.01884
0.019478
0.012143
0.0131
0.023943
0.022348
0.03064
0.054239
0.026175
0.015013
0.022986
0.031915
0.02171
0.012462
0.030002
0.048818
0.049774
0.043715
0.029364
0.028726
0.027451
0.050731
0.054239
0.031596
0.0131
0.0041702
0.022667
0.024899
0.03064
0.027132
0.028088
0.025218
0.041802
0.05679
0.044034
0.015013
-0.0015702
0.012143
0.0079971
-0.0060349
-0.032823
-0.049407
-0.038245
-0.022299
-0.027721
-0.039202
-0.045261
-0.03378
-0.020705
-0.0047593
0.0060837
0.014056
0.020435
0.016608
0.02458
0.012143
-0.002208
-0.01624
-0.020705
0.0019378
0.0076782
0.0073593
-0.010819
-0.011775
-0.0038025
0.017564
0.037337
0.029683
0.020754
0.025537
0.028088
0.029364
0.030959
0.022986
0.011186
0.01023
0.03064
0.075925
0.052963
0.026494
0.029045
0.031915
0.05105
0.064444
0.058385
0.040526
0.045629
0.042121
0.027451
0.004808
-0.018153
-0.042072
-0.046855
-0.04271
-0.047812
-0.059612
-0.072049
-0.062801
-0.045261
-0.03665
-0.027083
-0.02517
-0.02804
-0.028359
-0.018472
-0.009224
-0.018472
-0.023894
-0.03091
-0.024213
-0.0079484
-0.0025269
-0.0095429
-0.0069916
0.0092728
0.016289
0.028726
0.046904
0.028726
0.024899
0.02777
0.035423
0.024899
0.0041702
-0.0041214
-0.0012513
0.013419
0.0051269
0.0041702
-0.0082673
-0.013689
-0.0044404
0.0079971
0.019478
0.026175
0.017883
0.021072
0.036699
0.025218
0.019159
0.0028946
-0.0098618
0.0076782
0.033191
0.061893
0.057109
0.030321
0.032234
0.052326
0.060298
0.069866
0.093465
0.087406
0.073055
0.064125
0.037337
0.0099106
0.0028946
-0.0105
-0.020705
-0.018791
-0.02517
-0.047174
-0.050044
-0.058017
-0.055147
-0.040158
-0.034737
-0.040477
-0.041115
-0.037926
-0.02517
-0.03378
-0.052596
-0.056104
-0.052915
-0.041115
-0.037607
-0.042391
-0.046855
-0.024851
-0.016878
-0.0105
0.0041702
0.012462
0.008316
2.4388e-05
0.011824
0.01023
0.00098112
-0.011775
-0.022618
-0.021024
-0.0018891
-0.010819
-0.025488
-0.018472
-0.020705
-0.005716
0.0025757
0.017246
0.02777
0.022986
0.017564
0.024899
0.021072
0.026494
0.016927
0.0013
0.019159
0.035423
0.038931
0.02777
0.026813
0.069866
0.069866
0.091233
0.083898
0.068271
0.060617
0.075606
0.07752
0.056471
0.020435
0.0041702
0.01023
0.0095917
-0.009224
-0.026445
-0.056742
-0.055147
-0.045899
-0.042072
-0.033142
-0.040796
-0.047174
-0.044304
-0.032186
-0.033142
-0.043028
-0.053871
-0.055785
-0.048131
-0.028678
-0.028996
-0.034099
-0.036969
-0.02804
-0.01337
0.0022568
0.0095917
0.012462
0.034148
0.062212
0.052645
0.038612
0.023305
0.016289
0.015651
0.018521
0.037018
0.03064
0.039888
0.035104
0.025856
0.019797
0.047542
0.054239
0.032872
0.031915
0.028088
0.059661
0.037975
0.019478
-0.0012513
-0.017516
-0.01624
-0.0095429
-0.009224
-0.024532
-0.03378
-0.024532
-0.01624
-0.018153
-0.027083
-0.03665
-0.040796
-0.034737
-0.038883
-0.049407
-0.051001
-0.055466
-0.052915
-0.039202
-0.040796
-0.048769
-0.054828
-0.052596
-0.045261
-0.022937
-0.0073105
-0.016878
-0.031867
-0.026445
-0.018153
-0.025807
-0.041434
-0.043666
-0.047812
-0.041753
-0.034737
-0.029953
-0.034099
-0.014327
-0.0050782
0.00098112
0.014056
0.02458
0.015013
0.016289
0.022348
0.021072
0.0076782
-0.0063538
0.012781
0.0013
0.017564
0.013738
-0.0079484
-0.029953
-0.0050782
0.036061
0.057109
0.05679
0.041164
0.023305
0.01597
0.022986
0.012143
0.0032135
-0.016559
-0.027721
-0.024851
-0.023894
-0.023256
-0.050682
-0.068541
-0.059931
-0.050682
-0.041753
-0.028359
-0.028996
-0.031867
-0.031229
-0.026445
-0.029315
-0.041434
-0.035694
-0.043347
-0.028678
-0.014008
-0.024213
-0.040158
-0.037926
-0.011775
0.024899
0.038931
0.032553
0.026813
0.023624
0.013419
0.012462
0.0067215
0.00066221
-0.0098618
-0.015283
0.0057648
0.035423
0.015651
-0.0041214
0.029683
0.072417
0.06285
0.061893
0.076882
0.074649
0.089957
0.077201
0.076882
0.066995
0.035742
0.026813
0.010867
0.0025757
-0.031229
-0.06599
-0.06599
-0.060569
-0.06599
-0.071093
-0.055785
-0.060887
-0.076195
-0.07779
-0.073644
-0.077152
-0.085443
-0.088314
-0.08927
-0.074601
-0.063439
-0.058017
-0.069179
-0.064714
-0.054509
-0.046855
-0.029953
-0.028359
-0.030272
-0.026126
-0.013051
-0.010819
-0.0015702
-0.0053971
-0.0053971
-0.0098618
0.0041702
0.0076782
0.0003433
-0.0089051
0.011824
0.023943
0.032872
0.04531
0.023624
0.022029
0.01884
0.019797
0.0019378
-0.016559
-0.024851
-0.03665
-0.040477
-0.032823
-0.024851
-0.011456
-0.017835
-0.0095429
0.0019378
0.010867
0.021072
0.016608
0.011824
0.0131
0.01597
0.004808
-0.010181
-0.015602
-0.017516
-0.020386
-0.027721
-0.022299
-0.033142
-0.028996
-0.020386
0.022348
0.033829
0.019478
0.019797
0.01597
0.033829
0.027451
0.022986
0.0016189
-0.014008
-0.019429
-0.0028458
-0.018791
-0.032186
-0.023894
-0.014645
-0.012413
-0.012413
0.008635
0.0079971
0.012781
0.011824
0.02458
0.028407
0.017883
0.017246
0.0038513
0.0025757
-0.0066727
-0.0069916
-0.035056
-0.034737
-0.022299
-0.017197
-0.021661
-0.018791
-0.024532
-0.03952
-0.038564
-0.022618
-0.029953
-0.040158
-0.024213
-0.032823
-0.034099
-0.015921
-0.0028458
-0.0028458
0.0032135
0.063806
0.085811
0.056153
0.053282
0.029045
0.020754
0.034148
0.040207
0.033829
0.0051269
-0.014327
-0.034099
-0.035375
-0.029315
-0.065352
-0.070455
-0.044304
-0.029315
-0.040477
-0.030591
-0.0098618
0.0032135
0.0038513
0.011186
0.027451
0.02171
-0.0044404
-0.009224
0.0032135
0.018521
0.011186
0.016927
0.032234
0.028088
0.034467
0.060936
0.067952
0.046266
0.078795
0.081028
0.078476
0.096654
0.073374
0.035104
0.029045
0.02458
0.04818
0.059342
0.017246
-0.0085862
-0.024851
-0.0060349
-0.012413
-0.024532
-0.01337
-0.031229
-0.04845
-0.050044
-0.070774
-0.085443
-0.082892
-0.084806
-0.061206
-0.064077
-0.057379
-0.059293
-0.052277
-0.038883
-0.03378
-0.028996
-0.012094
-0.01624
-0.011137
0.015651
0.0028946
-0.011775
-0.023894
-0.022618
0.010548
0.05105
0.016608
-0.002208
0.0057648
0.028088
0.051369
0.04818
0.044034
0.044034
0.032234
0.030321
0.023624
0.012462
-0.009224
-0.028678
-0.032823
-0.031229
-0.028678
-0.027402
-0.039839
-0.041434
-0.035056
-0.021024
0.0019378
0.023305
0.027132
0.026494
0.028088
0.059342
0.079433
0.052645
0.025218
0.029045
0.031915
0.024262
0.022348
0.004808
-0.00061343
0.018521
0.021391
0.011824
0.0092728
-0.0034836
-0.028996
-0.029953
-0.035694
-0.043985
-0.049726
-0.056423
-0.048769
-0.031229
-0.026445
-0.036331
-0.034737
-0.023575
-0.0050782
0.017883
0.046585
0.050412
0.047542
0.055515
0.069547
0.061893
0.05105
0.064763
0.064125
0.075287
0.074012
0.085173
0.057747
0.032872
0.046585
0.064444
0.065401
0.036061
0.02458
0.0044891
-0.011456
-0.020705
-0.036012
-0.043985
-0.069498
-0.085762
-0.076514
-0.078109
-0.086081
-0.095011
-0.073006
-0.056742
-0.034737
-0.028996
-0.038245
-0.044623
-0.041434
-0.029315
-0.042072
-0.046218
-0.045261
-0.058974
-0.057379
-0.021661
-0.028996
-0.069817
-0.069817
-0.059612
-0.049088
-0.035056
-0.029634
-0.029315
-0.034737
-0.036012
-0.039839
-0.062482
-0.055466
-0.085443
-0.063439
-0.047174
-0.054509
-0.053234
-0.06312
-0.065352
-0.024851
0.047542
0.080071
0.061255
0.057109
0.049774
0.059979
0.063806
0.072417
0.069866
0.052007
0.054239
0.046585
0.020435
0.0095917
-0.0073105
-0.021024
-0.034418
-0.014645
-0.02517
-0.037607
-0.047174
-0.0105
-0.01624
-0.046536
-0.035056
-0.043028
-0.050363
-0.043028
-0.029315
-0.027083
-0.033461
-0.028678
-0.01337
0.011824
0.014375
0.01023
0.017246
0.0095917
0.0057648
0.014694
0.0131
-0.009224
-0.028678
-0.0076295
0.0013
0.01023
0.0013
-0.017197
-0.036331
-0.028996
-0.017197
-0.0076295
-0.0047593
-0.012413
-0.025488
-0.016878
-0.032186
-0.053871
-0.060887
-0.063758
-0.087676
-0.06599
-0.050682
-0.060569
-0.069179
-0.052596
-0.03952
-0.029953
-0.019748
-0.0095429
-0.0018891
0.0054459
0.033191
0.082941
0.093146
0.099843
0.052007
0.080709
0.10782
0.13301
0.14353
0.13556
0.15055
0.14034
0.13971
0.11388
0.083898
0.12504
0.13907
0.089
0.035423
0.0019378
-0.011456
-0.017835
-0.017835
-0.022937
-0.019429
-0.017516
0.014056
0.021391
-0.020705
-0.00061343
0.017883
0.0019378
-0.0079484
0.0019378
0.017883
0.016927
-0.014645
-0.047493
-0.036331
-0.029634
-0.031548
-0.052277
-0.046218
-0.045899
-0.050363
-0.0085862
0.036699
0.025218
-0.0041214
-0.014008
-0.043347
-0.046855
-0.020705
-0.0015702
-0.049726
-0.054509
-0.041115
-0.051639
-0.073006
-0.087357
-0.0864
-0.065352
-0.046536
-0.03665
-0.039839
-0.035694
-0.031548
-0.025488
-0.031229
-0.034737
-0.037607
-0.03378
-0.022618
-0.0085862
-0.01337
-0.028359
-0.018791
-0.014327
-0.0066727
0.0076782
0.012781
-0.0073105
2.4388e-05
0.038294
0.032872
0.0070404
-0.011456
-0.01624
-0.013051
-0.005716
0.004808
0.022348
0.023943
0.03925
0.038612
0.084217
0.11388
0.17192
0.16681
0.15438
0.17574
0.17383
0.17511
0.19169
0.18914
0.19584
0.17766
0.16044
0.10016
0.087087
0.087406
0.07146
0.072417
0.030321
-0.028678
-0.076195
-0.097562
-0.096286
-0.084168
-0.091503
-0.10043
-0.12403
-0.12339
-0.11925
-0.11702
-0.1285
-0.11957
-0.10043
-0.07173
-0.060569
-0.050044
-0.058336
-0.072687
-0.080979
-0.085125
-0.096924
-0.094054
-0.10553
-0.10617
-0.097243
-0.10362
-0.10904
-0.10649
-0.095649
-0.070136
-0.0060349
0.022029
0.0051269
-0.016559
-0.010819
0.0076782
0.019159
0.034467
0.016289
0.0131
-0.0015702
-0.0066727
-0.0082673
-0.029315
-0.038883
-0.038564
-0.017197
-0.030591
-0.015921
-0.0044404
0.0092728
0.0028946
0.0044891
0.017564
0.017883
0.0019378
-0.0025269
0.038612
0.07146
0.09506
0.1008
0.09187
0.11356
0.11898
0.09793
0.10271
0.11164
0.088362
0.08613
0.078157
0.054239
0.016289
-0.0050782
-0.044942
-0.028359
-0.034099
-0.057698
-0.093735
-0.10298
-0.10649
-0.095011
-0.086081
-0.078109
-0.061206
-0.02804
0.016289
0.043077
0.074012
0.12057
0.10558
0.12153
0.14481
0.15055
0.14672
0.22007
0.21688
0.21401
0.20859
0.17383
0.14066
0.11515
0.096335
0.07433
0.046585
0.043077
0.065401
-0.014645
-0.043347
-0.035694
-0.058336
-0.078109
-0.044942
-0.034737
-0.035056
-0.046218
-0.061844
-0.10075
-0.11925
-0.12212
-0.1167
-0.1438
-0.17857
-0.18526
-0.19196
-0.17538
-0.17506
-0.18494
-0.17729
-0.15943
-0.14285
-0.1218
-0.10171
-0.090227
-0.0864
-0.077152
-0.063758
-0.062163
-0.061525
-0.04271
0.056153
0.15087
0.12312
0.10654
0.10813
0.14034
0.23793
0.26472
0.24335
0.26759
0.27461
0.22135
0.16841
0.13492
0.13301
0.11802
0.075606
0.0019378
-0.069498
0.069547
0.1429
0.060936
-0.03665
-0.10362
-0.090227
-0.03378
0.044353
0.055834
0.066358
0.020754
0.013419
-0.018153
-0.058336
-0.052277
-0.083211
-0.098519
-0.1202
-0.063758
-0.037288
0.059023
0.097292
0.10271
0.15087
0.14864
0.14034
0.15151
0.16331
0.18053
0.18085
0.17606
0.12504
0.13014
0.084217
0.021391
-0.035375
-0.12116
-0.13679
-0.12467
-0.14508
-0.15815
-0.18973
-0.22257
-0.20567
-0.19292
-0.19451
-0.20376
-0.19802
-0.17984
-0.15241
-0.12722
-0.095968
-0.10872
-0.091503
-0.057698
-0.03952
-0.016878
-0.0060349
-0.005716
2.4388e-05
0.014694
0.020435
0.017246
0.004808
-0.0073105
-0.0098618
-0.00061343
-0.011456
-0.024851
-0.015921
0.011505
0.01884
0.072417
0.14896
0.16107
0.11643
0.08613
0.10335
0.13907
0.13907
0.19009
0.23028
0.18563
0.18148
0.1228
0.068909
0.044672
0.06859
0.059342
0.066995
0.026813
0.0041702
-0.056742
-0.098838
-0.11765
-0.15114
-0.16198
-0.17825
-0.18207
-0.17187
-0.18399
-0.18526
-0.19961
-0.21683
-0.18431
-0.13647
-0.092141
-0.084487
-0.10522
-0.082254
-0.063758
-0.030591
-0.014645
-0.022299
-0.022618
-0.00093234
0.010867
-0.005716
-0.031867
-0.015283
-0.011456
-0.010181
-0.002208
-0.0041214
-0.034099
-0.029634
-0.02517
-0.0012513
0.0019378
-0.0012513
0.051369
0.066358
0.07146
0.064125
0.053282
0.055834
0.078157
0.084854
0.10431
0.094741
0.081028
-0.0079484
-0.038245
-0.031229
-0.052915
-0.050682
-0.03952
-0.1167
-0.16581
-0.12595
-0.099794
-0.080022
-0.071093
-0.058017
-0.042072
-0.040796
-0.010819
-0.0050782
-0.012732
0.0044891
0.01884
-0.0066727
-0.040158
-0.060887
-0.099157
-0.10362
-0.084487
-0.0864
-0.097881
-0.10745
-0.10266
-0.097562
-0.095968
-0.077152
-0.067903
-0.058655
-0.051958
-0.041434
-0.043985
-0.048769
-0.02804
-0.032823
-0.022618
-0.0012513
0.014056
-0.00029452
0.029683
0.13907
0.21178
0.2172
0.19998
0.18563
0.15087
0.15852
0.16044
0.17702
0.19424
0.1582
0.10495
0.069228
0.05392
0.0067215
-0.029634
-0.034737
-0.068222
-0.061844
-0.084806
-0.10426
-0.14667
-0.11128
-0.071093
-0.06312
-0.056742
-0.090546
-0.11351
-0.11638
-0.1202
-0.084806
-0.06312
-0.064714
-0.099794
-0.084168
-0.05132
-0.053871
-0.011775
-0.0073105
-0.014327
-0.024213
-0.037288
-0.04845
-0.055147
-0.058655
-0.03665
-0.028678
-0.026126
-0.022937
-0.031867
-0.043985
-0.01337
0.10877
0.20253
0.14736
0.099843
0.10813
0.15852
0.19743
0.22071
0.21752
0.20094
0.21529
0.2593
0.23889
0.17893
0.14417
0.1008
0.066677
0.048818
0.023943
-0.009224
-0.071093
-0.13647
-0.099794
-0.12722
-0.16995
-0.21078
-0.24522
-0.2264
-0.21524
-0.19738
-0.2146
-0.1859
-0.15943
-0.088314
-0.052915
-0.083849
-0.096924
-0.084806
-0.06312
0.025537
0.0041702
-0.0089051
0.01884
0.084854
0.028088
-0.028678
-0.019429
0.012143
0.054558
0.023624
0.067952
0.080071
0.20955
0.28258
0.17192
0.14704
0.13173
0.11579
0.11515
0.13811
0.14066
0.1665
0.15055
0.10335
0.011186
-0.042391
-0.054828
0.01884
0.056153
0.06285
0.013419
-0.028996
-0.072368
0.015013
0.035742
0.063806
0.078476
0.13652
0.082622
0.0099106
0.010867
0.026175
0.026175
-0.028996
-0.069498
-0.081935
-0.089908
-0.1674
-0.18622
-0.20822
-0.22672
-0.25319
-0.20153
-0.16995
-0.17091
-0.17825
-0.17697
-0.11989
-0.1049
-0.11415
-0.094054
-0.061844
-0.04271
-0.064395
-0.084806
-0.12148
-0.11
-0.10266
-0.10777
-0.12435
-0.1167
-0.095011
-0.031867
-0.03091
-0.067266
0.017246
0.078795
0.080071
0.1531
0.23219
0.27556
0.34285
0.29884
0.26249
0.27716
0.35433
0.30809
0.29119
0.28736
0.31256
0.27875
0.21784
0.15693
0.10144
0.11738
0.090276
0.038612
-0.077152
-0.10266
-0.11574
-0.1674
-0.17857
-0.20185
-0.18303
-0.1926
-0.2146
-0.24617
-0.26914
-0.21269
-0.16039
-0.12052
-0.12307
-0.075238
0.094422
0.10239
0.077201
0.037018
0.032872
0.0089539
0.0089539
0.024262
0.0076782
-0.015283
0.022348
-0.057061
-0.12913
-0.17825
-0.13487
-0.15624
-0.14763
-0.11191
-0.14731
-0.18973
-0.20025
-0.1808
-0.21269
-0.13679
-0.082573
-0.064077
-0.061525
-0.073644
-0.10107
-0.082892
-0.067903
-0.052915
-0.037607
-0.053234
-0.078109
-0.067585
-0.073006
-0.097243
-0.12467
-0.10904
-0.058336
-0.038883
-0.064714
-0.096924
-0.10553
-0.087676
-0.067585
-0.038245
-0.029315
-0.027083
-0.035694
-0.03091
-0.028678
-0.031229
-0.030591
-0.031548
-0.031548
-0.014964
-0.0082673
0.0022568
0.0019378
0.027451
0.067314
0.11037
0.16331
0.12759
0.11611
0.12408
0.16586
0.25037
0.34859
0.2711
0.22581
0.18372
0.21625
0.16586
0.094422
0.13747
0.21529
0.22996
0.1429
0.053601
-0.009224
-0.03952
-0.00093234
0.0057648
-0.02517
-0.069179
-0.11638
-0.057061
-0.13647
-0.12913
-0.075557
-0.13169
-0.14859
-0.11096
-0.095011
-0.094692
-0.090865
-0.10904
-0.1218
-0.08353
-0.032186
-0.057698
-0.056742
-0.055147
-0.037288
-0.073963
-0.072687
-0.067266
-0.068222
-0.037288
-0.06025
-0.0050782
0.022029
0.037975
-0.0041214
-0.048131
-0.052915
0.060617
0.10431
0.092189
0.081346
0.051369
0.05679
0.06572
0.16203
0.17351
0.19743
0.22964
0.1582
0.14321
0.17192
0.11579
0.076244
0.091233
0.082303
0.078476
0.15788
0.11611
0.082622
0.20508
0.070503
-0.049407
0.010548
0.087406
0.069866
0.03638
0.035742
-0.010819
0.026494
0.01597
-0.058974
-0.10043
-0.1285
-0.039202
-0.021024
-0.059931
-0.061206
-0.08353
-0.08927
-0.038883
-0.015921
-0.01624
0.031278
-0.0031647
-0.088314
-0.10075
-0.070136
-0.075876
-0.10777
-0.21078
-0.27041
-0.22513
-0.20344
-0.20918
-0.23055
-0.2079
-0.20695
-0.18909
-0.1572
-0.12977
-0.1285
-0.10809
-0.061525
-0.03665
-0.030272
-0.044942
-0.04558
-0.011775
0.012781
0.028088
0.015332
0.069228
0.088681
0.096335
0.090276
0.093465
0.10048
0.098886
0.14385
0.15757
0.15597
0.13747
0.14353
0.13492
0.14226
0.14003
0.1126
0.092189
0.084536
0.10367
0.1059
0.18691
0.27174
0.17479
0.08613
0.050093
0.10399
0.036699
0.026813
0.031596
0.0089539
0.0016189
-0.013051
-0.087038
-0.091503
-0.09246
-0.10362
-0.1202
-0.1151
-0.10298
-0.10426
-0.11383
-0.10171
-0.087676
-0.089589
-0.093735
-0.08353
-0.075557
-0.051958
-0.038245
-0.03378
2.4388e-05
-0.01337
-0.020067
0.0041702
0.010548
0.022348
0.081665
0.14098
0.16267
0.11069
0.09187
0.037337
0.017883
0.045947
0.083579
0.077201
0.050412
0.031915
0.037656
0.01884
-0.022299
-0.005716
-0.031548
-0.053552
-0.080022
-0.069179
-0.064395
-0.092141
-0.094054
-0.10617
-0.083849
-0.039839
-0.049088
-0.091822
-0.10841
-0.095968
-0.077152
-0.045899
-0.06886
-0.10841
-0.10458
-0.095968
-0.069817
-0.088633
-0.11446
-0.10649
-0.094692
-0.067903
-0.03952
-0.046855
-0.016559
-0.00093234
-0.0050782
0.019797
0.098249
0.18021
0.16681
0.14927
0.13205
0.17574
0.14098
0.12759
0.15119
0.20668
0.21178
0.22422
0.18308
0.12727
0.13078
0.20668
0.17542
0.15788
0.16363
0.16012
0.082622
0.048818
0.0095917
-0.013689
-0.036012
-0.06025
-0.084168
-0.091184
-0.1521
-0.17059
-0.22002
-0.18016
-0.18271
-0.20376
-0.17059
-0.16581
-0.18016
-0.18239
-0.17346
-0.17219
-0.17123
-0.169
-0.16645
-0.14699
-0.1336
-0.13264
-0.13519
-0.12307
-0.10522
-0.081935
-0.055466
-0.050682
-0.050044
-0.050682
-0.031867
-0.027721
-0.022299
-0.026764
-0.021024
-0.012413
0.008635
0.0092728
0.008316
0.008635
0.01884
0.026175
0.038612
0.072736
0.1008
0.13173
0.16618
0.23379
0.27333
0.28417
0.26153
0.20955
0.22294
0.25356
0.27971
0.28194
0.29151
0.21274
0.21656
0.18212
0.12217
0.073693
0.10016
0.035104
-0.035694
-0.11191
-0.14317
-0.13232
-0.15146
-0.15911
-0.18941
-0.20854
-0.20089
-0.18718
-0.20503
-0.22544
-0.19674
-0.17091
-0.17442
-0.17761
-0.16071
-0.14923
-0.14986
-0.13647
-0.091822
-0.086719
-0.052915
-0.066309
-0.078427
-0.074282
-0.059293
-0.011775
0.013738
0.034467
-0.00093234
-0.0073105
0.010867
0.030321
0.016927
-0.0025269
-0.017516
-0.022299
-0.0095429
0.022986
0.024262
0.012781
0.017246
0.027132
0.048818
0.058704
0.064444
0.10303
0.13556
0.12249
0.14321
0.20891
0.19392
0.17925
0.16841
0.17287
0.18372
0.1834
0.17096
0.12855
0.12759
0.14545
0.11675
0.039569
0.0079971
0.0028946
-0.022937
-0.082573
-0.10777
-0.11255
-0.093097
-0.088952
2.4388e-05
-0.01624
-0.041115
-0.060569
-0.058974
-0.053871
-0.042072
-0.0041214
0.02171
0.025218
-0.0041214
-0.060569
-0.11893
-0.097881
-0.094692
-0.13328
-0.13806
-0.1202
-0.12563
-0.14954
-0.1521
-0.12977
-0.10777
-0.069498
-0.047812
-0.053552
-0.037288
-0.022618
-0.020067
-0.025488
-0.033142
-0.036969
-0.038245
-0.019748
-0.009224
-0.017516
-0.025807
-0.0076295
0.014694
0.0051269
0.022986
0.023624
0.053601
0.052963
0.047223
0.045947
0.053282
0.052007
0.025218
0.043396
0.078795
0.10367
0.13907
0.17574
0.21369
0.25611
0.27652
0.26217
0.22741
0.23315
0.21943
0.25388
0.26217
0.28322
0.26344
0.18659
0.11962
0.1531
0.22007
0.12408
0.040845
-0.041115
-0.061525
-0.069817
-0.038883
-0.050363
-0.10043
-0.17857
-0.18462
-0.19196
-0.21301
-0.22672
-0.25893
-0.24203
-0.25064
-0.25893
-0.25351
-0.22002
-0.19706
-0.18271
-0.15241
-0.13328
-0.12977
-0.12307
-0.10681
-0.11096
-0.11606
-0.11159
-0.10585
-0.089589
-0.063439
-0.062163
-0.067903
-0.065352
-0.050363
-0.019748
-0.0050782
0.010548
0.020435
0.027451
0.055515
0.035742
0.020754
0.019478
0.016927
0.02171
0.023305
0.037018
0.052645
0.044991
0.084217
0.10877
0.10335
0.096335
0.10271
0.093784
0.097292
0.16681
0.19009
0.13843
0.10813
0.11611
0.09187
0.067314
0.064763
0.079752
0.088681
0.12472
0.093784
0.081346
0.10495
0.12185
0.073055
0.061574
0.050093
0.0099106
-0.012094
-0.014964
-0.026764
-0.055147
-0.035056
-0.023894
-0.07779
-0.11415
-0.12403
-0.13487
-0.13519
-0.11702
-0.10075
-0.10266
-0.078746
-0.090865
-0.11096
-0.11064
-0.11765
-0.12754
-0.13774
-0.10011
-0.11128
-0.10745
-0.093416
-0.088314
-0.073325
-0.058655
-0.049088
-0.052277
-0.040796
-0.028996
-0.030591
-0.044304
-0.05132
-0.057379
-0.061844
-0.056742
-0.056742
-0.058974
-0.058974
-0.041434
-0.030591
2.4388e-05
0.01023
0.024899
0.023305
0.037656
0.067952
0.12631
0.23219
0.25101
0.26408
0.27205
0.26376
0.25101
0.2408
0.25196
0.28864
0.30809
0.30203
0.28928
0.17989
0.097611
0.10431
0.081665
0.032872
-0.032504
-0.092141
-0.12339
-0.12052
-0.12563
-0.13551
-0.14763
-0.1505
-0.15752
-0.14285
-0.11446
-0.064714
-0.034099
-0.065352
-0.065671
-0.058336
-0.066628
-0.067903
-0.071411
-0.068541
-0.050363
-0.041753
-0.051001
-0.079703
-0.10011
-0.053871
-0.045899
-0.050363
-0.034099
-0.029953
-0.032504
-0.010819
-0.0069916
-0.0050782
-0.024851
-0.017835
-0.010181
0.022029
0.035104
0.019797
-0.01337
-0.015921
0.02171
0.022667
0.016289
0.025856
0.049137
0.044034
0.028088
0.022986
0.059023
0.049774
0.0095917
0.044353
0.088681
0.11962
0.09506
0.093146
0.13269
0.14736
0.1346
0.11451
0.10208
0.10271
0.12185
0.11547
0.051688
0.031278
0.0022568
-0.01911
-0.044623
-0.014327
-0.00029452
-0.0063538
-0.03952
-0.024851
-0.02517
-0.033461
-0.013051
-0.017835
0.0089539
0.026175
0.02458
-0.02198
-0.034099
-0.046855
-0.042072
-0.044304
-0.065352
-0.084487
-0.087038
-0.070774
-0.052277
-0.06886
-0.064395
-0.076833
-0.09533
-0.090227
-0.074919
-0.079384
-0.085443
-0.084487
-0.093735
-0.080341
-0.034418
-0.036331
-0.052596
-0.045261
-0.031229
-0.019429
0.0057648
0.029364
0.042758
0.027451
0.034467
0.043396
0.028088
0.019159
0.038612
0.021391
0.021072
0.0131
-0.00093234
0.014056
0.016927
0.026175
0.064763
0.06859
0.073055
0.058704
0.075606
0.11483
0.15119
0.13684
0.12855
0.10622
0.087406
0.086449
0.10654
0.087087
0.093465
0.094741
0.096973
0.059979
0.042121
0.034786
-0.0085862
-0.015283
-0.0034836
-0.034418
-0.04845
-0.075557
-0.059293
-0.061206
-0.058974
-0.067903
-0.095649
-0.09533
-0.058336
-0.039839
-0.050044
-0.036012
-0.043985
-0.04271
-0.053871
-0.046536
-0.057379
-0.07173
-0.062801
-0.060887
-0.057379
-0.08066
-0.061206
-0.06886
-0.059612
-0.054509
-0.055785
-0.045261
-0.039839
-0.051958
-0.055466
-0.047174
-0.050363
-0.052915
-0.075238
-0.088952
-0.073325
-0.044942
-0.043985
-0.016878
0.0044891
0.0092728
0.034786
0.035742
0.055834
0.060936
0.069228
0.090595
0.10782
0.09793
0.09506
0.058704
0.029045
0.024899
0.03638
0.025218
0.018521
0.022029
0.013419
-0.0025269
-0.0028458
-0.014008
-0.022299
-0.036969
-0.024213
-0.017516
-0.022618
-0.038564
-0.062801
-0.081617
-0.061844
-0.046218
-0.034418
0.0003433
-0.005716
0.0057648
0.012143
0.037975
0.052326
0.045947
0.05105
0.068909
0.098568
0.061255
0.0028946
-0.0047593
0.0003433
0.026175
0.01023
-0.034737
-0.053552
-0.062163
-0.040796
-0.038245
-0.051001
-0.076195
-0.063439
-0.063439
-0.068222
-0.075876
-0.087676
-0.091822
-0.088633
-0.075876
-0.085762
-0.090546
-0.054509
-0.066947
-0.060887
-0.038883
0.023943
0.060936
0.039888
0.026494
0.019797
0.041802
0.040845
0.037337
0.050731
0.043715
0.053601
0.020116
2.4388e-05
0.015013
0.037337
0.0032135
0.012143
0.015013
0.016608
-0.00093234
-0.0105
-0.0095429
-0.022618
-0.02517
-0.049726
-0.051001
-0.045899
-0.027083
-0.02517
-0.03665
-0.038883
-0.026445
-0.014327
0.0028946
0.042439
0.04818
0.09187
0.099524
0.087406
0.093465
0.077838
0.098886
0.088362
0.13014
0.12376
0.072098
0.054239
0.053282
0.040207
0.037337
0.038612
0.0054459
-0.034418
-0.053234
-0.065352
-0.060887
-0.082573
-0.10139
-0.12754
-0.12307
-0.10841
-0.10872
-0.10841
-0.10203
-0.099157
-0.080979
-0.067266
-0.045899
-0.057379
-0.058974
-0.04558
-0.032186
-0.0089051
-0.043985
-0.066947
-0.050363
-0.032504
-0.01337
-0.005716
-0.0047593
-0.0095429
-0.009224
0.0067215
0.022986
0.032872
0.031278
0.026494
0.032872
0.066995
0.040207
0.0028946
-0.005716
0.0092728
0.030002
0.068909
0.061255
0.022029
0.026175
0.042758
0.064763
0.084854
0.086449
0.071141
0.054558
0.04818
0.038294
0.016289
0.044034
0.034467
0.020754
2.4388e-05
-0.015921
-0.034099
-0.044623
-0.0018891
0.020754
0.054877
0.063487
0.045629
0.013419
0.026175
0.058066
0.066677
0.042121
0.020754
-0.005716
-0.0031647
-0.00029452
-0.02198
-0.019748
-0.013689
-0.0063538
-0.036012
-0.042391
-0.044623
-0.051639
-0.064077
-0.053871
-0.057379
-0.059612
-0.067266
-0.10298
-0.10872
-0.089908
-0.070136
-0.055466
-0.065671
-0.067903
-0.056742
-0.05419
-0.037607
-0.019748
-0.020067
-0.025488
-0.015602
-0.011137
-0.024213
-0.035375
-0.045261
-0.04271
-0.022937
-0.021343
-0.032186
-0.028996
-0.019429
-0.014645
-0.014008
0.0057648
0.015013
0.011186
0.017564
0.06285
0.082941
0.066995
0.058704
0.052007
0.058704
0.086449
0.084536
0.072417
0.071779
0.084536
0.080709
0.084536
0.065082
0.056471
0.086768
0.06285
0.060617
0.052007
0.046904
0.028726
-0.002208
0.0089539
0.02171
0.023305
0.019797
0.01597
0.037656
0.027132
0.042758
0.013738
0.0003433
-0.024213
-0.022937
-0.028678
-0.046855
-0.053552
-0.081298
-0.1049
-0.074282
-0.061844
-0.081935
-0.10777
-0.088633
-0.065033
-0.055147
-0.05132
-0.059293
-0.060887
-0.051958
-0.036012
-0.027083
-0.037288
-0.0098618
-0.01624
-0.035056
-0.01337
0.0054459
-0.00061343
-0.0082673
0.0089539
0.030321
0.046585
0.051369
0.053601
0.046266
0.022986
0.030002
0.037656
0.035742
0.024899
0.017883
0.020116
0.025218
0.02458
0.011505
0.017246
0.022029
0.021072
0.024262
0.016608
0.004808
-0.0089051
-0.021343
-0.031867
-0.03665
-0.065352
-0.095011
-0.098838
-0.08066
-0.075557
-0.079703
-0.078746
-0.063439
-0.044623
-0.023575
-0.0089051
-0.0053971
0.014056
0.035742
0.026175
0.046904
0.063806
0.044353
0.01884
0.011505
0.043396
0.045947
0.049774
0.014694
0.012462
0.026494
0.028726
0.0092728
0.0044891
2.4388e-05
-0.013051
-0.025488
-0.038564
-0.065033
-0.074919
-0.077152
-0.06025
-0.052596
-0.040158
-0.050363
-0.051639
-0.031548
-0.021343
-0.014327
2.4388e-05
0.0131
0.027132
0.038612
0.038612
0.0028946
-0.017197
0.020435
0.011505
0.03638
0.088681
0.07146
0.037337
0.060617
0.07433
0.089
0.11324
0.11547
0.091233
0.084536
0.081984
0.069547
0.053601
0.024899
0.027132
0.0025757
-0.014327
-0.029953
-0.06599
-0.087038
-0.062482
-0.0044404
0.021391
0.010548
0.00098112
-0.0079484
0.012781
0.018521
0.0060837
0.004808
0.022029
-0.0098618
0.0054459
0.0013
0.0089539
-0.015921
-0.06025
-0.054828
-0.028678
-0.033461
-0.041434
-0.06312
-0.078109
-0.074282
-0.072049
-0.08066
-0.093416
-0.10649
-0.10298
-0.072049
-0.053234
-0.067903
-0.078427
-0.067903
-0.052915
-0.026126
-0.005716
-0.002208
-0.005716
-0.0038025
0.0057648
0.0003433
-0.0089051
-0.019748
-0.029953
-0.0031647
0.018202
0.0095917
-0.014008
-0.018153
-0.0018891
0.020435
0.034467
0.056471
0.038612
0.016289
0.026175
0.031596
0.0073593
0.015332
0.0070404
0.0019378
0.019159
0.0057648
0.0044891
-0.020067
-0.018153
-0.022937
-0.017516
-0.00061343
0.0057648
0.0016189
-0.005716
0.026175
0.021391
-0.0038025
-0.026126
-0.015602
-0.013689
0.022029
0.040207
0.062531
0.093146
0.10973
0.10335
0.1059
0.10271
0.17734
0.19265
0.1767
0.1531
0.13492
0.13652
0.15119
0.12249
0.1177
0.11483
0.1228
0.067633
0.014694
-0.00029452
0.013738
0.046904
0.029364
-0.038245
-0.063758
-0.12435
-0.079703
-0.044304
-0.055147
-0.11574
-0.13838
-0.13073
-0.10777
-0.088633
-0.11159
-0.13169
-0.084168
-0.058655
-0.058336
-0.055785
0.019478
0.10813
0.10877
0.10016
0.10718
0.1008
0.075287
0.08613
0.11324
0.10782
0.13173
0.10877
0.10399
0.072098
0.024899
-0.010819
-0.028359
-0.049088
-0.094373
-0.13009
-0.15592
-0.1623
-0.17282
-0.18622
-0.18845
-0.16485
-0.15273
-0.15273
-0.12754
-0.098838
-0.081935
-0.061525
-0.039202
-0.028678
-0.023575
0.035104
0.052326
0.037018
0.042758
0.014056
0.039569
0.030002
0.054877
0.063487
0.017246
0.045947
0.062212
0.083898
0.07433
0.075925
0.037656
0.0076782
0.032553
0.047861
0.02777
-0.029315
-0.050363
-0.063758
-0.056104
-0.051639
0.034786
0.11356
0.13939
0.085173
0.16076
0.18467
0.13142
0.14609
0.16713
0.18435
0.21497
0.207
0.17702
0.13524
0.099524
0.10112
0.0095917
-0.026126
-0.074919
-0.097562
-0.12563
-0.13328
-0.093735
-0.012413
0.229
0.28385
0.15151
0.11069
0.053282
0.016927
0.046266
0.16267
0.27429
0.27875
0.288
0.19647
0.10495
-0.012094
0.0035324
0.0022568
-0.055785
0.060617
0.0057648
-0.065033
-0.12084
-0.13679
-0.19706
-0.20121
-0.14954
-0.17187
-0.14093
-0.19515
-0.26148
-0.26563
-0.28062
-0.25574
-0.26595
-0.27838
-0.24458
-0.24554
-0.25351
-0.26116
-0.22066
-0.17825
-0.13009
-0.086719
-0.069498
-0.10394
-0.099794
-0.080022
-0.018472
0.050093
0.048499
0.028407
-0.020386
-0.055466
0.01023
0.052645
0.16171
0.39196
0.21306
0.097292
0.099205
0.18308
0.29916
0.34477
0.38431
0.4567
0.48732
0.49848
0.40408
0.37251
0.37283
0.46818
0.33966
0.19871
0.21338
0.19488
0.14991
0.042439
-0.085125
-0.091822
-0.10649
-0.017516
-0.11925
-0.21939
-0.2634
-0.29561
-0.28859
-0.31952
-0.31602
-0.32271
-0.25478
-0.060887
-0.067585
-0.19324
-0.22768
-0.17251
-0.025488
0.19775
0.3301
0.2711
0.25643
0.22581
0.1834
0.2003
0.26281
0.29278
0.23889
0.23315
0.098568
0.0003433
-0.099476
-0.094054
-0.15879
-0.27137
-0.34854
-0.38139
-0.39542
-0.42317
-0.46686
-0.53128
-0.51757
-0.5013
-0.49556
-0.47515
-0.44613
-0.3967
-0.35333
-0.26914
-0.22226
-0.1792
-0.073963
0.058066
0.15597
0.34062
0.39037
0.45957
0.48955
0.43725
0.42258
0.4752
0.5629
0.5444
0.50326
0.52463
0.41684
0.33105
0.26408
0.10208
0.042121
0.078476
-0.036331
-0.17697
-0.17123
-0.065671
-0.093416
-0.086719
-0.059931
-0.16836
-0.21237
-0.12882
-0.077471
-0.041115
-0.030591
0.012143
-0.0044404
-0.072687
-0.11638
-0.03091
-0.10266
-0.13711
-0.11478
-0.1336
-0.18271
-0.25191
-0.34854
-0.42221
-0.3916
-0.29401
-0.23469
-0.31315
-0.24745
-0.1454
-0.17506
-0.22353
-0.23884
-0.17857
-0.07779
-0.017197
-0.031548
-0.014008
-0.040796
-0.036012
-0.013051
-0.0047593
-0.014645
-0.01337
-0.0031647
-0.11733
-0.16326
-0.12945
-0.12212
-0.15433
-0.14317
-0.13806
-0.12882
-0.061844
-0.093735
0.0095917
0.046266
0.19392
0.2105
0.11419
0.12153
0.23825
0.26153
0.32659
0.31288
0.33743
0.26025
0.18659
0.085492
0.061574
0.046266
-0.023256
-0.072049
-0.1336
-0.14572
-0.18431
-0.21078
-0.20918
-0.22002
-0.11096
-0.033142
0.02171
0.12217
0.11547
0.13652
0.17702
0.13716
0.13333
0.21848
0.24048
0.27269
0.32308
0.2577
0.24399
0.23825
0.2459
0.15214
0.16267
0.22486
0.30682
0.37124
0.2644
0.19041
0.27811
0.22135
0.22007
0.27748
0.20827
0.17798
0.13811
-0.022618
-0.11287
-0.074919
-0.12977
-0.132
-0.18431
-0.32367
-0.44007
-0.48408
-0.5064
-0.49652
-0.49811
-0.4793
-0.42413
-0.38873
-0.40116
-0.39702
-0.37087
-0.31729
-0.25702
-0.23246
-0.17474
-0.14221
-0.11989
-0.091184
-0.062482
-0.023575
-0.022299
0.0025757
0.044034
0.11738
0.23984
0.2459
0.24686
0.33073
0.35561
0.4347
0.51985
0.47775
0.428
0.44554
0.38782
0.39611
0.38654
0.31989
0.26089
0.11962
0.01597
-0.0044404
-0.059293
-0.097243
-0.11765
-0.16964
-0.19579
-0.25064
-0.21556
-0.016878
-0.046855
-0.081935
-0.087038
-0.093097
-0.10075
-0.035056
-0.072049
0.0044891
0.00098112
-0.035056
-0.1218
-0.15688
-0.12626
-0.18654
-0.26722
-0.29879
-0.35078
-0.35428
-0.34918
-0.38171
-0.41711
-0.44804
-0.46367
-0.43274
-0.3967
-0.39255
-0.39223
-0.35078
-0.32654
-0.2787
-0.23406
-0.17219
-0.13073
-0.10777
-0.044623
0.046904
0.09793
0.20253
0.15087
0.1547
0.14864
0.16777
0.24654
0.23953
0.28481
0.29246
0.42258
0.45957
0.2931
0.20827
0.25994
0.36071
0.26504
0.18563
0.22294
0.23251
0.30554
0.27333
0.20445
0.17383
0.094103
0.10909
-0.041434
-0.067585
0.14321
0.1582
0.18786
0.059661
0.13843
-0.013689
-0.062163
-0.042072
-0.041753
-0.032823
-0.1454
-0.22385
-0.17601
-0.18845
-0.19292
-0.3428
-0.41839
-0.39638
-0.45634
-0.48089
-0.49014
-0.47483
-0.48855
-0.50736
-0.51406
-0.49684
-0.43784
-0.39064
-0.32463
-0.331
-0.29369
-0.2331
-0.19706
-0.15847
-0.14923
-0.10362
-0.075557
-0.040158
-0.034099
-0.03091
-0.041753
-0.033142
-0.0089051
0.11834
0.2931
0.33584
0.35274
0.31096
0.4162
0.41174
0.49625
0.50837
0.5342
0.64996
0.52814
0.46372
0.46723
0.47839
0.47711
0.42449
0.21401
0.070822
0.0051269
0.023943
0.05105
0.031278
-0.14859
-0.21556
-0.24043
-0.28572
-0.33611
-0.37725
-0.33196
-0.3326
-0.38649
-0.37406
-0.37342
-0.3731
-0.34217
-0.35843
-0.32973
-0.28699
-0.26914
-0.22768
-0.028996
-0.031548
-0.066628
-0.057698
-0.048769
-0.022937
-0.022618
0.066995
0.049774
0.064763
0.070503
0.004808
-0.031548
0.038612
0.25898
0.29119
0.22167
0.41078
0.45033
0.31128
0.24431
0.25483
0.21688
0.25101
0.17861
0.22454
0.32691
0.28449
-0.10649
-0.086081
-0.030591
-0.040158
-0.049088
-0.06886
-0.18686
-0.22513
-0.18686
-0.18175
-0.13232
-0.095011
-0.10394
-0.012094
-0.01911
-0.058017
0.037656
0.046904
0.11005
0.21274
0.13843
0.11069
0.12918
0.11483
0.21178
0.48094
0.47297
0.33679
0.25834
0.21816
0.20158
0.16586
0.17542
0.19552
0.12918
-0.029634
-0.15528
-0.13487
-0.082254
-0.15624
-0.26818
-0.31315
-0.36832
-0.39319
-0.4254
-0.41647
-0.41552
-0.40212
-0.36991
-0.38968
-0.44486
-0.37948
-0.29752
-0.25542
-0.22832
-0.19929
-0.20216
-0.17059
-0.10171
0.031278
0.18722
0.14672
0.096654
0.11611
0.16905
0.14577
0.29597
0.31957
0.32691
0.25483
0.2829
0.2341
0.28991
0.30267
0.16139
0.033829
-0.0076295
0.0095917
-0.00061343
-0.026445
0.0092728
0.021072
0.010548
-0.034737
0.062212
0.1228
0.13078
0.20636
0.30873
0.45128
0.4449
0.44777
0.5865
0.51985
0.43438
0.34604
0.36326
0.35657
0.38144
0.35433
0.15023
0.028407
-0.017197
-0.13551
-0.1792
-0.26053
-0.3259
-0.37151
-0.38331
-0.40531
-0.4136
-0.39096
-0.36672
-0.33324
-0.33515
-0.34727
-0.35811
-0.34631
-0.3039
-0.23406
-0.21173
-0.16645
-0.20503
-0.19196
-0.20153
-0.21492
-0.27615
-0.28827
-0.26531
-0.22257
-0.22991
-0.20567
-0.18271
-0.15497
-0.16326
-0.12116
-0.070136
-0.031867
-0.0063538
0.023624
0.036699
0.07146
0.093465
0.1244
0.12599
0.12982
0.060298
0.090276
0.22486
0.38591
0.45511
0.3875
0.39324
0.44937
0.46659
0.53611
0.52623
0.62286
0.68058
0.60117
0.5208
0.37634
0.42226
0.43279
0.347
0.2341
0.15629
0.060936
0.01597
-0.054828
-0.23182
-0.16772
-0.11223
-0.18399
-0.20663
-0.23916
-0.20918
-0.2264
-0.32909
-0.33069
-0.31793
-0.28955
-0.25447
-0.25702
-0.35046
-0.33069
-0.31825
-0.31315
-0.28891
-0.28827
-0.27743
-0.27105
-0.22768
-0.17314
-0.15943
-0.14667
-0.075557
-0.035694
0.082303
0.10112
0.067952
0.058704
0.042121
0.025218
0.057428
0.1413
0.1228
0.043077
-0.042391
-0.073006
-0.10522
-0.074282
-0.06599
-0.013689
-0.01911
-0.017835
-0.053871
-0.034737
0.034467
0.08613
0.16107
0.28194
0.22836
0.26249
0.38017
0.4095
0.37634
0.27843
0.23506
0.17447
0.21656
0.29342
0.31096
0.1547
0.069228
0.030002
0.008635
0.037337
-0.0098618
-0.069498
-0.10904
-0.078746
-0.02517
-0.13137
-0.25128
-0.30453
-0.29561
-0.26244
-0.24873
-0.27392
-0.24394
-0.27775
-0.2905
-0.27201
-0.24426
-0.17952
-0.19547
-0.19802
-0.14699
-0.043028
-0.0034836
-0.011775
0.0019378
0.02777
0.057428
0.099205
0.068271
0.05392
0.059023
0.14034
0.14162
0.11037
0.090914
0.048818
-0.033142
-0.017197
0.05105
0.035104
-0.026126
-0.011456
0.066677
0.13173
0.094741
0.12886
0.074649
0.042439
0.052963
0.094422
0.10877
0.085811
0.068909
0.083579
0.043077
-0.028996
-0.014645
-0.021661
-0.010181
-0.023894
-0.087357
-0.081935
-0.09246
-0.045899
-0.063758
-0.036969
-0.028359
0.016608
0.025537
0.0003433
-0.0073105
0.076244
0.042439
0.0131
-0.0082673
0.0041702
0.044991
0.052326
0.13397
0.17925
0.17638
0.17989
0.28928
0.22167
0.25005
0.21178
0.14194
0.048818
0.11515
0.079752
0.082941
-0.036331
-0.081298
-0.066309
-0.073006
-0.13264
-0.19929
-0.18112
-0.2433
-0.24936
-0.21843
-0.18973
-0.23119
-0.20153
-0.12276
-0.11574
-0.132
-0.12435
-0.11574
-0.11351
-0.057379
-0.057379
-0.049407
-0.027721
-0.002208
0.029045
0.069866
0.025537
0.023943
0.052007
0.050093
0.1311
0.092189
0.11388
0.12312
-0.0025269
0.055196
0.09187
0.099205
0.12185
0.14194
0.148
0.10303
0.11069
0.21114
0.21912
0.14704
0.11962
0.15246
0.2188
0.23187
0.19807
0.12599
0.11164
0.07752
0.087087
0.15374
0.13397
0.15597
0.18946
0.082622
-0.0047593
0.0003433
0.037018
0.12089
0.052963
0.0089539
-0.015921
-0.032504
-0.063758
-0.097243
-0.13679
-0.098838
-0.13743
-0.19355
-0.16262
-0.07173
-0.067903
-0.15305
-0.19483
-0.21556
-0.21811
-0.18016
-0.15082
-0.12913
-0.10394
-0.065033
-0.060887
-0.07779
-0.084487
-0.066309
-0.06025
-0.057379
0.023305
0.064125
0.03351
0.03925
0.059979
0.059342
0.09506
0.11802
0.15151
0.13078
0.15501
0.20253
0.25611
0.2577
0.24112
0.23474
0.19679
0.16394
0.23825
0.32276
0.31606
0.24718
0.2813
0.26631
0.26121
0.16554
0.037975
0.083579
0.16426
0.26344
0.29534
0.20317
0.23474
0.19552
0.14034
0.11898
0.064444
0.081984
0.12727
0.10526
0.041802
-0.035694
-0.092141
-0.084806
-0.051958
-0.0079484
-0.069498
-0.15146
-0.18813
-0.18462
-0.16549
-0.15592
-0.13615
-0.10968
-0.10139
-0.14412
-0.11446
-0.077471
-0.088314
-0.080979
-0.036012
-0.025488
-0.040158
-0.041753
-0.014008
0.010867
0.024262
0.047861
0.047542
0.032553
0.024262
0.046904
0.071779
0.032553
0.069228
0.087406
0.059661
0.070503
0.070503
0.086449
0.12089
0.1547
0.19966
0.22262
0.24335
0.26536
0.20668
0.14545
0.14066
0.19934
0.24367
0.19839
0.13237
0.13492
0.13747
0.12185
0.084217
0.17192
0.25707
0.19871
0.23474
0.18308
0.12089
0.13939
0.32276
0.28991
0.2459
0.17287
0.088362
0.13652
0.12536
0.080709
0.096973
0.060617
0.0041702
-0.050682
-0.12084
-0.12658
-0.17697
-0.17793
-0.17888
-0.1403
-0.15784
-0.19834
-0.25606
-0.22226
-0.18303
-0.17665
-0.18749
-0.16262
-0.1269
-0.050044
-0.04845
-0.034099
0.0038513
-0.0082673
-0.016878
0.0070404
0.039888
0.051369
0.02777
0.010867
-0.041434
-0.064714
-0.050044
-0.032823
-0.035694
-0.040796
-0.041115
-0.040158
-0.0053971
0.025856
0.047542
0.08039
0.13429
0.20795
0.29534
0.38686
0.41014
0.35274
0.34094
0.28513
0.25515
0.32467
0.39515
0.41493
0.27779
0.21943
0.24463
0.25738
0.15533
0.12025
0.020116
-0.062801
-0.085443
-0.090865
-0.11255
-0.15784
-0.1202
-0.044942
-0.04845
-0.10458
-0.14636
-0.13774
-0.036331
0.13205
0.1716
0.096973
0.06285
0.063487
0.064125
0.084536
0.084854
0.17224
0.087406
-0.015921
-0.011456
0.044353
-0.031867
-0.0982
-0.1269
-0.17825
-0.21141
-0.22895
-0.20727
-0.18303
-0.16549
-0.15975
-0.17888
-0.16995
-0.14891
-0.1269
-0.10649
-0.10649
-0.070455
-0.062482
-0.049407
-0.012732
-0.029634
-0.015921
-0.022299
-0.010819
0.044034
0.09187
0.081984
0.091552
0.13333
0.16363
0.20221
0.22039
0.16809
0.16363
0.10654
0.18595
0.25133
0.19711
0.17861
0.21848
0.15214
0.13556
0.14385
0.10941
0.049137
0.047542
0.12918
0.1665
0.14768
0.16777
0.13971
0.11802
0.08326
0.058066
0.15693
0.14991
0.15278
0.17032
0.20317
0.14577
0.017564
-0.056742
-0.085762
-0.12116
-0.10362
-0.0864
-0.051001
-0.025488
-0.054828
-0.096605
-0.18462
-0.22704
-0.18973
-0.17952
-0.18973
-0.18462
-0.16007
-0.14061
-0.12084
-0.10809
-0.098519
-0.087038
-0.059612
-0.00029452
-0.024851
-0.022618
-0.032504
-0.039202
-0.036969
0.0038513
0.028726
0.011824
-0.0015702
0.019797
0.022986
0.0013
0.0092728
0.038931
0.098886
0.16139
0.13843
0.16235
0.21656
0.22677
0.22741
0.24686
0.28067
0.33839
0.19552
0.1834
0.21114
0.18435
0.24431
0.19424
0.14066
0.064444
0.034467
0.0041702
-0.02198
0.0003433
0.0022568
0.044034
0.040207
-0.053552
-0.11765
-0.13456
-0.11351
-0.066628
-0.023894
0.011505
-0.044304
-0.0047593
0.015651
-0.011775
-0.073963
-0.11287
-0.051958
0.029683
-0.048131
-0.028996
-0.0105
-0.034418
-0.11893
-0.087357
-0.097243
-0.098838
-0.11542
-0.098838
-0.082892
-0.056104
-0.04271
-0.019748
-0.040158
-0.027083
-0.036969
-0.051639
-0.03952
-0.03378
-0.028678
-0.032186
-0.037926
-0.035694
-0.024532
-0.016878
-0.00061343
0.013738
0.0131
0.01884
0.03064
0.066677
0.069228
0.070822
0.075606
0.074012
0.063806
0.062212
0.078795
0.22677
0.32691
0.29246
0.28322
0.23283
0.21848
0.22613
0.23729
0.37538
0.36294
0.2593
0.27461
0.25802
0.17702
0.12918
0.075287
0.03064
-0.1218
-0.14285
-0.084806
-0.091503
-0.12977
-0.14954
-0.17378
-0.20057
-0.19898
-0.19387
-0.17219
-0.12371
-0.081617
-0.081298
-0.13806
-0.14986
-0.1623
-0.11765
-0.066309
-0.06312
-0.075238
-0.031229
-0.014645
-0.028996
-0.048769
-0.042072
-0.053552
-0.065671
-0.047174
-0.015921
-0.0041214
-0.0095429
-0.034418
-0.037607
-0.026126
-0.014645
-0.0044404
-0.012094
-0.026445
-0.023894
0.0095917
0.040845
0.060936
0.04818
0.04531
0.052326
0.049774
0.048818
0.048818
0.014375
0.010867
0.0070404
-0.031229
0.035742
0.061893
0.068271
0.070822
0.1582
0.16745
0.18021
0.18467
0.23347
0.20317
0.15565
0.14417
0.14194
0.16363
0.21688
0.27843
0.22422
0.14736
0.10877
0.12153
0.072736
0.045629
0.055196
0.019797
0.04818
0.010867
-0.012094
0.015332
-0.019429
-0.084806
-0.10745
-0.080022
-0.041753
-0.049407
-0.073644
-0.075876
-0.049407
-0.051639
-0.017197
-0.03091
-0.065033
-0.035694
-0.034737
-0.02804
-0.02804
-0.06599
-0.091822
-0.056423
-0.023256
-0.033142
-0.031548
-0.061525
-0.093416
-0.10936
-0.10649
-0.10872
-0.10043
-0.07779
-0.06599
-0.069817
-0.077471
-0.067585
-0.096924
-0.097562
-0.10617
-0.064077
-0.022618
0.0070404
0.015013
0.029683
0.063806
0.089
0.12567
0.14736
0.18244
0.22071
0.27429
0.18659
0.15119
0.14258
0.13046
0.13492
0.2593
0.31575
0.27779
0.22135
0.17925
0.17511
0.15246
0.17128
0.12057
0.10016
0.10208
0.086449
0.023943
0.032872
0.0060837
-0.082892
-0.12658
-0.11223
-0.11925
-0.12307
-0.11574
-0.098519
-0.10458
-0.10522
-0.10713
-0.12276
-0.13615
-0.1049
-0.042072
-0.062163
-0.11223
-0.11606
-0.087357
-0.098519
-0.10107
-0.087676
-0.068541
-0.061844
-0.069817
-0.039839
-0.013051
-0.056104
-0.049088
-0.00029452
0.0028946
-0.013689
-0.026764
-0.025488
-0.029634
-0.0069916
0.011824
-0.00061343
-0.028996
-0.0069916
0.014375
0.016289
0.045629
0.043396
0.023624
0.014694
0.041483
0.11005
0.14832
0.10526
0.16777
0.15246
0.17893
0.21242
0.35529
0.34477
0.26185
0.19966
0.19328
0.21433
0.16905
0.20062
0.21082
0.1582
0.10941
0.03351
-0.012413
-0.074282
-0.14508
-0.17346
-0.12084
-0.12467
-0.15911
-0.12307
-0.097243
-0.12212
-0.1167
-0.10458
-0.10553
-0.11861
-0.11287
-0.09533
-0.086719
-0.1202
-0.11829
-0.11893
-0.11319
-0.1202
-0.12722
-0.1049
-0.061206
-0.03952
-0.017516
-0.080979
-0.12435
-0.082573
-0.0098618
0.043396
0.08326
0.050731
0.040526
0.074012
0.10208
0.11005
0.10303
0.10144
0.096335
0.02171
0.013738
0.11196
0.13524
0.01023
0.027132
0.012143
-0.03378
-0.065352
-0.072687
-0.019429
0.071141
0.087406
0.027451
-0.0031647
0.017883
0.027132
0.10495
0.17351
0.16267
0.12918
0.11419
0.13492
0.16299
0.064125
0.048499
0.018521
-0.0053971
0.01884
0.054239
0.087406
0.043715
-0.03665
-0.072687
-0.00061343
-0.029634
-0.034737
-0.017197
-0.023256
-0.057698
-0.11
-0.073644
-0.024851
-0.042072
-0.037926
-0.028359
-0.013051
0.063806
0.012143
0.0044891
0.023624
0.082622
0.073374
0.040207
0.060936
0.061893
0.021391
-0.028996
-0.071093
-0.054509
-0.070774
-0.10777
-0.094692
-0.083211
-0.11638
-0.094692
-0.10171
-0.09533
-0.05132
-0.04271
-0.040477
-0.027402
-0.052596
-0.041753
-0.03091
-0.030272
-0.03665
-0.047812
-0.060887
0.0041702
0.030002
-0.0079484
0.030002
0.041802
0.012143
0.037656
0.10877
0.078476
0.067633
0.063487
0.083898
0.057428
0.01023
0.0044891
0.05105
0.049455
0.047861
-0.0018891
0.040526
0.059661
0.032234
-0.01624
0.068909
0.10813
0.18882
0.12791
0.086768
0.10048
0.092827
0.09793
0.12536
0.041483
0.040207
0.10335
0.060936
0.012781
0.028088
0.051688
0.066039
0.082941
0.048818
0.072098
0.051688
-0.005716
0.0025757
-0.031229
-0.0018891
-0.034737
-0.072049
-0.090227
-0.015921
-0.02517
-0.070136
-0.13679
-0.15305
-0.1454
-0.16262
-0.16421
-0.16294
-0.16677
-0.15401
-0.17761
-0.16485
-0.17601
-0.21492
-0.20886
-0.20599
-0.18558
-0.1623
-0.13009
-0.080979
-0.062163
-0.052596
-0.026126
-0.031229
-0.009224
0.05105
0.091233
0.1362
0.16426
0.13652
0.10941
0.12982
0.15055
0.15246
0.13205
0.1582
0.28385
0.34221
0.29023
0.27142
0.14864
0.10335
0.22517
0.34987
0.33903
0.27811
0.052007
0.058704
0.17447
0.16012
0.11356
0.07752
0.0095917
0.0076782
-0.018153
-0.068541
-0.15241
-0.17506
-0.18431
-0.18431
-0.22353
-0.23724
-0.15624
-0.12148
-0.12276
-0.16103
-0.17187
-0.14699
-0.15401
-0.12913
-0.091822
-0.027083
-0.031548
-0.12531
-0.11159
-0.041434
-0.066309
-0.12052
-0.1757
-0.1521
-0.14763
-0.1572
-0.17187
-0.17888
-0.17059
-0.10777
-0.10777
-0.096286
-0.065352
-0.07173
-0.064077
-0.023894
-0.018791
-0.023256
-0.013051
-0.0015702
0.028407
0.058704
0.099524
0.12759
0.1834
0.19265
0.23092
0.23474
0.229
0.21529
0.23379
0.27461
0.26631
0.25515
0.35274
0.40026
0.34764
0.36326
0.4752
0.35529
0.28513
0.23729
0.20955
0.26249
0.28768
0.21433
0.16681
0.13014
0.15406
0.16363
0.033191
-0.13073
-0.20535
-0.22672
-0.2146
-0.23246
-0.29369
-0.29848
-0.30868
-0.36034
-0.35907
-0.33898
-0.31155
-0.36194
-0.35141
-0.34344
-0.35365
-0.34472
-0.3157
-0.27743
-0.28572
-0.29146
-0.25351
-0.23501
-0.19164
-0.17825
-0.15624
-0.11159
-0.10203
-0.1285
-0.10777
-0.069179
-0.056104
-0.038564
-0.02517
-0.032186
0.037337
0.11993
0.16426
0.17064
0.17638
0.1346
0.13716
0.1783
0.30809
0.30522
0.2695
0.27716
0.36454
0.37506
0.37283
0.34572
0.29629
0.22358
0.24527
0.40058
0.33329
0.32563
0.2003
0.22741
0.3639
0.36805
0.29693
0.19584
0.11228
0.12599
0.09793
0.27142
0.18531
0.040845
-0.042072
0.11132
0.17893
0.082303
0.0076782
0.053282
0.11515
0.016608
-0.0015702
0.015651
-0.040477
-0.060887
-0.10681
-0.10585
-0.21046
-0.36417
-0.368
-0.33196
-0.38139
-0.47802
-0.48281
-0.49716
-0.5367
-0.55966
-0.51757
-0.49939
-0.46527
-0.44868
-0.41424
-0.39893
-0.38936
-0.32239
-0.31059
-0.2803
-0.23119
-0.20822
-0.18048
-0.13169
-0.11
-0.079703
-0.035694
0.0041702
0.086449
0.11866
0.25196
0.27301
0.1767
0.15055
0.15788
0.17383
0.22262
0.31734
0.27205
0.31734
0.20955
0.21401
0.21593
0.25164
0.29215
0.53803
0.85566
0.67197
0.4988
0.40663
0.41174
0.48062
0.46276
0.60468
0.77306
0.66942
0.4331
0.32531
0.18021
0.10144
0.031596
-0.059293
-0.14604
-0.17314
-0.3208
-0.45602
-0.47611
-0.47706
-0.45729
-0.52873
-0.52873
-0.55328
-0.58103
-0.57975
-0.53319
-0.51725
-0.47547
-0.42157
-0.39893
-0.37469
-0.37055
-0.36704
-0.33483
-0.35014
-0.32112
-0.31346
-0.31315
-0.26722
-0.25128
-0.24139
-0.21843
-0.20535
-0.19036
-0.16613
-0.12786
-0.11255
-0.097243
0.0038513
0.05392
0.12344
0.13492
0.10367
0.15757
0.30076
0.34636
0.3588
0.37634
0.3757
0.38112
0.35784
0.39196
0.57821
0.56641
0.49019
0.54664
0.43853
0.60691
0.58873
0.38686
0.35625
0.28928
0.35146
0.28067
0.23442
0.12121
0.054558
-0.0015702
-0.11478
-0.12595
-0.16262
-0.27902
-0.40531
-0.33898
-0.26882
-0.32686
-0.41137
-0.41902
-0.34312
-0.33993
-0.30772
-0.30645
-0.30932
-0.29784
-0.25765
-0.26658
-0.29529
-0.24809
-0.26531
-0.2551
-0.26244
-0.28923
-0.31219
-0.2972
-0.27743
-0.26308
-0.25032
-0.23724
-0.20918
-0.1926
-0.19674
-0.20153
-0.14699
-0.11223
-0.11574
-0.11446
-0.10171
-0.088314
-0.074601
-0.070136
0.020754
0.13429
0.22709
0.62541
0.63816
0.465
0.38304
0.42641
0.63944
0.87862
0.86299
0.88117
0.78773
0.53898
0.47839
0.50231
0.6439
0.61775
0.48732
0.24782
0.11419
0.18244
0.013419
-0.018472
-0.066628
-0.1218
-0.25574
-0.29178
-0.31028
-0.28986
-0.33611
-0.38713
-0.42827
-0.47005
-0.49875
-0.45665
-0.43146
-0.44486
-0.45921
-0.4305
-0.39351
-0.37757
-0.32399
-0.2669
-0.24841
-0.23342
-0.2618
-0.25319
-0.23342
-0.22608
-0.23533
-0.19547
-0.15784
-0.18335
-0.21365
-0.17697
-0.14859
-0.17697
-0.11064
-0.084168
-0.087995
-0.037288
-0.021343
-0.019748
0.13492
0.19902
0.10239
0.13205
0.13429
0.12727
0.14704
0.27875
0.33871
0.34764
0.23092
0.14066
0.10686
0.18978
0.24814
0.19679
0.15597
0.17542
0.24495
0.057428
0.037018
0.025218
0.052326
0.038294
-0.0044404
0.027132
0.1008
0.13492
0.036699
0.14162
0.075606
0.072098
0.084854
0.070822
-0.0073105
-0.00061343
0.017883
0.046904
0.068271
0.031915
-0.01911
0.0089539
0.085173
0.05105
-0.094692
-0.17442
-0.12403
-0.14061
-0.11191
-0.12307
-0.1757
-0.21109
-0.22098
-0.19483
-0.191
-0.22289
-0.18813
-0.15146
-0.19451
-0.19515
-0.12371
-0.13647
-0.099794
-0.11351
-0.09246
-0.047812
0.083898
0.13365
0.019159
-0.026126
-0.044623
0.041483
0.049455
0.049774
0.082622
0.050412
0.036061
-0.015921
-0.011137
0.013419
-0.018472
0.0044891
-0.028996
-0.050682
-0.010819
0.093146
-0.023256
-0.049726
-0.016878
0.041164
0.031915
0.012462
-0.036969
0.033829
0.09187
0.082941
0.032234
0.084536
0.19998
0.13492
0.034786
-0.0095429
-0.028359
-0.030591
-0.011137
-0.0082673
0.015651
0.031596
-0.048769
-0.083211
-0.043347
0.046585
0.020435
0.024899
0.017564
-0.045899
-0.08927
-0.03091
-0.029953
-0.017197
0.010867
0.021391
0.030959
0.23825
0.27205
0.1936
0.1311
0.048818
0.072736
0.050093
0.09506
0.17255
0.19711
0.19073
0.028726
-0.063439
-0.044304
0.0070404
-0.069817
-0.12371
-0.12658
-0.13264
-0.17857
-0.21652
-0.14986
-0.14349
-0.18654
-0.16708
-0.12626
-0.10777
-0.13679
0.037975
0.035104
0.019478
0.019797
0.030002
0.044034
0.028407
0.047223
0.064125
0.098568
0.15884
0.1598
0.16044
0.059342
-0.019429
0.0013
0.0016189
-0.046855
-0.052277
-0.00061343
0.0041702
-0.013689
-0.014645
-0.070455
-0.028996
-0.043347
-0.08927
-0.081935
-0.063758
-0.088952
-0.10075
-0.094054
-0.10266
-0.20153
-0.18749
-0.17091
-0.18845
-0.18973
-0.24011
-0.27264
-0.25128
-0.18239
-0.15752
-0.14604
-0.13456
-0.13583
-0.11032
-0.097562
-0.081617
-0.029953
-0.0050782
0.012143
0.026175
0.077838
0.054558
0.11962
0.11962
0.1177
0.12025
0.11866
0.11962
0.096335
0.11802
0.14449
0.070185
-0.0053971
-0.021024
-0.012413
-0.047812
0.055515
0.0073593
-0.04558
-0.074282
-0.025488
0.11132
0.051369
0.028407
0.012462
0.0095917
2.4388e-05
0.034148
0.027451
0.030002
0.012462
0.015651
0.15693
0.2542
0.1952
0.27205
0.18563
0.1126
0.10877
0.16426
0.21848
0.28641
0.2424
0.14991
0.061255
0.05679
0.008635
-0.078109
-0.10777
-0.19132
-0.228
-0.25415
-0.25447
-0.28923
-0.27073
-0.25447
-0.24745
-0.17601
-0.06312
-0.034418
-0.0015702
-0.049088
-0.10235
-0.062482
-0.021024
0.0028946
0.018521
0.02458
0.010867
-0.064714
-0.064077
-0.044942
-0.080022
-0.13583
-0.13456
-0.14061
-0.17123
-0.16581
-0.17601
-0.20312
-0.20663
-0.21333
-0.1977
-0.18399
-0.093735
0.025856
-0.015602
-0.040796
-0.040477
-0.018153
0.021072
0.041164
0.047223
0.064763
0.12727
0.10686
0.099205
0.05105
0.11228
0.14768
0.12599
0.13173
0.047223
0.085492
0.11866
0.11834
0.1059
0.093465
0.14258
0.21178
0.12344
0.082303
0.048499
0.061574
0.012462
-0.019429
0.013738
0.072098
0.076244
0.066358
0.039888
-0.010819
0.019478
0.027132
0.082303
0.044353
0.023624
0.058385
0.037337
-0.0098618
-0.021024
-0.027721
-0.0864
-0.10809
-0.094692
-0.063758
-0.038564
-0.03952
-0.081617
-0.086081
-0.060569
-0.051639
-0.079703
-0.056742
-0.027721
-0.0018891
-0.011775
-0.084168
-0.075876
-0.10649
-0.11351
-0.10553
-0.13041
-0.12499
-0.10522
-0.10968
-0.11064
-0.13041
-0.13679
-0.1757
-0.16549
-0.11542
-0.10745
-0.093416
-0.11191
-0.14061
-0.14125
-0.088633
-0.073325
-0.059293
-0.053552
-0.048131
-0.019429
-0.0038025
0.0022568
0.0022568
-0.0089051
0.01884
0.018521
0.0073593
-0.0050782
0.0095917
0.0079971
0.02458
0.045947
0.11515
0.11037
0.1413
0.16458
0.1716
0.20732
0.25643
0.29342
0.24208
0.2223
0.207
0.16937
0.14194
0.12536
0.10622
0.14098
0.08326
-0.040158
-0.10522
-0.081935
-0.055466
-0.038245
-0.04845
-0.057698
-0.039202
-0.060569
-0.060569
-0.068222
-0.065033
-0.072368
-0.088314
-0.08066
-0.009224
0.02171
-0.0025269
-0.051958
-0.063758
-0.059293
-0.051958
-0.030591
-0.034099
-0.0044404
0.0092728
-0.021343
-0.031548
-0.061206
-0.044623
-0.032504
-0.044942
-0.0060349
-0.0015702
-0.030591
-0.038564
-0.013689
-0.00093234
0.0019378
-0.0095429
-0.030591
-0.028678
-0.020386
-0.029315
-0.022937
-0.041115
-0.060569
-0.08066
-0.058974
-0.050044
-0.011775
0.0095917
0.0035324
-0.0076295
0.0019378
0.016289
0.026494
0.090276
0.1059
0.11037
0.089638
0.075287
-0.015283
-0.038883
0.016608
0.054558
0.039569
0.044991
0.0038513
-0.012413
-0.031548
-0.051001
-0.012094
-0.017835
-0.00061343
0.0054459
-0.0038025
-0.028359
-0.014327
-0.031229
-0.03091
0.0019378
0.016289
-0.012413
-0.021024
0.0051269
0.061574
0.10622
0.080071
0.10845
0.076244
0.03638
0.021072
0.015651
0.038294
0.021072
-0.011137
-0.053234
-0.12818
-0.092778
-0.087038
-0.087676
-0.11702
-0.13456
-0.14731
-0.13679
-0.12563
-0.1218
-0.11351
-0.099157
-0.092141
-0.089908
-0.092141
-0.09246
-0.082892
-0.055147
-0.048769
-0.050682
-0.032823
-0.005716
0.01023
0.028726
0.078157
0.082303
0.071141
0.081984
0.10048
0.088044
0.072736
0.078476
0.05105
0.042758
0.04531
0.055196
0.043715
0.029364
-0.0044404
-0.016559
0.0054459
0.0131
-0.013689
-0.0098618
0.0028946
0.023305
-0.0025269
-0.034418
-0.03952
-0.019748
0.052007
0.05392
0.05105
0.047861
0.014056
0.0095917
0.027132
0.055196
0.049137
0.027451
0.023305
0.0089539
2.4388e-05
-0.015283
-0.016559
-0.041434
-0.063439
-0.042391
-0.057379
-0.015283
-0.065033
-0.031229
-0.036331
-0.062482
-0.073325
-0.05419
-0.046536
-0.037607
-0.052596
-0.065352
-0.039839
-0.044623
-0.048769
-0.065352
-0.034418
-0.011137
-0.020705
-0.019429
0.012462
0.038294
0.083898
0.084854
0.0092728
-0.011137
0.040207
0.029364
-0.012094
-0.034418
-0.04271
-0.060569
-0.052915
-0.057061
-0.065033
-0.069179
-0.060887
-0.029315
-0.034099
-0.027721
-0.016559
-0.0025269
-0.0012513
0.0079971
0.0060837
-0.0015702
-0.013689
0.0028946
0.015332
0.030321
0.019478
0.024262
0.033829
0.031596
0.032872
0.062531
0.10973
0.12312
0.11037
0.12312
0.12727
0.13588
0.12567
0.12982
0.11101
0.099205
0.12631
0.096016
0.030002
0.0076782
0.057428
0.023305
0.01597
-0.032186
-0.080022
-0.10043
-0.062163
-0.03378
-0.10171
-0.14986
-0.17538
-0.17314
-0.14189
-0.12052
-0.090227
-0.07779
-0.097562
-0.10553
-0.10011
-0.069179
-0.047812
-0.036969
-0.041753
-0.032186
-0.029634
-0.026126
-0.02517
-0.009224
-0.0050782
0.012462
0.013738
0.0041702
0.0019378
0.008316
0.011824
0.031915
0.05105
0.02171
-0.018791
0.00098112
0.0070404
-0.02198
-0.040796
-0.036969
-0.045899
-0.042391
-0.031867
-0.049407
-0.064714
-0.047812
-0.015921
0.01597
0.059023
0.025537
-0.0038025
0.0003433
0.035423
0.055196
0.075287
0.060936
0.04531
0.068909
0.10271
0.083579
0.076882
0.078157
0.099524
0.081984
0.078476
0.070503
0.079433
0.085173
0.080071
0.048818
0.019797
-0.0053971
-0.052596
-0.063439
-0.032504
-0.0012513
0.01023
-0.0105
-0.019429
-0.031548
-0.014327
0.023943
0.052645
0.032234
0.017564
-0.0015702
-0.026445
0.013419
0.0038513
0.0051269
-0.037926
-0.056104
-0.058017
-0.036969
-0.056742
-0.072368
-0.057698
-0.057061
-0.039839
-0.039202
-0.056423
-0.061206
-0.058336
-0.067266
-0.083211
-0.087038
-0.087676
-0.078746
-0.057379
-0.074919
-0.082892
-0.082892
-0.070455
-0.055466
-0.045261
-0.030591
-0.016878
-0.017516
-0.0018891
0.0089539
0.026494
-0.0018891
0.0022568
0.0089539
0.015651
0.027132
0.02171
0.017564
0.021072
0.041483
0.06285
0.084217
0.063487
0.046585
0.024262
0.032553
0.02458
0.027132
0.0003433
-0.0034836
-0.026445
-0.031229
-0.026126
-0.04558
-0.053234
-0.048769
-0.022937
-0.011775
0.010548
0.01023
-0.011775
-0.0034836
0.016608
0.0067215
-0.0085862
-0.010819
-0.01337
-0.020386
-0.013051
0.013738
0.048499
0.010867
0.058066
0.057109
0.047542
0.031596
0.0051269
0.0003433
0.01597
0.053601
0.034148
0.020435
-0.0038025
-0.040477
-0.080341
-0.073325
-0.054828
-0.060569
-0.089908
-0.074601
-0.07779
-0.068222
-0.059612
-0.066947
-0.073006
-0.071411
-0.067266
-0.043985
-0.061525
-0.069498
-0.067266
-0.051639
-0.046536
-0.04558
-0.041434
-0.03091
-0.013689
0.017564
0.046266
0.030321
0.023943
0.090276
0.10335
0.09793
0.07146
0.038612
0.039888
0.044353
0.10112
0.10526
0.086449
0.03351
0.032553
-0.010181
0.018521
0.048499
0.020435
-0.029634
-0.056742
-0.037288
-0.043028
-0.03952
-0.048769
-0.034418
-0.012413
-0.017516
-0.002208
-0.015921
-0.0095429
0.015013
0.043715
0.047861
0.059023
0.047542
0.027451
0.022029
0.0092728
-0.014327
-0.019748
-0.016559
-0.014008
0.018521
0.00098112
-0.014008
-0.035056
-0.038564
-0.011456
0.023943
0.035104
0.027451
0.0051269
-0.009224
-0.022937
-0.020067
-0.044623
-0.06599
-0.088952
-0.10362
-0.095968
-0.097562
-0.079065
-0.080979
-0.091822
-0.085125
-0.077471
-0.064077
-0.055147
-0.04558
-0.017835
-0.022937
-0.015283
-0.01337
-0.0063538
-0.0050782
-0.019429
-0.002208
0.0003433
-0.013689
-0.011775
0.0013
0.032553
0.027451
0.032234
-0.0015702
-0.014008
-0.021024
0.028407
-0.011775
-0.033142
-0.068541
-0.058655
-0.054828
-0.023894
-0.0018891
-0.0073105
-0.01624
-0.049088
-0.024213
-0.014964
-0.0060349
-0.018153
-0.032823
-0.024851
-0.027402
-0.040158
-0.060887
-0.065352
-0.074282
-0.054828
-0.04558
-0.043666
-0.026764
-0.0018891
0.026175
0.057109
0.054239
0.058385
0.075287
0.084217
0.096335
0.085173
0.069547
0.041164
0.017564
0.038931
0.049137
0.027132
-0.0038025
-0.048131
-0.065033
-0.024851
0.018521
0.00066221
-0.044942
-0.020067
-0.027721
-0.036012
-0.056742
-0.065033
-0.08353
-0.082573
-0.046855
-0.034737
-0.031229
-0.023894
-0.035375
0.023943
0.030002
0.022986
0.025856
0.0067215
0.0035324
0.013738
0.022986
0.0073593
-0.0015702
-0.022618
-0.045899
-0.053234
-0.055147
-0.082254
-0.073006
-0.074601
-0.10266
-0.089908
-0.071093
-0.061844
-0.060569
-0.053871
-0.039839
-0.040796
-0.038564
-0.03952
-0.043985
-0.026126
0.0025757
0.0025757
-0.0069916
0.0044891
0.022348
0.061255
0.064763
0.07433
0.059979
0.047861
0.037656
0.043077
0.044991
0.021072
0.004808
0.071141
0.068909
0.027451
0.017246
0.015013
0.020116
0.022348
0.05105
0.066995
0.059342
0.011824
0.014694
-0.0031647
2.4388e-05
-0.002208
-0.053234
-0.077471
-0.077152
-0.07173
-0.087357
-0.055147
-0.021343
-0.040477
-0.035694
-0.031229
-0.021024
0.015651
0.024899
0.056471
0.082622
0.049774
0.01023
0.020116
0.014375
0.0054459
0.0013
-0.013689
-0.021024
-0.02198
2.4388e-05
-0.014645
-0.015921
-0.032186
-0.031229
-0.036012
-0.044942
-0.051001
-0.050044
-0.032823
-0.025807
-0.047812
-0.055785
-0.039202
-0.04558
-0.049407
-0.048769
-0.040158
-0.033142
-0.015283
-0.017516
-0.029953
-0.06025
-0.056742
-0.031548
-0.040158
-0.071093
-0.085443
-0.088952
-0.063758
-0.057379
-0.043347
0.0035324
-0.0041214
0.0016189
0.01597
0.048499
0.052963
0.057109
0.05392
0.061255
0.052007
0.040526
0.044991
0.004808
-0.0060349
0.02171
2.4388e-05
-0.030591
-0.023894
-0.025488
-0.03665
-0.027402
-0.018472
-0.0041214
-0.017197
-0.027402
-0.023575
0.043715
0.098568
0.050093
0.02171
0.008635
0.024262
0.038294
0.044672
0.07146
0.10813
0.10399
0.094103
0.045629
0.015651
0.055834
0.062212
0.0032135
-0.01337
-0.026445
-0.036969
-0.028996
-0.0025269
-0.035694
-0.050682
-0.058017
-0.055785
-0.053552
-0.023575
0.0032135
0.008316
0.0079971
-0.0025269
-0.023575
-0.044623
-0.041753
-0.0095429
-0.025488
-0.028996
-0.021024
-0.02804
-0.049726
-0.044942
-0.055147
-0.051001
-0.040477
-0.040158
-0.053234
-0.066628
-0.068541
-0.056104
-0.067585
-0.085443
-0.093097
-0.10043
-0.083211
-0.069817
-0.050363
-0.055147
-0.044623
-0.028678
0.0060837
0.077201
0.083898
0.050412
0.054239
0.064763
0.045629
0.040845
0.068271
0.093146
0.073055
0.062212
0.044991
0.032234
0.010867
0.0131
0.022029
0.020116
0.020754
-0.0095429
-0.0050782
0.021072
0.0131
0.008316
0.066358
0.097292
0.088681
0.09506
0.081028
0.063487
0.052963
0.10144
0.1311
0.14417
0.13078
0.13492
0.047542
0.020435
0.025537
-0.00061343
-0.023256
-0.067903
-0.092141
-0.11255
-0.12595
-0.11925
-0.10968
-0.13105
-0.10713
-0.099794
-0.10298
-0.093735
-0.1049
-0.09533
-0.070136
-0.052915
-0.051639
-0.064077
-0.055785
-0.075557
-0.072368
-0.034418
-0.050363
-0.065671
-0.043028
-0.024851
-0.0076295
0.0131
-0.0073105
-0.029953
-0.020386
0.0035324
-0.010181
-0.0089051
0.033829
0.025218
-0.0060349
0.023624
0.028407
0.033829
0.031278
0.070185
0.061893
0.075287
0.09187
0.078476
0.051369
0.030002
0.040526
0.015651
0.011186
-0.018791
-0.041115
-0.038564
-0.047493
-0.055147
-0.019429
-0.0041214
0.045947
0.011824
0.0092728
0.023305
-0.00029452
-0.0098618
0.017883
0.052645
0.02777
-0.02804
-0.070455
-0.082573
-0.092778
-0.088952
-0.1049
-0.12403
-0.13296
-0.096605
-0.069817
-0.071411
-0.061525
-0.046855
-0.031229
-0.026445
-0.017197
-0.0028458
-0.0038025
-0.0034836
-0.013051
-0.029634
-0.0105
0.012462
-0.013689
-0.022937
-0.024213
0.028088
0.054239
0.069866
0.065082
0.061893
0.084217
0.074649
0.05679
0.10367
0.12504
0.086449
0.089319
0.09506
0.070503
0.035104
0.047223
0.017246
0.042121
0.042758
-0.0095429
-0.036012
-0.031548
-0.043347
-0.030591
-0.080022
-0.058017
-0.0018891
-0.0073105
-0.026764
-0.043666
-0.044623
-0.0053971
-0.014645
-0.0018891
-0.02198
-0.042072
-0.032504
-0.041753
-0.027402
-0.060569
-0.10745
-0.12945
-0.13838
-0.1387
-0.11574
-0.11064
-0.11542
-0.11351
-0.092778
-0.063758
-0.023575
-0.011775
0.019797
0.026175
0.029045
0.041483
0.037337
0.072736
0.10112
0.11675
0.14098
0.095378
0.092827
0.088362
0.10526
0.12121
0.11898
0.096654
0.076563
0.087406
0.061255
0.023624
0.03064
0.0013
-0.055147
-0.041434
-0.047493
-0.10362
-0.093097
-0.046536
-0.056423
-0.075557
-0.057698
-0.050363
-0.015921
0.031915
0.051369
0.049137
0.052326
0.023305
0.01597
-0.0066727
-0.024851
-0.039202
0.020754
0.045947
-0.0041214
-0.064077
-0.10745
-0.093097
-0.031867
-0.053871
-0.086719
-0.094373
-0.072049
-0.041753
-0.00093234
-0.012413
-0.070774
-0.069817
-0.064395
-0.04845
-0.040796
0.013419
0.023305
0.020435
0.049455
0.057109
0.017883
0.018521
0.019159
0.025218
0.0131
0.0079971
-0.0038025
-0.025488
0.00098112
0.036699
-0.0025269
-0.035375
0.012462
0.031915
0.078795
0.09187
0.06859
0.051688
0.063806
0.041802
0.017883
0.026175
0.047542
0.096016
0.067952
0.018521
-0.029953
0.035742
-0.0069916
-0.057698
-0.087357
-0.099794
-0.080341
-0.042072
-0.029953
-0.005716
-0.10968
-0.10266
-0.13583
-0.14317
-0.15401
-0.15847
-0.1639
-0.18175
-0.17155
-0.15114
-0.15369
-0.17761
-0.1623
-0.11159
-0.078109
-0.080022
-0.069498
-0.10011
-0.087357
-0.059931
-0.057698
-0.073963
-0.065671
-0.052915
-0.009224
-0.005716
-0.0073105
0.02458
0.086449
0.084217
0.082622
0.10399
0.17351
0.14194
0.10367
0.12185
0.12759
0.11675
0.056153
0.017564
0.031278
0.059023
0.056153
0.05679
0.08039
-0.061525
-0.058974
0.022029
0.053601
0.037018
0.063487
0.10973
0.12855
0.13811
0.10399
0.050412
0.095378
0.15501
0.14417
0.10654
0.094741
0.05679
0.057428
0.051369
0.10941
0.063169
0.021072
-0.028359
-0.037926
-0.078109
-0.037926
-0.073006
-0.13583
-0.15528
-0.11478
-0.13806
-0.16804
-0.1572
-0.16421
-0.057379
0.1075
-0.0047593
-0.091503
-0.10011
-0.10075
-0.088633
-0.047493
-0.018791
-0.017516
-0.059612
-0.060887
-0.12913
-0.16071
-0.036012
0.048499
-0.014645
-0.043347
-0.011775
0.016289
0.084217
0.096335
0.052007
0.081665
0.12567
0.17638
0.1429
0.10463
0.069547
0.066358
0.045947
-0.01337
-0.081298
-0.091503
-0.062801
-0.051001
-0.083211
-0.085443
-0.12818
-0.14699
-0.082892
0.10877
0.20668
0.1464
0.095378
0.10558
0.095378
0.070185
0.056153
0.088044
0.21369
0.18467
0.10048
0.0079971
-0.070455
-0.16836
-0.2028
-0.20631
-0.16804
-0.13966
-0.037288
0.06285
0.039888
-0.063758
-0.11159
-0.096924
-0.041434
0.04531
0.1413
0.15597
0.085811
-0.012094
-0.084168
-0.078109
-0.067903
-0.085443
-0.19036
-0.24075
-0.13456
-0.055466
-0.027402
0.096335
0.027451
0.0095917
0.034786
0.055196
0.094103
0.12249
0.16586
0.10941
0.12089
0.1295
0.067633
0.037975
-0.02517
-0.04558
-0.027402
-0.049088
-0.064395
-0.070774
-0.012094
-0.055785
-0.022618
-0.072687
-0.10203
-0.036331
-0.0063538
-0.012094
-0.11159
-0.12244
-0.019748
-0.019748
-0.050682
-0.10075
-0.099157
-0.10968
-0.10011
-0.1049
-0.032504
0.0003433
-0.051639
-0.12212
-0.16294
-0.17027
-0.20216
-0.23565
-0.24745
-0.21078
-0.22544
-0.1757
-0.1202
-0.14061
-0.12754
-0.12531
-0.097243
-0.072687
-0.051001
-0.0089051
0.10909
0.25515
0.20732
0.14226
0.16203
0.12759
0.12982
0.29916
0.33297
0.27492
0.24208
0.16713
0.20349
0.22103
0.24973
0.23092
0.27461
0.20604
0.23634
0.17542
0.059661
0.098568
0.17447
0.17638
0.20508
0.2121
0.21019
0.11132
0.13492
0.096973
0.081665
0.14353
0.076244
0.052007
0.023943
-0.067585
-0.17952
-0.21301
-0.22321
-0.28763
-0.38777
-0.3664
-0.35556
-0.32877
-0.23278
-0.32494
-0.37182
-0.2669
-0.2551
-0.28094
-0.25287
-0.20727
-0.1438
-0.15879
-0.18941
-0.25606
-0.23182
-0.15465
-0.13838
-0.17825
-0.22768
-0.22098
-0.18877
-0.12658
-0.054509
0.0025757
0.05679
0.11164
0.13397
0.24335
0.45543
0.64103
0.50008
0.44618
0.54855
0.52049
0.43853
0.4803
0.55907
0.57438
0.49083
0.29151
0.032553
0.17511
0.17032
0.10335
0.21274
0.33616
0.13747
-0.009224
-0.034418
-0.12945
-0.097243
-0.020067
-0.021661
0.022348
0.066677
-0.085125
-0.077152
-0.20663
-0.28955
-0.24458
-0.35939
-0.45442
-0.48918
-0.40021
-0.44549
-0.44836
-0.42955
-0.42317
-0.44135
-0.42668
-0.39447
-0.36481
-0.32335
-0.29752
-0.15943
-0.14731
-0.17825
-0.17251
-0.16166
-0.11702
-0.11702
0.054558
0.18818
0.30426
0.31957
0.28449
0.27843
0.34126
0.36964
0.26759
0.2542
0.35657
0.44905
0.39643
0.29183
0.13716
0.07433
0.015332
0.035742
0.020754
-0.012094
-0.096924
-0.1572
-0.19802
-0.20886
-0.16198
-0.19834
-0.057698
0.048499
-0.032186
-0.14317
-0.2044
-0.24968
-0.23087
-0.1521
-0.13073
-0.17059
-0.16517
-0.20695
-0.19515
-0.1674
-0.094054
-0.10936
-0.17187
-0.12531
-0.075876
0.012462
0.049455
0.054558
0.052326
0.087406
0.073055
0.046585
0.044034
0.11101
0.12855
0.12695
0.16299
0.072098
0.1818
0.34253
0.20413
0.12695
0.12695
0.14258
0.16203
0.21274
0.25356
0.42673
0.3352
0.24271
0.081346
0.070822
0.11738
0.14736
0.098568
-0.027083
0.019797
-0.11351
-0.19355
-0.23055
-0.22513
-0.27902
-0.31378
-0.35684
-0.32782
-0.34376
-0.41392
-0.4152
-0.36003
-0.31187
-0.24267
-0.2197
-0.21205
-0.13328
-0.079065
-0.041434
-0.029634
-0.0085862
0.098249
0.16618
0.2341
0.31447
0.27365
0.31798
0.34094
0.32659
0.28577
0.28354
0.21656
0.25101
0.14258
0.27269
0.24303
0.12886
0.089957
0.0089539
-0.14572
-0.12148
-0.16868
-0.11893
0.092827
0.14003
0.0028946
-0.021024
-0.031229
-0.06886
-0.12435
-0.12754
0.00066221
-0.0098618
-0.084487
-0.19642
-0.23788
-0.23629
-0.22002
-0.21747
-0.24043
-0.15975
-0.10171
-0.13647
0.021391
0.038612
0.095378
0.19328
0.20668
0.2172
0.2306
0.25611
0.20508
0.28354
0.22581
0.18499
0.091552
0.052645
0.010548
-0.10713
-0.073325
-0.066947
0.026494
0.21656
0.054558
-0.10011
-0.12786
-0.13583
-0.18845
-0.17697
-0.06886
0.12153
0.16076
0.13333
-0.087357
-0.16804
-0.16294
-0.13902
-0.017516
0.066358
0.020435
0.034467
0.059979
0.1767
0.10495
0.026494
0.05392
0.07146
0.1075
0.08039
-0.093416
-0.044304
0.013738
-0.095011
-0.16134
-0.22417
-0.24043
-0.2551
-0.30996
-0.33419
-0.34854
-0.38649
-0.34504
-0.31633
-0.30677
-0.25957
-0.22289
-0.22544
-0.16103
-0.13296
-0.13009
-0.041753
0.10463
0.095378
0.10431
0.12089
0.1193
0.23538
0.25675
0.26281
0.21688
0.23379
0.28864
0.28098
0.28736
0.18053
0.29725
0.24654
0.23028
0.1547
0.2542
0.23028
0.27556
0.25994
0.16012
0.13046
0.12025
0.12504
0.1059
0.17383
0.18021
0.06572
0.03064
0.089638
0.010548
-0.020705
-0.053552
0.0060837
-0.11574
-0.16772
-0.11319
-0.053234
-0.088314
-0.1269
-0.13998
-0.17633
-0.19515
-0.25319
-0.16804
-0.071411
-0.012094
-0.053552
-0.19993
-0.21683
-0.20982
-0.11606
-0.10362
-0.15592
-0.20344
-0.26435
-0.2634
-0.21715
-0.18494
-0.21173
-0.24586
-0.19706
-0.14349
-0.18718
-0.084806
-0.071093
-0.096286
-0.11255
-0.16836
-0.16326
-0.05419
-0.0038025
-0.039202
-0.059931
0.064763
0.046266
0.11515
0.1665
0.13142
0.14991
0.19807
0.33903
0.38017
0.47711
0.40472
0.22294
0.16618
0.17638
0.23857
0.25292
0.13939
0.084854
0.048818
-0.025807
-0.084168
-0.058017
-0.032823
0.035423
0.076244
0.014375
-0.012413
0.040207
0.0035324
0.060936
0.14959
0.22358
0.15693
0.18563
0.23219
0.31575
0.29629
0.14353
0.078157
0.06572
0.025856
-0.020386
-0.025807
-0.028678
-0.08927
-0.20663
-0.3208
-0.36321
-0.32144
-0.3782
-0.46144
-0.48025
-0.45793
-0.42732
-0.41265
-0.37055
-0.33611
-0.27775
-0.24203
-0.17187
-0.015283
0.026813
0.0041702
-0.034099
0.0070404
0.055834
0.093784
0.10431
0.10431
0.042439
0.011824
0.063169
0.090595
0.041164
0.048499
0.012781
0.024899
0.13971
0.096654
0.040845
0.01884
0.02777
0.14449
0.29151
0.37666
0.30395
0.28322
0.26025
0.15884
0.24144
0.25834
0.1767
0.091233
0.11993
0.075925
0.0067215
0.018202
-0.1151
-0.20918
-0.2264
-0.20727
-0.18431
-0.15401
-0.22736
-0.25765
-0.10777
0.11643
0.037656
-0.097243
-0.12403
-0.096286
-0.090227
-0.078427
-0.028359
0.017883
0.029364
0.071779
0.072417
0.06285
0.17383
0.21019
0.1531
0.14098
0.13684
0.16299
0.15119
0.16076
0.19711
0.13237
0.027451
-0.030591
-0.066947
-0.11765
-0.1977
-0.2264
-0.25319
-0.31729
-0.35971
-0.32526
-0.18813
0.0067215
-0.10904
-0.19993
-0.16549
-0.1623
-0.15624
-0.10713
-0.06025
-0.0095429
-0.072687
-0.17219
-0.12244
-0.12467
-0.10681
-0.12595
-0.089908
-0.097562
-0.030591
0.0073593
0.01884
0.016289
0.03064
0.11483
0.3336
0.52049
0.38112
0.25643
0.2424
0.22358
0.19934
0.27365
0.28704
0.24527
0.064125
0.11643
0.12599
0.14704
0.099205
0.050093
-0.020067
-0.088952
-0.013689
-0.046536
-0.056104
-0.017516
-0.053552
-0.085762
-0.082254
-0.14061
-0.15146
-0.050363
-0.15018
-0.20089
-0.19674
-0.23852
-0.24458
-0.25765
-0.26595
-0.25829
-0.28986
-0.25478
-0.20057
-0.10235
-0.10362
-0.17314
-0.15305
-0.14412
-0.17282
-0.14891
-0.1403
-0.12244
-0.14317
-0.12499
-0.13519
-0.12307
-0.096924
-0.076514
0.0073593
0.12153
0.14864
0.13301
0.11292
0.13301
0.23761
0.21912
0.22932
0.21561
0.21529
0.26823
0.16171
0.11292
0.1429
0.17479
0.13939
0.079114
0.041164
-0.10043
-0.15369
-0.017197
0.10048
0.10112
0.069547
-0.069179
-0.14189
-0.11829
-0.11159
-0.074282
-0.057379
-0.23214
-0.24586
-0.20918
-0.083211
-0.014008
-0.080022
-0.096605
-0.083849
-0.075238
0.050412
-0.01337
-0.018472
-0.053234
-0.018791
0.01597
-0.070455
-0.16103
-0.071411
-0.093735
-0.11319
-0.16134
-0.24426
-0.29497
-0.26914
-0.24745
-0.13551
-0.11765
-0.10936
-0.14125
-0.11255
0.022986
0.19296
0.29438
0.18308
0.062212
0.15948
0.22422
0.18053
0.20094
0.20381
0.20221
0.028726
-0.032186
-0.022937
-0.013689
-0.034737
-0.12403
-0.22608
-0.24171
-0.27775
-0.31761
-0.26499
-0.18494
-0.11064
-0.053552
0.17925
0.11228
0.04818
0.041164
0.1075
0.16203
0.23315
0.28704
0.27811
0.13747
0.16809
0.22007
0.2172
0.082622
-0.012094
0.041164
0.083898
0.040845
-0.03952
-0.056742
-0.040158
-0.01337
0.01884
0.044991
0.08039
0.13429
0.089638
0.07146
0.17766
0.22741
0.2526
0.20572
0.14226
0.1413
0.24941
0.23984
0.16203
0.063169
-0.069498
-0.060887
-0.077152
-0.073006
-0.11446
-0.17251
-0.20376
-0.28955
-0.37087
-0.3967
-0.38107
-0.38905
-0.34854
-0.29242
-0.27519
-0.26595
-0.19068
-0.12977
-0.15273
-0.17378
-0.16453
-0.11478
-0.0864
-0.073325
-0.051001
0.030002
0.037656
0.024262
0.082941
0.064125
0.015332
0.029045
0.034148
0.0057648
-0.019429
-0.0015702
0.00098112
0.052007
0.081028
0.13684
0.28098
0.43948
0.56067
0.57374
0.38591
0.28322
0.24718
0.36964
0.43406
0.50039
0.42226
0.32436
0.30139
0.29374
0.20445
0.058385
-0.13679
-0.23469
-0.2567
-0.21907
-0.20312
-0.17665
-0.191
-0.2162
-0.20759
-0.24681
-0.228
-0.22226
-0.2044
-0.13615
-0.16485
-0.18526
-0.14954
-0.13456
-0.12818
-0.10649
-0.061525
-0.079384
-0.092141
-0.065033
-0.047174
0.059023
0.12727
0.14927
0.07146
-0.0105
0.01023
0.031278
0.014375
-0.022618
0.025218
0.01023
0.034786
0.082622
0.055196
0.099843
0.062531
0.024262
-0.041753
-0.061525
-0.037926
0.025856
-0.014964
0.027132
0.029683
-0.050044
-0.11159
-0.055466
0.039888
0.080071
0.12599
0.081346
-0.015921
0.017564
0.06572
0.18021
0.16331
0.14321
0.080071
0.043715
0.088362
0.16394
0.096335
-0.024851
-0.073325
-0.055147
-0.041753
-0.024532
-0.043028
-0.042072
-0.03378
0.0025757
0.10526
0.13747
0.15055
0.10877
0.11005
0.17
0.11228
0.023943
0.0067215
-0.00093234
0.042439
0.071141
-0.0031647
-0.068541
-0.051001
-0.054828
-0.035056
-0.019748
-0.0012513
-0.052596
-0.038883
-0.03091
0.0013
-0.044304
-0.087995
-0.066628
-0.026445
0.043077
-0.040477
-0.095011
-0.029634
-0.064077
-0.058336
-0.10298
-0.10235
-0.13073
-0.14795
-0.14827
-0.11383
-0.091184
-0.054828
0.051369
0.094103
0.045629
0.049774
0.049774
0.060298
0.14513
0.19456
0.13046
0.12631
0.16139
0.1716
0.22645
0.20285
0.13747
0.060617
0.028726
0.0060837
-0.0095429
0.040845
0.04531
0.008635
0.061574
0.17957
0.1665
0.064444
0.0013
0.093784
0.080071
0.10941
0.14449
0.12025
0.11451
0.11037
0.032872
-0.053234
-0.045261
-0.043347
-0.0089051
-0.064077
-0.015602
0.099843
0.087087
-0.02198
-0.061206
-0.14285
-0.11319
-0.094054
-0.052277
-0.015921
-0.15911
-0.11861
-0.056423
-0.12945
-0.23533
-0.25223
-0.21078
-0.20025
-0.19674
-0.18781
-0.15975
-0.15337
-0.12212
-0.11574
-0.11415
-0.14253
-0.12563
-0.095011
-0.061206
-0.022937
0.03351
0.038294
-0.00093234
0.035742
0.074649
0.066677
0.084217
0.13078
0.15757
0.08326
0.12663
0.15246
0.14226
0.088044
0.097611
0.10686
0.13078
0.17925
0.22581
0.13939
0.13588
0.089
0.07433
0.16394
0.23315
0.31702
0.27588
0.18212
0.072098
0.064763
0.038294
0.089
0.036061
-0.011775
0.066995
0.048499
-0.0098618
-0.015283
-0.022299
-0.082573
-0.065671
-0.12722
-0.10713
-0.084168
-0.055466
-0.11829
-0.083211
-0.065352
-0.078746
-0.085443
-0.075876
-0.064714
-0.044942
-0.014327
-0.014008
-0.0028458
0.0016189
-0.014327
-0.031548
-0.023256
-0.017835
-0.011775
-0.026445
-0.037926
-0.059612
-0.058017
-0.043347
-0.052915
-0.052596
-0.028996
-0.022618
-0.034737
0.00066221
0.017883
0.012462
0.041802
0.1244
0.20413
0.19839
0.14832
0.10463
0.05105
0.044672
0.10208
0.11005
0.067314
0.048499
0.095378
0.2054
0.17224
0.042758
0.022348
0.08039
0.025218
0.041483
0.048818
0.14353
0.15023
0.082303
0.17
0.17734
0.11228
0.081346
0.097611
0.089319
0.0044891
0.022667
0.068271
-0.0079484
-0.015602
-0.0079484
-0.022937
-0.054828
-0.11191
-0.19483
-0.21747
-0.17091
-0.13456
-0.067903
-0.066309
-0.11255
-0.11829
-0.031229
0.074968
0.033191
0.093784
0.071779
0.02458
0.075606
0.079433
0.07146
0.036061
-0.02517
0.022667
0.14353
0.16905
0.11611
-0.0044404
-0.12722
-0.11638
-0.10426
-0.11415
-0.068541
-0.075238
-0.038245
-0.049407
-0.034737
-0.039839
-0.10904
-0.096924
-0.074919
0.015013
0.049137
0.067952
0.076882
0.079114
0.10622
0.10622
0.071779
0.050093
0.0025757
0.02777
0.068271
0.064444
0.02777
0.01884
0.10431
0.27078
0.26089
0.18722
0.13652
0.17096
0.14481
0.2188
0.28194
0.19679
0.15852
0.2644
0.27939
0.12918
0.080071
0.023305
0.025856
0.037337
0.02777
-0.049407
-0.086081
-0.14317
-0.15146
0.030321
0.07146
-0.044623
-0.082892
-0.061525
-0.069498
-0.12913
-0.16071
-0.12307
-0.09246
-0.10872
-0.16645
-0.14285
-0.14412
-0.20089
-0.18877
-0.085125
-0.062482
-0.11351
-0.14699
-0.11702
-0.091503
-0.086081
-0.088314
-0.097881
-0.074601
-0.053552
-0.015921
-0.02198
-0.024851
-0.039839
-0.06312
-0.04845
-0.014964
-0.0031647
0.0019378
-0.0053971
0.011186
0.0013
0.040207
0.057747
0.088362
0.1531
0.21274
0.19265
0.22517
0.31415
0.40217
0.31511
0.23857
0.21688
0.2357
0.24144
0.2475
0.12695
0.075925
0.15246
0.06572
-0.05132
-0.11446
-0.1033
-0.10745
-0.10075
-0.067266
-0.065033
-0.056742
0.008635
0.019797
0.076244
0.088044
0.13365
0.094103
0.081984
0.060298
2.4388e-05
0.033829
0.025856
0.034148
0.032553
-0.084806
-0.12977
-0.093097
-0.06599
-0.090546
-0.080022
-0.051001
-0.12276
-0.18973
-0.23756
-0.27519
-0.27424
-0.21301
-0.17761
-0.169
-0.14667
-0.12212
-0.15592
-0.1674
-0.17346
-0.12882
-0.09246
-0.058336
-0.055466
-0.039202
0.029045
0.097292
0.061893
0.052007
0.024899
0.015332
0.0073593
0.030002
0.053282
-0.029634
0.028407
0.096016
0.079114
0.11515
0.12982
0.16012
0.13875
0.14321
0.15788
0.20572
0.20955
0.20508
0.22517
0.27492
0.22486
0.19137
0.19902
0.16873
0.10144
0.090276
0.15629
0.18212
0.13716
0.043396
0.081346
0.034148
-0.032823
-0.058655
-0.076833
-0.060569
-0.030591
0.013738
-0.048769
-0.12403
-0.14699
-0.11351
0.004808
0.028726
-0.049088
-0.031229
-0.065033
-0.076195
-0.040477
-0.0060349
-0.043347
-0.10841
-0.092141
-0.035375
-0.0085862
-0.032504
-0.058017
-0.066947
-0.088633
-0.091503
-0.084487
-0.10266
-0.097562
-0.068222
-0.063758
-0.069179
-0.072687
-0.074601
-0.086081
-0.059612
-0.042391
-0.040158
-0.033461
0.011505
0.029683
0.019159
0.030002
0.034148
0.0025757
0.012462
0.045629
0.051369
0.055834
0.049455
0.042758
0.078157
0.14736
0.26631
0.28513
0.27046
0.21656
0.17702
0.17415
0.20349
0.24622
0.22454
0.17893
0.15884
0.14481
0.16937
0.049455
-0.024851
-0.01911
-0.082892
-0.073963
-0.013689
-0.009224
-0.070455
-0.10139
-0.10011
-0.05132
-0.047812
0.034786
0.068271
0.02777
0.0073593
0.074968
0.09506
0.071779
0.06285
0.050731
-0.01624
0.023305
0.1362
0.16777
0.084854
0.014694
0.055196
0.031915
0.0032135
-0.035056
-0.061844
-0.084168
-0.097243
-0.10809
-0.095011
-0.06886
-0.073325
-0.086081
-0.081935
-0.087676
-0.070136
-0.018791
0.017883
0.017883
-0.011456
-0.014964
-0.009224
-0.0095429
-0.056423
-0.054509
-0.037288
-0.058017
-0.047812
0.039569
0.035423
0.018521
0.012143
-0.04845
-0.0012513
0.032872
0.065082
0.012781
0.023943
0.066677
0.062531
0.032234
0.062531
0.089319
0.1346
0.14162
0.10431
0.027451
0.042121
0.10718
0.10399
0.1193
0.089638
0.10973
0.12249
0.064125
0.0016189
-0.078109
-0.078427
-0.064077
-0.039202
-0.049726
-0.075557
-0.11032
-0.10203
-0.10968
-0.14891
-0.10872
-0.074919
-0.088314
-0.099476
-0.085125
-0.097243
-0.10904
-0.1049
-0.087357
-0.085762
-0.052915
-0.059931
-0.070455
-0.069179
-0.07173
-0.03665
-0.017197
-0.019429
-0.0028458
-0.00061343
0.012781
-0.0034836
-0.0041214
0.014056
-0.050044
-0.031548
0.0038513
0.020116
0.0095917
-0.0053971
0.033191
0.051369
0.017564
0.1193
0.13747
0.16044
0.13269
0.14513
0.25451
0.19105
0.12982
0.21656
0.24112
0.13811
0.05105
0.10718
0.15565
0.083898
0.0041702
-0.032186
-0.073963
-0.11415
-0.12435
-0.14891
-0.14476
-0.18749
-0.20695
-0.22226
-0.21939
-0.2044
-0.13392
-0.13998
-0.14859
-0.13105
-0.062482
-0.026445
0.015332
0.040207
0.031596
-0.024851
-0.010819
0.042439
0.071779
0.072098
-0.027083
-0.04558
-0.033461
-0.036331
-0.089908
-0.088633
-0.055466
-0.056104
-0.058017
-0.040477
-0.04558
-0.046536
-0.017197
-0.0044404
0.014694
0.012143
0.010548
0.015332
0.0035324
-0.002208
0.023943
0.054877
0.071779
0.060617
0.036699
-0.0034836
0.01023
0.011505
-0.009224
-0.00029452
0.064125
0.056153
0.06572
0.11993
0.082622
0.031278
0.076882
0.14577
0.26631
0.23251
0.19137
0.19839
0.096973
0.11675
0.22167
0.30108
0.15501
0.027132
0.058066
0.10335
0.029683
-0.011456
-0.002208
0.0003433
-0.031229
-0.05419
-0.085125
-0.11191
-0.088633
-0.051639
-0.061525
-0.045261
-0.055147
-0.068222
-0.096924
-0.13966
-0.1218
-0.094692
-0.15401
-0.169
-0.14093
-0.12882
-0.11032
-0.13456
-0.15911
-0.14667
-0.12754
-0.11191
-0.12403
-0.11829
-0.13105
-0.14476
-0.14572
-0.12499
-0.11191
-0.11733
-0.0864
-0.076195
-0.061844
-0.053552
-0.03091
0.014056
0.022667
0.040526
0.085492
0.058066
0.055515
0.0013
-0.021024
-0.063439
-0.089589
-0.046218
-0.017516
-0.025807
-0.081617
-0.0095429
-0.013689
-0.032823
-0.062163
-0.0082673
0.017883
0.096016
0.13971
0.17415
0.24048
0.25962
0.19137
0.15725
0.18308
0.22358
0.30044
0.28513
0.23825
0.1665
0.077201
0.01597
0.10813
0.086449
-0.01911
-0.0050782
-0.040477
-0.063758
-0.088952
-0.13519
-0.17187
-0.19642
-0.18654
-0.19132
-0.20121
-0.21365
-0.2095
-0.10203
-0.088633
-0.16677
-0.16134
-0.15879
-0.18462
-0.19355
-0.18239
-0.16613
-0.17155
-0.18686
-0.18973
-0.16868
-0.14859
-0.11861
-0.13806
-0.14349
-0.13583
-0.11064
-0.10107
-0.095968
-0.076195
-0.044942
-0.028996
-0.0069916
0.01023
-0.031229
-0.058017
-0.043985
-0.016559
-0.0038025
0.0038513
-0.0079484
0.0019378
0.042439
0.064763
0.080071
0.054558
0.092189
0.14736
0.14704
0.17351
0.20827
0.25483
0.21274
0.23347
0.17989
0.28162
0.30203
0.31447
0.30395
0.26695
0.17638
0.16044
0.15406
0.082303
0.024899
-0.0018891
-0.11989
-0.13009
-0.073006
-0.10936
-0.14763
-0.20312
-0.17506
-0.20057
-0.19387
-0.16358
-0.16134
-0.15624
-0.15401
-0.11638
-0.069817
-0.067903
-0.087038
-0.11733
-0.092141
-0.1336
-0.16134
-0.11032
-0.11478
-0.099157
-0.050363
-0.08066
-0.15879
-0.13902
-0.078746
-0.10713
-0.16007
-0.16262
-0.1521
-0.14763
-0.16581
-0.15082
-0.12435
-0.12052
-0.12786
-0.11383
-0.10681
-0.087995
-0.051639
-0.034099
-0.017197
-0.010819
-0.017835
-0.02198
-0.015283
-0.0073105
0.010867
0.028407
0.050093
0.075287
0.11132
0.13078
0.14577
0.18531
0.19584
0.20381
0.27301
0.26025
0.20349
0.25643
0.39228
0.4398
0.32595
0.31702
0.26887
0.1464
0.15119
0.14927
0.13971
0.069866
0.046266
0.10016
0.1177
0.092827
-0.0073105
-0.069179
-0.14763
-0.19005
-0.19738
-0.18462
-0.18335
-0.21205
-0.27934
-0.24426
-0.22991
-0.24841
-0.31315
-0.33069
-0.34823
-0.34089
-0.25893
-0.21078
-0.22417
-0.22321
-0.23756
-0.20216
-0.18781
-0.20312
-0.19834
-0.17027
-0.12148
-0.095011
-0.1033
-0.11032
-0.078746
-0.054828
-0.043347
-0.023256
0.013419
0.070185
0.1075
0.076563
0.061893
0.04818
0.083898
0.099205
0.093784
0.082622
0.054558
0.0044891
-0.063758
-0.0050782
0.055834
0.18531
0.24303
0.18117
0.13014
0.13875
0.11515
0.19201
0.20445
0.19041
0.26727
0.32308
0.32499
0.33329
0.2223
0.26376
0.22517
0.011824
-0.055147
0.050412
0.079114
0.059661
0.038294
-0.047493
-0.11733
-0.091503
-0.13264
-0.15624
-0.10777
-0.13487
-0.19419
-0.18431
-0.1285
-0.080022
-0.099476
-0.11861
-0.18048
-0.18431
-0.2197
-0.228
-0.24936
-0.25734
-0.27392
-0.27488
-0.23055
-0.19547
-0.1454
-0.19547
-0.19547
-0.17697
-0.13232
-0.073325
-0.042072
-0.053234
-0.031548
-0.026764
-0.037926
-0.021661
0.00098112
-0.0076295
0.0092728
0.024899
0.017883
0.031915
0.045947
0.096016
0.11356
0.1464
0.17511
0.17351
0.33903
0.43853
0.41525
0.30618
0.24016
0.2172
0.23155
0.25515
0.2593
0.3336
0.25483
0.13747
0.11834
0.046266
-0.018791
0.24846
0.26982
0.090276
-0.0082673
-0.0076295
-0.05419
-0.015283
0.029364
0.065401
0.029045
0.0028946
-0.066309
-0.14508
-0.11351
-0.15656
-0.22002
-0.16708
-0.13902
-0.15847
-0.13615
-0.1639
-0.13583
-0.20727
-0.24394
-0.25734
-0.22289
-0.15369
-0.22927
-0.22162
-0.23565
-0.18941
-0.21301
-0.23246
-0.23469
-0.23661
-0.2669
-0.18526
-0.10075
-0.11542
-0.029315
-0.08927
-0.064395
-0.04845
-0.049726
-0.036331
-0.00029452
0.012462
-0.017516
0.03351
0.01023
0.016608
0.05105
0.013738
0.055515
0.081346
0.030002
-0.0012513
-0.0098618
-0.012413
0.029045
0.072098
0.17606
0.266
0.1649
0.13779
0.16905
0.22613
0.17128
0.25069
0.21146
0.26918
0.17766
0.21625
0.18148
0.15597
0.22868
0.19871
0.14513
0.11483
0.1075
0.060936
0.039888
0.011824
0.022029
-0.029315
-0.061844
-0.12371
-0.10617
-0.15337
-0.17346
-0.25191
-0.33961
-0.3613
-0.37469
-0.40116
-0.43529
-0.4187
-0.39
-0.37757
-0.35875
-0.33387
-0.36194
-0.37342
-0.33419
-0.28285
-0.24936
-0.21843
-0.17155
-0.1202
-0.079703
-0.03378
0.040526
0.088044
0.10526
0.075287
0.089319
0.13142
0.13269
0.13237
0.13269
0.085492
0.068909
0.047861
0.004808
-0.0047593
0.026813
0.038294
-0.025488
0.04818
0.19871
0.30108
0.32021
0.2475
0.22581
0.21242
0.30331
0.36294
0.369
0.37155
0.31575
0.21625
0.25451
0.26185
0.16777
0.15884
0.10144
-0.043985
-0.1336
-0.18144
-0.19515
-0.17857
-0.11096
-0.13296
0.031596
0.068271
-0.12882
-0.2044
-0.21237
-0.16134
-0.13264
-0.083211
-0.062801
-0.092778
-0.10617
-0.093416
-0.1049
-0.10043
-0.169
-0.20408
-0.20057
-0.24713
-0.309
-0.32526
-0.31697
-0.31729
-0.31123
-0.27105
-0.27009
-0.27615
-0.2669
-0.24617
-0.22289
-0.21014
-0.16932
-0.11797
-0.09246
-0.052277
-0.025807
-0.0066727
0.047542
0.047861
0.030002
0.059979
0.094741
0.10367
0.11611
0.12121
0.17319
0.21465
0.19966
0.23506
0.34445
0.40536
0.36741
0.32691
0.41525
0.39994
0.43629
0.39069
0.46531
0.58012
0.51921
0.43183
0.44395
0.4229
0.44299
0.39739
0.12376
0.066358
0.037337
0.014694
-0.051639
-0.18431
-0.24107
-0.21396
-0.27807
-0.34057
-0.4152
-0.3849
-0.3664
-0.368
-0.24299
-0.30294
-0.27519
-0.28604
-0.34121
-0.33356
-0.30294
-0.20503
-0.20185
-0.16326
-0.21652
-0.21652
-0.24617
-0.25829
-0.228
-0.19228
-0.16166
-0.15146
-0.10171
-0.059931
-0.059931
-0.065352
-0.04558
-0.029634
-0.034099
-0.051001
-0.012732
-0.041115
-0.043666
-0.047493
-0.052915
-0.064395
-0.051639
-0.024851
-0.0028458
0.010867
-0.0012513
0.010548
0.11898
0.24303
0.25483
0.29278
0.24335
0.2593
0.27843
0.4398
0.42545
0.42704
0.43948
0.40663
0.3116
0.27365
0.27843
0.26057
0.27843
0.24367
0.13205
0.046585
0.0073593
-0.12116
-0.15784
-0.17697
-0.15784
-0.15624
-0.1521
-0.18239
-0.18239
-0.0864
-0.13169
-0.14253
-0.17219
-0.1859
-0.1403
-0.10522
-0.08353
-0.054509
-0.10904
-0.16804
-0.21811
-0.17857
-0.1572
-0.15784
-0.1639
-0.22257
-0.27296
-0.24458
-0.26084
-0.2551
-0.26722
-0.29656
-0.29911
-0.2854
-0.29146
-0.29401
-0.28827
-0.24586
-0.22895
-0.23055
-0.20759
-0.15528
-0.11128
-0.11128
-0.11064
-0.10585
-0.0982
-0.078109
-0.057698
-0.042391
-0.034099
-0.0069916
0.044353
0.11451
0.32212
0.46085
0.31702
0.25133
0.25547
0.4044
0.37251
0.38846
0.51921
0.5814
0.67005
0.47679
0.48317
0.47871
0.45957
0.31
0.18308
0.23602
0.26791
0.23442
0.067633
-0.10426
-0.073644
-0.070455
-0.095649
-0.19898
-0.073644
-0.14795
-0.22608
-0.29369
-0.30804
-0.31761
-0.27775
-0.21428
-0.21683
-0.14954
0.096335
0.10973
0.081984
0.13205
0.098568
0.080709
0.10016
0.082303
0.11515
0.17287
0.089319
-0.098838
-0.1218
-0.082892
-0.10522
-0.2398
-0.32303
-0.33324
-0.35588
-0.38777
-0.4254
-0.42636
-0.4203
-0.40372
-0.39957
-0.37693
-0.35747
-0.34631
-0.32877
-0.31346
-0.27615
-0.24841
-0.21939
-0.18749
-0.17155
-0.041753
-0.020386
-0.054828
-0.056423
-0.041434
-0.027083
0.011824
0.099843
0.16745
0.24782
0.16905
0.11579
0.15151
0.17096
0.148
0.21625
0.21146
0.25228
0.28098
0.25898
0.23092
0.25675
0.3537
0.55557
0.4567
0.31989
0.30458
0.3301
0.29821
0.41556
0.48349
0.36837
0.25802
0.14385
0.13971
0.07752
0.1464
0.084217
-0.037607
-0.074919
-0.24394
-0.35397
-0.38203
-0.39574
-0.33324
-0.32558
-0.33898
-0.37852
-0.41998
-0.40946
-0.41934
-0.41105
-0.29592
-0.28795
-0.28253
-0.33674
-0.33387
-0.31123
-0.28572
-0.30964
-0.30294
-0.25606
-0.21779
-0.22481
-0.19898
-0.17123
-0.15975
-0.15146
-0.12563
-0.094692
-0.065033
-0.049407
-0.023256
0.0022568
-0.0034836
-0.009224
-0.017197
0.0064026
0.020435
0.043396
0.052963
0.049137
0.046904
0.069228
0.067633
0.10941
0.10941
0.094103
0.1665
0.14098
0.19647
0.23474
0.26313
0.35657
0.30682
0.25005
0.2577
0.23092
0.28609
0.36613
0.38112
0.31606
0.22613
0.16873
0.1952
0.24431
0.19488
0.32053
0.266
0.15087
0.03351
0.0070404
0.022348
0.019797
0.032553
0.0051269
0.059023
0.031278
-0.029315
-0.095968
-0.18909
-0.23406
-0.25064
-0.22991
-0.26754
-0.28381
-0.331
-0.36959
-0.3731
-0.32782
-0.3208
-0.30517
-0.29337
-0.28062
-0.23948
-0.21301
-0.18654
-0.18686
-0.169
-0.14412
-0.13966
-0.13073
-0.13711
-0.13679
-0.12977
-0.10777
-0.092141
-0.058017
-0.01911
-0.022299
-0.0069916
2.4388e-05
0.038612
0.061893
0.066039
0.092189
0.14385
0.17415
0.19998
0.20094
0.16745
0.21338
0.25228
0.22709
0.22486
0.21688
0.20795
0.21465
0.20572
0.21688
0.16235
0.13333
0.15278
0.23729
0.16012
0.050731
0.026175
0.062531
0.09793
0.047223
0.06572
0.032553
-0.030272
0.0028946
-0.035056
-0.025807
0.035104
-0.0095429
-0.049088
-0.063758
-0.11128
-0.1639
-0.16772
-0.15146
-0.16453
-0.14923
-0.12244
-0.11702
-0.13647
-0.11638
-0.071093
-0.066947
-0.054509
-0.078746
-0.081298
-0.041115
-0.027402
-0.060569
-0.075876
-0.11383
-0.1167
-0.099157
-0.077471
-0.089589
-0.080341
-0.10362
-0.10362
-0.070136
-0.053552
-0.038245
-0.030272
-0.022299
-0.009224
-0.014645
-0.020386
0.030321
0.075287
0.019797
0.020754
0.028088
0.031278
0.016289
0.025218
0.037018
0.048818
0.077838
0.078476
0.0019378
-0.02804
0.014694
0.044991
0.046585
0.00066221
-0.035056
-0.047174
-0.029634
-0.0044404
0.048499
0.10877
0.10877
0.14736
0.15438
0.1464
0.15374
0.1649
0.16426
0.15629
0.16841
0.15438
0.10208
0.028726
-0.0069916
0.0095917
-0.044304
-0.039202
-0.02804
-0.072687
-0.048769
0.019797
0.030959
-0.0018891
-0.016559
-0.0076295
0.0131
0.0073593
0.02171
0.048499
0.082622
0.088044
0.043396
-0.031229
-0.040477
-0.079065
-0.10266
-0.097881
-0.082892
-0.090227
-0.11638
-0.14891
-0.14699
-0.15784
-0.18431
-0.18303
-0.18558
-0.16071
-0.15656
-0.15178
-0.14157
-0.13934
-0.11542
-0.10043
-0.073963
-0.067903
-0.06886
-0.06886
-0.063758
-0.046855
-0.037607
-0.036012
-0.051639
-0.055785
-0.041753
-0.019748
-0.025488
-0.031548
-0.029634
-0.0044404
0.021391
0.08039
0.094103
0.075606
0.069866
0.11324
0.11515
0.1598
0.14098
0.12312
0.11675
0.12727
0.12823
0.09506
0.10463
0.10399
0.10112
0.12408
0.15278
0.15023
0.12408
0.090276
0.081665
0.11037
0.085811
0.11388
0.12089
0.079752
0.038931
0.0019378
-0.034099
-0.075557
-0.021024
0.0022568
-0.064077
-0.15497
-0.16677
-0.15114
-0.17506
-0.18941
-0.1977
-0.20503
-0.21237
-0.20567
-0.19483
-0.16071
-0.14253
-0.10681
-0.11128
-0.10426
-0.077152
-0.043028
-0.021024
-0.02517
-0.035375
-0.019429
-0.012413
-0.0082673
0.0044891
-0.0060349
-0.024851
-0.0028458
0.017883
0.016608
0.0070404
0.013419
0.028407
0.028726
0.01597
0.031915
0.040845
0.041483
0.033829
0.017883
0.0067215
-0.016878
-0.03378
-0.037926
-0.011456
-0.012413
-0.025488
-0.026764
0.013738
0.031596
0.01884
0.042439
0.065401
0.069228
0.043715
0.048818
0.073055
0.070503
0.075606
0.11451
0.10303
0.090914
0.072417
0.06859
0.076244
0.072098
0.068271
0.075925
0.063487
0.03638
0.0003433
-0.002208
-0.013689
-0.052277
-0.068222
-0.093416
-0.12913
-0.13551
-0.1151
-0.12084
-0.1269
-0.12467
-0.12052
-0.10809
-0.082573
-0.047812
-0.014645
0.0019378
0.055196
0.047542
0.044034
0.018202
-0.0041214
-0.00093234
0.037337
0.054558
0.055834
0.026175
-0.0025269
-0.014645
-0.0041214
0.014694
-0.010819
-0.048769
-0.067266
-0.066947
-0.070136
-0.079703
-0.087357
-0.094054
-0.094373
-0.067266
-0.06025
-0.058974
-0.024851
-0.03091
-0.024851
-0.031867
-0.030591
-0.030272
-0.017197
-0.0025269
0.0060837
-0.016559
-0.052596
-0.056742
-0.051639
-0.046218
-0.027721
-0.02517
-0.037926
-0.034737
-0.019748
-0.0041214
0.026175
0.048818
0.05105
0.10112
0.13237
0.094422
0.079114
0.072098
0.076563
0.074012
0.091552
0.10558
0.066039
0.037018
0.038612
0.028726
0.0092728
0.02458
0.015013
-0.011456
-0.031867
-0.019748
-0.025807
-0.062482
-0.079065
-0.083211
-0.076514
-0.051639
-0.053552
-0.068222
-0.055785
-0.04271
-0.032186
0.013419
0.075925
0.044991
0.028726
0.022986
0.028088
0.031278
0.052007
0.062212
0.052326
0.061574
0.060936
0.03064
0.017564
0.042758
0.067633
0.047542
0.049137
0.035104
0.020435
0.015013
0.0019378
0.0054459
-0.0047593
-0.009224
-0.03091
-0.053234
-0.044942
-0.033142
-0.044942
-0.067903
-0.068222
-0.04845
-0.040796
-0.025488
-0.03665
-0.049407
-0.045899
-0.034099
-0.015283
-0.021343
-0.0089051
-0.015283
0.024899
0.086768
0.057747
0.038294
0.040207
0.052645
0.067952
0.067633
0.066677
0.061255
0.031915
0.0092728
0.0089539
0.0032135
-0.023894
-0.057379
-0.11383
-0.11159
-0.089589
-0.079703
-0.088633
-0.086081
-0.066947
-0.046536
-0.019429
0.01023
-0.0076295
-0.00029452
-0.012732
-0.030272
-0.032186
-0.0025269
-0.0050782
0.018202
0.037975
0.063487
0.10239
0.10048
0.069228
0.064444
0.083579
0.098886
0.12567
0.12982
0.1413
0.09506
0.058066
0.052963
-0.0044404
-0.037926
-0.033461
-0.039202
-0.080022
-0.10777
-0.12371
-0.11638
-0.10043
-0.093097
-0.084168
-0.088314
-0.094054
-0.096924
-0.083849
-0.081298
-0.073963
-0.077152
-0.069498
-0.052596
-0.050044
-0.043028
-0.056104
-0.029634
-0.010819
-0.0073105
0.0032135
0.013738
0.0060837
0.014694
0.016289
0.022986
0.019797
0.0131
0.0038513
-0.0041214
0.034148
0.058385
0.044991
0.035104
0.041164
0.053282
0.056153
0.075925
0.078476
0.089
0.09506
0.082622
0.051369
0.072736
0.040207
0.0095917
-0.013051
0.014056
0.0070404
-0.020386
-0.017835
-0.035694
-0.034099
-0.0060349
0.0022568
-0.025488
-0.061525
-0.070455
-0.055785
-0.027083
-0.045899
-0.057698
-0.073325
-0.070774
-0.06025
-0.064714
-0.079703
-0.08353
-0.069179
-0.051958
-0.030272
0.0054459
-0.0105
-0.022299
-0.015921
-0.026126
-0.049726
-0.061525
-0.028678
-0.005716
0.012462
-0.0025269
0.00066221
0.027132
0.032872
0.028407
0.048499
0.06572
0.085492
0.098886
0.065401
0.073055
0.078795
0.059023
0.03925
0.022348
0.019797
0.011824
0.0016189
-0.020386
-0.041115
-0.02804
-0.018791
-0.029634
-0.039202
-0.059612
-0.063758
-0.057061
-0.047812
-0.043028
-0.061525
-0.085125
-0.096286
-0.059931
-0.024851
-0.027721
-0.050682
-0.051639
0.0095917
0.0019378
0.0060837
-0.0028458
0.0032135
0.012781
0.0044891
0.0057648
-0.010819
-0.030591
-0.0034836
0.0057648
0.03638
0.017564
0.0022568
-0.016559
-0.019748
-0.0085862
0.014375
0.029045
0.017883
-0.0079484
-0.036331
-0.036012
-0.038245
-0.048131
-0.062163
-0.099476
-0.10553
-0.088314
-0.092141
-0.099476
-0.1049
-0.088633
-0.06599
-0.052277
-0.037288
-0.03665
-0.037607
-0.031548
-0.029315
-0.032823
-0.044304
-0.048769
-0.05132
-0.038245
-0.021343
-0.012094
-0.024851
-0.029634
-0.022618
-0.0069916
0.0079971
0.017883
0.018202
0.0131
0.0099106
0.011186
0.015013
0.021072
0.018521
0.0041702
0.020435
0.034148
0.040526
0.040845
0.05679
0.069547
0.058066
0.063169
0.077838
0.062212
0.081028
0.11706
0.099205
0.046266
0.055515
0.039888
0.020435
0.030002
0.013419
0.016289
0.022029
0.042121
0.063169
0.010548
-0.018153
-0.015921
-0.0079484
-0.015283
-0.022937
-0.049088
-0.062163
-0.066309
-0.088952
-0.088314
-0.083211
-0.067266
-0.091822
-0.0864
-0.061206
-0.051001
-0.064077
-0.032186
0.0016189
-0.016559
-0.01911
-0.024851
-0.043666
-0.075876
-0.073325
-0.053234
-0.031229
-0.033142
-0.045261
-0.075557
-0.080979
-0.052596
-0.039839
-0.029634
-0.01624
-0.030591
-0.034418
-0.021024
-0.021661
-0.031229
-0.032186
-0.029634
-0.031229
0.0067215
0.02458
0.0016189
0.0028946
0.012143
0.027132
0.018521
0.018521
0.03638
0.033829
0.022029
0.014056
0.0016189
-0.0053971
-0.022299
-0.047174
-0.037926
-0.025807
-0.041753
-0.065671
-0.052596
-0.03091
-0.043028
-0.023256
0.008316
0.0019378
0.032234
0.028407
0.01884
0.0057648
0.0051269
0.0131
0.02458
0.050731
0.045947
0.0060837
0.021072
0.035104
0.036699
0.030002
0.025856
0.0099106
-0.022299
-0.023256
-0.023894
0.026813
0.0092728
-0.034099
-0.053552
-0.052915
-0.029953
-0.039202
-0.020705
-0.021661
-0.018153
0.021391
0.025537
0.029364
0.052963
0.075287
0.03064
0.017883
-0.016559
-0.045261
-0.057379
-0.023256
-0.0076295
-0.016559
-0.074282
-0.084487
-0.074601
-0.065033
-0.050363
-0.02804
-0.040477
-0.063439
-0.059293
-0.043985
-0.017835
-0.02517
-0.046855
-0.042391
-0.04558
-0.033461
-0.025488
-0.028678
-0.041434
-0.050044
-0.034418
-0.024851
-0.011137
-0.005716
-0.0060349
0.012781
0.05679
0.049137
0.026175
-0.0053971
-0.01337
-0.018153
0.0016189
0.010548
0.0032135
0.012781
0.0025757
-0.010181
-0.037607
0.0003433
-0.0073105
-0.038564
-0.062801
-0.073644
-0.072049
-0.067903
-0.070136
-0.087995
-0.083211
-0.054509
-0.042072
-0.036331
-0.025807
-0.010819
-0.0041214
0.022986
0.031915
0.026175
0.035742
0.051369
0.069547
0.056471
0.037337
0.012781
0.0044891
0.025856
0.034467
0.008635
-0.0012513
0.012143
0.018521
0.013419
0.03064
0.014375
-0.01911
0.008635
0.0099106
0.019159
0.024899
0.021391
0.0038513
-0.010819
0.0092728
-0.00093234
-0.011137
-0.0089051
-0.005716
0.031278
0.052326
0.060617
0.023624
-0.010819
-0.02517
-0.028359
-0.055466
-0.045899
-0.044304
-0.061844
-0.067266
-0.081298
-0.10809
-0.12626
-0.10553
-0.08927
-0.094373
-0.087357
-0.039839
-0.02517
0.012462
-0.010819
-0.033461
-0.043666
-0.053552
-0.047174
-0.028678
0.0054459
0.0041702
-0.023894
-0.03665
-0.037288
-0.024213
-0.021661
0.0003433
0.0038513
-0.027083
-0.023575
-0.020067
-0.0089051
-0.020705
-0.033142
-0.04845
-0.050363
-0.016559
-0.02804
-0.027402
-0.025488
-0.01624
-0.023256
-0.011456
-0.0034836
0.00066221
0.012781
0.024262
0.028407
0.013738
0.011824
0.043077
0.026813
0.052326
0.054239
0.049455
0.029683
0.028407
0.047542
0.067952
0.068909
0.070185
0.062531
0.052645
0.043715
0.023305
-0.0079484
-0.026764
-0.034418
-0.044623
-0.037926
-0.056423
-0.028996
-0.05419
-0.076833
-0.064395
-0.054509
-0.049407
-0.060887
-0.069179
-0.056104
-0.050044
-0.048769
-0.052915
-0.093735
-0.084168
-0.070455
-0.052596
-0.04558
-0.044942
-0.0073105
0.021072
0.063169
0.06572
0.067952
0.056471
0.061255
0.099843
0.11164
0.10144
0.079752
0.039569
0.063487
0.044991
0.067952
0.082941
0.067314
0.011824
-0.016559
-0.047493
-0.0060349
0.054877
0.040526
0.0076782
0.0067215
0.032553
-0.018153
-0.097243
-0.06599
-0.056742
-0.052277
-0.066309
-0.085125
-0.094373
-0.10203
-0.087676
-0.085443
-0.066309
-0.063439
-0.080341
-0.090546
-0.085443
-0.094054
-0.087357
-0.073006
-0.061206
-0.059931
-0.035694
-0.032186
-0.033142
-0.049088
-0.040796
-0.030272
-0.018153
-0.002208
0.0022568
-0.012094
-0.012413
-0.020067
-0.038564
-0.050682
-0.054509
-0.056423
-0.050682
-0.039839
-0.042072
-0.051958
-0.0034836
0.0038513
0.043396
0.12249
0.12185
0.073055
0.068909
0.10845
0.13492
0.13652
0.14066
0.12599
0.13907
0.12631
0.1059
0.16012
0.14991
0.13333
0.07433
0.11611
0.096973
0.059979
0.088044
0.12121
0.059661
0.042121
-0.01911
-0.086719
-0.13487
-0.078746
-0.042072
-0.06886
-0.12595
-0.13934
-0.14061
-0.13615
-0.097881
-0.073006
-0.081935
-0.091822
-0.052915
-0.017516
-0.037607
-0.04558
-0.038564
-0.047493
-0.036012
-0.021343
-0.0105
-0.050044
0.013419
0.085811
0.056153
0.020435
0.016608
0.021072
0.054877
0.072098
0.087725
0.079433
0.064763
0.055196
0.020116
0.044353
0.069547
0.071141
0.078795
0.022667
0.014056
-0.0031647
0.047542
0.18404
0.15246
0.13397
0.1059
0.050093
0.068909
0.12472
0.29821
0.33743
0.36167
0.24176
0.20317
0.17511
0.27716
0.31192
0.22294
0.24016
0.26185
0.16012
0.083898
0.095378
0.041483
-0.056423
-0.14061
-0.20121
-0.26244
-0.2315
-0.19834
-0.23661
-0.27232
-0.2634
-0.25032
-0.21014
-0.19993
-0.22353
-0.22736
-0.19738
-0.19068
-0.18845
-0.17219
-0.20854
-0.22895
-0.20822
-0.21747
-0.19674
-0.20886
-0.2213
-0.23469
-0.23756
-0.20312
-0.19898
-0.19866
-0.18367
-0.16071
-0.14604
-0.14476
-0.14572
-0.13519
-0.093416
-0.072049
-0.056742
-0.074919
-0.07779
-0.052277
-0.032186
-0.011775
0.023943
0.042439
0.15055
0.21306
0.19456
0.20349
0.18276
0.22486
0.24782
0.29661
0.32754
0.33329
0.29884
0.28928
0.30203
0.35465
0.34796
0.31447
0.35497
0.2172
0.20891
0.21529
0.13652
0.078795
0.050731
-0.0095429
-0.040477
-0.0079484
-0.10203
-0.13711
-0.11446
-0.16039
-0.25734
-0.25415
-0.24522
-0.29433
-0.31825
-0.3074
-0.28923
-0.25574
-0.25765
-0.27647
-0.27679
-0.24617
-0.18654
-0.14604
-0.14954
-0.1403
-0.11096
-0.073325
-0.042391
-0.027083
-0.021661
0.0041702
0.049774
0.073374
0.11069
0.1177
0.13269
0.18627
0.30076
0.43725
0.33807
0.3116
0.27301
0.24463
0.27205
0.3301
0.33105
0.30203
0.25898
0.14321
0.0099106
0.011824
0.014694
-0.082892
-0.15752
-0.22385
-0.24171
-0.26977
-0.26531
-0.22576
-0.22385
-0.21652
-0.23788
-0.26499
-0.24936
-0.23469
-0.20663
-0.17984
-0.19866
-0.21205
-0.17601
-0.15178
-0.14189
-0.13615
-0.12754
-0.076833
-0.005716
0.050731
0.098886
0.15725
0.095697
0.11005
0.16139
0.23761
0.2121
0.20508
0.16171
0.10048
0.05392
0.069547
0.11037
0.092827
0.0076782
-0.047174
-0.10266
-0.076833
-0.018472
-0.099794
-0.1033
-0.096924
-0.07779
-0.11638
-0.11191
-0.08353
0.02171
0.15565
0.23793
0.14481
0.070822
0.082941
0.051369
0.07752
0.096654
0.16012
0.16458
0.099524
0.083579
-0.014327
-0.092778
-0.013051
-0.0098618
-0.071411
-0.081617
-0.086081
-0.12563
-0.11638
-0.085443
0.053601
0.13237
0.041164
0.07433
0.18691
0.24909
0.17192
0.18563
0.19296
0.19233
0.27174
0.21943
0.19105
0.22932
0.17957
0.12982
0.10877
0.029683
0.024899
-0.026445
-0.13296
-0.24745
-0.2787
-0.22768
-0.20089
-0.21046
-0.30613
-0.28986
-0.20185
-0.18781
-0.1269
-0.13105
-0.13009
-0.10075
-0.04271
-0.00029452
0.03351
0.018202
0.13429
0.29215
0.23442
0.12855
0.12536
0.078157
0.094741
0.19871
0.14704
0.13556
0.12599
0.042758
0.11483
0.081984
0.029364
-0.026445
-0.035375
-0.00029452
-0.10649
-0.077471
-0.026126
-0.055466
0.13269
0.12057
0.071141
0.031915
0.12982
0.11292
0.11388
0.1295
0.1716
0.14959
0.099843
0.03351
0.028726
0.059661
0.069228
-0.11255
-0.21492
-0.19036
-0.13424
-0.10043
-0.084487
0.023624
0.07752
0.022986
-0.0076295
-0.024851
-0.034099
0.034467
0.11356
0.2306
0.14577
0.038612
0.00066221
-0.0053971
-0.075557
-0.10809
-0.11128
-0.15784
-0.22704
-0.20408
-0.19802
-0.093735
-0.09533
-0.14221
-0.1336
-0.11319
-0.12786
-0.1757
-0.15305
-0.022299
0.078476
0.036699
0.061255
0.041483
-0.0015702
-0.01624
-0.025807
-0.054828
-0.035056
-0.073644
-0.1403
-0.12467
-0.077471
-0.11223
-0.16677
-0.25638
-0.18909
-0.18207
-0.15369
-0.013051
-0.053234
-0.10458
0.092827
0.29916
0.25866
0.21178
0.19552
0.35657
0.45607
0.3285
0.32531
0.36837
0.36805
0.28481
0.30267
0.19552
0.012462
-0.039839
-0.10841
-0.14157
-0.169
-0.23724
-0.29943
-0.35779
-0.45091
-0.46558
-0.45251
-0.36449
-0.3849
-0.37214
-0.33866
-0.28859
-0.32207
-0.32718
-0.23501
-0.11223
-0.10968
-0.041434
0.13875
0.11738
0.21274
0.16012
0.14545
0.41429
0.41588
0.29565
0.29693
0.29821
0.36964
0.35561
0.3065
0.46085
0.49657
0.45447
0.3639
0.2593
0.025218
-0.045261
-0.026764
-0.017835
-0.044623
-0.063758
-0.19961
-0.2551
-0.26595
-0.31187
-0.25287
-0.16708
-0.15369
-0.1505
-0.20663
-0.16581
-0.16453
-0.13487
-0.085125
-0.036012
0.0019378
-0.037607
-0.065033
-0.080979
-0.1438
-0.22002
-0.24171
-0.17952
-0.2162
-0.17761
-0.12531
-0.18845
-0.15305
-0.12052
-0.058336
-0.0041214
-0.017835
0.014056
0.10941
0.25483
0.22549
0.24208
0.19679
0.11451
0.11037
0.11069
0.14991
0.1177
0.088362
0.12025
-0.0060349
-0.073006
-0.14699
-0.11223
0.09187
-0.094373
-0.20727
-0.24458
-0.18431
-0.14699
-0.10585
-0.032823
-0.088633
-0.023894
-0.01624
-0.12913
-0.13009
-0.068541
-0.005716
0.0028946
0.1716
0.28864
0.30108
0.32467
0.2424
0.15246
0.12249
0.12185
0.15119
0.26695
0.2121
0.14927
0.1665
-0.0041214
-0.21428
-0.11861
-0.059293
0.1228
0.052326
-0.086081
-0.19579
-0.14954
-0.091822
-0.099476
-0.057698
0.028088
0.081346
0.0035324
-0.069179
-0.087995
-0.084487
-0.1151
-0.12595
-0.27488
-0.30517
-0.30613
-0.2854
-0.24681
-0.27583
-0.30039
-0.26722
-0.23756
-0.19802
-0.16453
-0.061206
-0.12722
-0.13487
-0.091822
-0.03378
-0.035694
-0.012732
-0.0069916
0.056153
0.18212
0.25802
0.2475
0.19041
0.26025
0.18722
0.23155
0.30395
0.38782
0.29534
0.072417
0.056153
0.10622
0.18435
0.14832
0.10367
0.066995
0.38814
0.41588
0.11738
0.018521
0.10654
0.18722
0.18722
0.20987
0.29884
0.24814
0.15246
-0.0028458
0.022029
0.026813
-0.053871
-0.13487
-0.2162
-0.31378
-0.26403
-0.30581
-0.29529
-0.21875
-0.17538
-0.19674
-0.22481
-0.21556
-0.14954
-0.11574
-0.13743
-0.18399
-0.17442
-0.10968
-0.16007
-0.2213
-0.09533
0.066677
0.27269
0.18978
0.024262
0.041483
0.10048
0.1547
0.20445
0.28928
0.34859
0.23761
0.23028
0.14258
0.18212
0.20285
0.10303
0.16713
0.18531
0.092508
0.020754
-0.034099
-0.050363
-0.022299
0.022348
-0.014327
-0.00061343
0.045947
-0.012413
-0.090227
-0.17378
-0.21237
-0.095968
-0.064714
-0.10266
-0.076514
-0.14412
-0.17378
-0.19005
-0.132
-0.091503
-0.058017
-0.12595
-0.090227
0.031278
0.0099106
-0.035694
-0.096924
-0.13264
-0.23342
-0.18494
-0.086719
-0.065033
-0.10745
-0.1403
-0.072368
0.032872
0.0089539
-0.05419
0.092189
0.047542
0.0032135
0.042121
0.11483
0.090595
0.12344
0.12918
0.042758
-0.015283
-0.01911
0.024899
0.029683
-0.052277
-0.10011
-0.19642
-0.26531
-0.29529
-0.27711
-0.30485
-0.30326
-0.30517
-0.31251
-0.26148
-0.18877
0.045629
0.094422
0.039569
-0.060569
0.010867
0.13492
0.23219
0.49593
0.51538
0.44746
0.37379
0.60595
0.57629
0.53898
0.43534
0.68154
0.51506
0.26504
0.21497
0.17064
0.25101
0.16394
-0.050044
-0.041434
-0.00061343
-0.13647
-0.3208
-0.38458
-0.43497
-0.48217
-0.48217
-0.50226
-0.41839
-0.38905
-0.31059
-0.28221
-0.25191
-0.23055
-0.2264
-0.19324
-0.12276
0.0016189
0.069547
0.074968
0.10271
0.0067215
-0.092141
-0.038564
-0.031548
-0.083211
-0.055466
-0.053234
-0.074601
-0.084806
-0.12977
-0.15784
-0.12945
-0.11446
-0.12945
-0.10107
-0.098838
-0.083211
-0.065033
-0.065671
-0.094373
-0.14253
0.091233
0.28322
0.18435
0.13811
0.069866
0.029364
0.067314
0.091552
0.16363
0.23953
0.17415
0.13779
0.17064
0.20827
0.064444
-0.039202
0.1059
0.10718
0.046904
0.1346
0.1531
0.16235
0.20955
0.16873
0.2762
0.42609
0.41206
0.25675
0.25675
0.30395
0.26281
0.28385
0.32754
0.24303
0.19328
0.074649
0.029364
0.073055
0.03925
-0.074601
-0.15497
-0.26212
-0.29082
-0.21046
-0.26276
-0.3141
-0.3511
-0.32782
-0.43242
-0.45474
-0.33228
-0.29943
-0.31825
-0.36258
-0.38139
-0.33037
-0.34631
-0.25096
-0.14891
-0.20854
-0.2567
-0.26403
-0.21652
-0.1757
-0.22513
-0.22704
-0.21365
-0.030591
0.0003433
0.008635
-0.054828
-0.034099
-0.039839
-0.043985
0.0070404
0.05392
0.055515
0.060936
0.06572
0.012781
2.4388e-05
0.026175
0.14353
0.18499
0.19105
0.11132
0.1413
0.14545
0.23283
0.46021
0.65156
0.61169
0.5629
0.53229
0.43661
0.47998
0.48126
0.43438
0.2829
0.35848
0.30458
0.1295
0.14098
0.030002
-0.040158
-0.077471
-0.23119
-0.21141
-0.2162
-0.26053
-0.25638
-0.19866
-0.27583
-0.29624
-0.30294
-0.25702
-0.31442
-0.25255
-0.2264
-0.23756
-0.23788
-0.1521
-0.1454
-0.14891
-0.20503
-0.19929
-0.16198
-0.15114
-0.17665
-0.13424
-0.1269
-0.15273
-0.096286
-0.086719
-0.027721
0.028726
-0.047493
-0.084806
-0.047812
-0.020067
-0.0015702
-0.040477
-0.055147
0.0028946
-0.05419
-0.059293
-0.036012
-0.011775
0.092827
0.019797
-0.043347
-0.062482
-0.042391
-0.057061
-0.04271
0.037337
0.12855
0.17925
0.35019
0.2424
0.25356
0.3285
0.22964
0.15438
0.14417
0.15342
0.25005
0.20381
0.16745
0.17
0.16044
0.20445
0.1834
0.14417
0.18308
0.18754
0.20891
0.19328
0.097611
0.13843
0.17861
0.14832
0.15278
0.12057
0.16586
0.09793
-0.031229
-0.046536
-0.036012
-0.053552
-0.0982
-0.13966
-0.14891
-0.087995
0.012462
-0.087357
-0.24617
-0.2162
-0.13264
-0.18303
-0.16166
-0.14221
-0.24968
-0.2669
-0.22002
-0.2197
-0.24043
-0.27838
-0.3495
-0.39702
-0.39287
-0.34886
-0.35365
-0.36481
