-0.028677512
-0.081616572
-0.059292872
-0.033461162
-0.040158272
-0.006353812
0.008953868
-0.003483622
-0.007948362
0.047541978
0.049774348
0.010548418
-0.017834572
-0.048131022
0.029045198
0.028726288
-0.013688742
-0.023256042
-0.067903442
-0.045260832
0.026493918
0.032872118
-0.021661492
0.025218278
0.040844868
0.016926618
0.071460228
0.048179798
0.015969888
0.022985908
0.001618938
0.007359318
0.015013158
0.005126948
-0.034736802
-0.050363392
-0.037288082
0.003851308
0.037974678
-0.027720782
-0.019748032
0.018202258
0.026175008
0.057109278
0.022985908
-0.041433912
-0.044304102
0.017245528
-0.010499642
-0.028996422
-0.020385852
-0.073006002
-0.053233582
-0.027082962
-0.029953152
-0.000613432
0.015332068
0.004489128
-0.000294522
0.049774348
0.053601268
0.015332068
-0.012732012
-0.043028462
0.032872118
0.035423398
-0.001889072
-0.017515662
-0.061206332
-0.038882632
0.032553208
0.041482688
-0.016558932
0.028726288
0.046904158
0.023623728
0.078795158
0.053920178
0.021072448
0.028726288
0.011505148
0.014056428
0.024899368
0.017245528
-0.025169502
-0.034736802
-0.020066942
0.018521168
0.056790368
-0.001570162
0.002575668
0.038293588
0.052006718
0.081984258
0.047541978
-0.014964382
-0.018472392
0.045947428
0.024261548
0.001618938
0.007040408
-0.045260832
-0.024212772
0.002894578
-0.005078172
0.018840078
0.041163778
0.026175008
0.017245528
0.066357668
0.063806388
0.027131738
2.44E-05
-0.035374622
0.037017948
0.038612498
-0.005078172
-0.021023672
-0.063438702
-0.043028462
0.026812828
0.031277568
-0.028358602
0.012461878
0.030001928
0.005764768
0.059979468
0.031915388
-0.004759262
0.001300028
-0.012413102
-0.013688742
-0.007948362
-0.010180732
-0.056422682
-0.062163062
-0.045898652
-0.013050922
0.022985908
-0.028677512
-0.026764052
0.007997138
0.024261548
0.050731078
0.016288798
-0.043985192
-0.050363392
0.015650978
-0.005397082
-0.030590972
-0.022299312
-0.075876192
-0.055147042
-0.026445142
-0.032185522
-0.012732012
0.012461878
2.44E-05
-0.012413102
0.038293588
0.034466668
-0.001889072
-0.026445142
-0.061844152
0.008953868
0.012780788
-0.030590972
-0.049406662
-0.091183872
-0.066627802
0.005126948
0.012142968
-0.054190312
-0.013369832
0.007359318
-0.012094192
0.041482688
0.013737518
-0.021661492
-0.017196752
-0.021661492
-0.027720782
-0.019748032
-0.021342582
-0.063757612
-0.064714342
-0.046536472
-0.014964382
0.026812828
-0.031547702
-0.025169502
0.011186238
0.031915388
0.058703828
0.025218278
-0.036650262
-0.044304102
0.024899368
0.004808038
-0.022299312
-0.015921112
-0.070773632
-0.047812112
-0.017196752
-0.025488412
-0.012094192
0.016607708
0.003851308
-0.009542912
0.039569228
0.034147758
-0.001570162
-0.021980402
-0.060568512
0.005764768
0.008634958
-0.032504432
-0.050682302
-0.089270412
-0.070454722
2.44E-05
0.007678228
-0.058336142
-0.018791302
0.001937848
-0.016240022
0.034466668
0.005764768
-0.031228792
-0.024850592
-0.028677512
-0.040796092
-0.033142252
-0.033780072
-0.077151832
-0.080340932
-0.063438702
-0.040158272
0.000343298
-0.044623012
-0.046855382
-0.012732012
0.008953868
0.033828848
-0.001889072
-0.064395432
-0.069816902
0.000981118
-0.018791302
-0.047174292
-0.038882632
-0.092459512
-0.070454722
-0.036012442
-0.043028462
-0.033142252
0.001618938
-0.010818552
-0.028039692
0.026175008
0.019477898
-0.016558932
-0.032504432
-0.071411452
-0.006991632
-0.001570162
-0.041433912
-0.059611782
-0.097243162
-0.077470742
-0.006991632
0.001937848
-0.064714342
-0.026764052
-0.002207982
-0.019429122
0.030958658
0.001937848
-0.037288082
-0.029953152
-0.027401872
-0.042709552
-0.036012442
-0.033780072
-0.080340932
-0.080022022
-0.061844152
-0.043666282
-0.001889072
-0.044941922
-0.045579742
-0.014645472
0.006721498
0.030001928
-0.003802532
-0.065352162
-0.074919462
2.44E-05
-0.018472392
-0.049725572
-0.043028462
-0.091502782
-0.067903442
-0.032504432
-0.038563722
-0.033461162
0.005445858
-0.006353812
-0.020066942
0.033828848
0.025856098
-0.005078172
-0.021023672
-0.059611782
0.001618938
0.007997138
-0.028996422
-0.049406662
-0.085443492
-0.065989982
0.003851308
0.013737518
-0.054509222
-0.019429122
0.007678228
-0.010818552
0.039569228
0.011186238
-0.029315332
-0.022937132
-0.017196752
-0.034417892
-0.029634242
-0.025807322
-0.070773632
-0.068541262
-0.053552492
-0.034417892
0.008316048
-0.032504432
-0.033780072
-0.003483622
0.021072448
0.041482688
0.007040408
-0.053233582
-0.061206332
0.015013158
-0.000932342
-0.034098982
-0.030909882
-0.081616572
-0.055784862
-0.015921112
-0.021980402
-0.021023672
0.019158988
0.009272778
-0.008905092
0.040844868
0.034466668
0.001300028
-0.007629452
-0.047493202
0.009591688
0.014694248
-0.017834572
-0.041752822
-0.074600552
-0.058017232
0.013737518
0.028726288
-0.043028462
-0.008905092
0.018202258
0.003532398
0.052325628
0.024580458
-0.015921112
-0.012094192
2.44E-05
-0.020066942
-0.015602202
-0.010499642
-0.058973962
-0.055465952
-0.039201542
-0.022618222
0.024899368
-0.018472392
-0.020066942
0.007040408
0.035104488
0.055195818
0.018202258
-0.042071732
-0.050682302
0.025537188
0.010229508
-0.023893862
-0.019110212
-0.073006002
-0.048131022
-0.007629452
-0.013688742
-0.019110212
0.024261548
0.015650978
-0.006991632
0.047541978
0.037974678
0.002256758
-0.005715992
-0.046536472
0.015013158
0.035423398
0.009591688
-0.026445142
-0.060249602
-0.037288082
0.030001928
0.046904158
-0.021661492
0.012142968
0.043077238
0.028726288
0.078157338
0.043715058
-0.010818552
-0.014964382
0.001618938
-0.020385852
-0.022937132
-0.023256042
-0.072049272
-0.069816902
-0.058017232
-0.050682302
-0.006034902
-0.041115002
-0.047493202
-0.025169502
0.003213488
0.019158988
-0.017196752
-0.076514012
-0.086719132
-0.009224002
-0.021342582
-0.052276852
-0.045579742
-0.097243162
-0.070773632
-0.025807322
-0.026126232
-0.032504432
0.015332068
0.008953868
-0.009542912
0.047860888
0.038612498
0.009910598
0.005445858
-0.034098982
0.014056428
0.018202258
-0.009224002
-0.032823342
-0.064076522
-0.047174292
0.023623728
0.035423398
-0.036331352
-0.006034902
0.025537188
0.010548418
0.058703828
0.028726288
-0.016877842
-0.012413102
0.007997138
-0.014326562
-0.015283292
-0.007310542
-0.057060502
-0.049725572
-0.033461162
-0.025169502
0.024899368
-0.008905092
-0.013688742
0.009272778
0.039888138
0.057747098
0.019796808
-0.036012442
-0.050363392
0.028088468
0.015650978
-0.021661492
-0.016877842
-0.069816902
-0.047493202
-0.003164712
-0.005397082
-0.018153482
0.028088468
0.018521168
-0.004759262
0.051049988
0.035104488
0.002256758
-0.004121442
-0.046217562
0.000343298
0.020434628
-0.005715992
-0.028039692
-0.065671072
-0.036969172
0.057428188
0.058384918
-0.002845802
0.027769558
0.057747098
0.054557998
0.095059568
0.067633308
0.023623728
0.015332068
0.032234298
0.006402588
0.002256758
-0.006672722
-0.073643822
-0.067265622
-0.054828132
-0.058017232
-0.012413102
-0.031228792
-0.038563722
-0.024850592
2.44E-05
0.023304818
-0.013369832
-0.061206332
-0.070773632
0.002894578
-0.007948362
-0.048131022
-0.039201542
-0.090546052
-0.073006002
-0.026126232
-0.026126232
-0.049406662
-0.003802532
-0.013369832
-0.032504432
0.026175008
0.008953868
-0.021342582
-0.020385852
-0.055784862
-0.013688742
-0.001251252
-0.026445142
-0.053552492
-0.078746382
-0.059611782
0.009272778
0.025856098
-0.047812112
-0.019429122
0.017245528
0.005764768
0.050412168
0.022985908
-0.025169502
-0.023893862
0.005126948
-0.021342582
-0.022618222
-0.014645472
-0.064395432
-0.056422682
-0.040158272
-0.035693532
0.006083678
-0.014326562
-0.025488412
-0.006672722
0.029364108
0.044033968
0.007359318
-0.048449932
-0.062163062
0.015650978
0.004808038
-0.032823342
-0.033142252
-0.086081312
-0.064395432
-0.012413102
-0.020704762
-0.044941922
0.017883348
0.031915388
-0.000294522
0.044352878
0.041482688
0.033509938
0.035423398
-0.020704762
0.019796808
0.031277568
0.006721498
-0.031228792
-0.045579742
-0.030272062
0.028726288
0.053601268
-0.020704762
-0.003802532
0.014694248
-0.003164712
0.043715058
0.011186238
-0.037606992
-0.040796092
-0.003483622
-0.023893862
-0.022299312
-0.016558932
-0.071411452
-0.060249602
-0.042390642
-0.028358602
0.020434628
-0.002207982
-0.009542912
0.010229508
0.048179798
0.058066008
0.020434628
-0.020066942
-0.025807322
0.043396148
0.031915388
-0.004440352
0.008316048
-0.034417892
-0.013369832
0.047541978
0.049455438
0.021710268
0.072416958
0.063487478
0.027131738
0.083259898
0.060936198
0.027769558
0.035742308
-0.001889072
0.012461878
0.011505148
-0.020066942
-0.060249602
-0.086719132
-0.080340932
-0.028677512
-0.008905092
-0.079703112
-0.061844152
-0.033461162
-0.036331352
-0.000613432
-0.032823342
-0.081297662
-0.076195102
-0.034417892
-0.064714342
-0.071411452
-0.048131022
-0.089908232
-0.064076522
-0.039201542
-0.047812112
-0.003483622
-0.010499642
-0.019748032
-0.006991632
0.022348088
0.037655768
0.008634958
-0.039839362
-0.058655052
0.015650978
0.022985908
-0.010499642
-0.031547702
-0.088313682
-0.050363392
0.020434628
0.041801598
0.049136528
0.086448998
0.100799948
0.073054778
0.114831988
0.104945778
0.071141318
0.082940988
0.046904158
0.083578808
0.081984258
0.050093258
-0.001889072
-0.042390642
-0.019748032
0.018840078
0.008953868
-0.066946712
-0.046855382
-0.006672722
-0.007310542
0.011824058
-0.031228792
-0.075238372
-0.067265622
-0.036650262
-0.057060502
-0.077151832
-0.051957942
-0.088313682
-0.064395432
-0.039520452
-0.063438702
-0.021661492
-0.023574952
-0.018153482
0.012142968
0.047541978
0.048817618
0.008316048
-0.039201542
-0.059611782
0.027131738
0.020753538
-0.021023672
-0.026445142
-0.078746382
-0.065352162
-0.006353812
-0.006034902
-0.046217562
-0.004759262
-0.007629452
-0.033142252
0.024580458
0.002575668
-0.028996422
-0.026445142
-0.057698322
-0.030909882
-0.017515662
-0.028039692
-0.063757612
-0.081297662
-0.058973962
-0.000932342
0.025537188
-0.040477182
-0.020066942
0.017564438
0.020115718
0.053920178
0.026493918
-0.038563722
-0.037288082
0.019158988
-0.017515662
-0.036012442
-0.022618222
-0.078746382
-0.065671072
-0.045260832
-0.050682302
-0.001570162
-0.005078172
-0.013688742
-0.011137462
0.024899368
0.035423398
2.44E-05
-0.037606992
-0.034417892
0.041163778
0.036699038
-0.003483622
-0.016558932
-0.055784862
-0.032504432
0.030958658
0.022029178
-0.012413102
0.040525958
0.056471458
0.009272778
0.045309608
0.011824058
-0.007948362
0.006402588
-0.017834572
-0.015283292
-0.018472392
-0.027720782
-0.047174292
-0.045579742
-0.032504432
0.008316048
0.049774348
-0.004759262
-0.000932342
0.044990698
0.044033968
0.088681368
0.056790368
0.012142968
0.002894578
0.020115718
-0.022618222
-0.048768842
-0.050682302
-0.080340932
-0.060568512
-0.034098982
-0.062481972
-0.041115002
-0.031866612
-0.028358602
-0.023893862
0.030320838
0.048498708
0.011505148
-0.028039692
-0.043028462
0.040525958
0.045947428
0.010548418
2.44E-05
-0.067584532
-0.031866612
0.046585248
0.028726288
-0.030590972
2.44E-05
0.012461878
-0.000932342
0.052006718
0.048498708
0.038293588
0.034785578
0.007678228
0.010229508
0.017564438
0.028407378
-0.020066942
-0.049725572
-0.024850592
0.027450648
0.035104488
-0.037925902
-0.009861822
-0.006353812
-0.010818552
0.012461878
-0.014964382
-0.084167852
-0.087994772
-0.040477182
-0.076195102
-0.085124582
-0.074281642
-0.114464302
-0.089908232
-0.047493202
-0.070135812
-0.044623012
-0.041752822
-0.074600552
-0.083848942
-0.029953152
-0.025169502
-0.048449932
-0.075876192
-0.090864962
-0.038882632
-0.055147042
-0.073962732
-0.070135812
-0.113507572
-0.077789652
0.001618938
0.035742308
-0.004440352
0.050731078
0.075606058
0.069227858
0.119296728
0.102075588
0.091870468
0.094102838
0.060617288
0.091232648
0.089319188
0.066357668
0.020115718
0.005126948
0.023942638
0.061574018
0.090913738
0.046904158
0.026493918
0.047223068
0.076243878
0.079114068
0.026175008
-0.029634242
-0.033142252
-0.008267272
-0.014326562
-0.045579742
-0.060568512
-0.106491552
-0.106172642
-0.107448282
-0.126263972
-0.073643822
-0.056741592
-0.087038042
-0.109042832
-0.065352162
-0.057698322
-0.086400222
-0.113188662
-0.130409802
-0.033461162
0.000981118
-0.061844152
-0.084805672
-0.130409802
-0.091183872
-0.025169502
-0.028358602
-0.072368182
-0.018153482
-0.001889072
-0.012094192
0.032234298
0.022029178
-0.017515662
0.002256758
-0.022618222
-0.013688742
0.021072448
0.012780788
-0.011456372
-0.004759262
0.062849658
0.143852798
0.152782278
0.066038758
0.072416958
0.119934548
0.144809528
0.195197308
0.163306308
0.097929758
0.069546768
0.102394498
0.039250318
0.018521168
0.026493918
-0.008905092
-0.006991632
-0.004121442
-0.039839362
-0.032185522
-0.026126232
-0.034736802
-0.043028462
-0.011456372
-0.023893862
-0.069816902
-0.110637382
-0.128177432
-0.051957942
-0.061206332
-0.105215912
-0.119885772
-0.165808812
-0.131047622
-0.055147042
-0.051320122
-0.118929042
-0.081935482
-0.064076522
-0.081935482
0.002256758
0.000343298
-0.024212772
-0.041115002
-0.062481972
-0.031228792
-0.013688742
0.030958658
0.023942638
0.007040408
0.048179798
0.080070798
0.106540328
0.099843218
0.126312748
0.169046688
0.175105978
0.211461718
0.145766258
0.061574018
0.043077238
0.117383268
0.078795158
0.043715058
0.025218278
-0.076832922
-0.087038042
-0.070454722
-0.083848942
-0.056103772
-0.043985192
-0.074600552
-0.087994772
-0.015921112
-0.022299312
-0.065352162
-0.105853732
-0.127858522
-0.047493202
-0.046855382
-0.104897002
-0.110637382
-0.147312032
-0.126263972
-0.039201542
-0.033780072
-0.105853732
-0.032823342
-0.016558932
-0.051001212
0.007997138
-0.010818552
-0.012094192
0.026175008
0.017245528
0.028088468
0.032234298
0.018521168
-0.015921112
-0.036012442
-0.011775282
0.040844868
0.082303168
0.013737518
0.003532398
0.022348088
0.033509938
0.066357668
0.064763118
-0.004440352
-0.014326562
0.053920178
0.014694248
-0.021023672
-0.016240022
-0.072049272
-0.037288082
0.003213488
-0.003164712
-0.000613432
0.017564438
-0.047812112
-0.023574952
0.029045198
0.025537188
-0.031547702
-0.073962732
-0.098518802
-0.034417892
-0.033780072
-0.074600552
-0.073324912
-0.118929042
-0.109042832
-0.032823342
-0.004440352
-0.078427472
-0.029953152
-0.004759262
-0.030272062
0.009591688
0.009272778
-0.009224002
0.024899368
0.026812828
0.018202258
0.032872118
0.037336858
0.001300028
0.009591688
0.028088468
0.078157338
0.147998628
0.103032318
0.088362458
0.140982608
0.156609198
0.173830338
0.184992188
0.125356018
0.137793508
0.194240578
0.115150898
0.089957008
0.112918528
0.078795158
0.092508288
0.093465018
0.030001928
0.045947428
0.051687808
0.025856098
-0.020385852
0.035104488
0.046904158
-0.029953152
-0.085443492
-0.130409802
-0.082573302
-0.101388992
-0.150182222
-0.163257532
-0.196743082
-0.175695022
-0.110318472
-0.134555632
-0.178565212
-0.115421032
-0.107448282
-0.136150182
-0.056741592
-0.074600552
-0.086400222
-0.061525242
-0.052914672
-0.069179082
-0.036969172
-0.008586182
-0.060568512
-0.065989982
-0.037288082
-0.003164712
0.030001928
-0.028996422
-0.035055712
-0.007310542
0.004170218
0.028726288
0.010867328
-0.048768842
-0.057698322
0.048817618
0.040525958
0.035104488
0.040207048
-0.004440352
0.033191028
0.053920178
0.056790368
0.098567578
0.118658908
0.118339998
0.111642888
0.165857588
0.127269478
0.051049988
0.005764768
-0.007948362
0.057428188
0.039250318
-0.018153482
-0.017515662
-0.049725572
-0.040477182
0.045309608
0.065400938
-0.001570162
0.021391358
0.017883348
-0.021342582
0.049136528
0.040844868
-0.003483622
-0.012413102
-0.037288082
-0.074600552
-0.075557282
-0.058655052
-0.097880982
-0.123712692
-0.103302452
-0.067584532
-0.026126232
-0.076832922
-0.050044482
-0.028677512
0.006721498
0.062849658
0.059660558
-0.018153482
-0.003483622
0.061255108
0.070184588
0.033191028
0.039569228
0.004489128
0.015969888
0.043715058
0.045628518
0.053601268
0.079432978
0.065082028
0.081027528
0.126631658
0.125993838
0.089000278
0.044671788
-0.003483622
0.044990698
0.038931408
2.44E-05
-0.014645472
-0.047493202
-0.067584532
-0.000932342
0.013099698
-0.054509222
-0.005715992
0.013737518
-0.043347372
-0.019110212
-0.036012442
-0.052914672
-0.028996422
-0.032185522
-0.064714342
-0.049406662
-0.041433912
-0.096605342
-0.084167852
-0.070135812
-0.058336142
-0.035055712
-0.081616572
-0.058336142
-0.037288082
-0.004440352
0.015013158
-0.049087752
-0.104897002
-0.086719132
-0.014645472
-0.046217562
-0.078746382
-0.059930692
-0.070454722
-0.031228792
-0.016877842
-0.014964382
-0.001889072
0.043077238
0.038293588
0.047541978
0.126312748
0.120572368
0.083259898
0.043396148
-0.009542912
0.068908948
0.103351228
0.035104488
0.016926618
-0.033142252
-0.012094192
0.020115718
0.024899368
-0.051639032
-0.027720782
-0.004759262
-0.021342582
0.034147758
-0.006991632
-0.041752822
-0.028996422
-0.028677512
-0.053233582
-0.075238372
-0.080340932
-0.125945062
-0.088313682
-0.087038042
-0.072687092
-0.042709552
-0.116058852
-0.120523592
-0.070454722
-0.034098982
-0.029315332
-0.070135812
-0.146993122
-0.144441842
-0.067584532
-0.078746382
-0.083211122
-0.040158272
-0.100113352
-0.079065292
-0.050682302
-0.047812112
-0.032185522
0.005764768
-0.008905092
0.003213488
0.074011508
0.048817618
0.005764768
-0.013688742
-0.057698322
-0.012413102
-0.013688742
-0.060887422
-0.077470742
-0.103621362
-0.066627802
0.010548418
0.019796808
-0.040158272
-0.005715992
0.004808038
-0.023574952
0.032553208
0.022666998
0.005764768
0.021072448
0.035742308
0.030001928
0.020753538
0.008634958
-0.032185522
-0.042071732
-0.038882632
-0.044304102
0.011186238
-0.009224002
-0.006034902
-0.001251252
0.025537188
0.059660558
0.027450648
-0.061206332
-0.073962732
-0.000294522
-0.011775282
-0.043985192
-0.035374622
-0.098199892
-0.074600552
-0.037925902
-0.036650262
-0.038882632
-0.011456372
-0.039520452
-0.063119792
-0.010818552
-0.009224002
-0.030909882
-0.032504432
-0.076514012
-0.031228792
-0.021980402
-0.066946712
-0.087994772
-0.104897002
-0.089908232
-0.034417892
-0.020704762
-0.089270412
-0.051001212
-0.024212772
-0.048768842
0.004170218
-0.023256042
-0.063438702
-0.050044482
-0.026126232
-0.061844152
-0.051957942
-0.042390642
-0.075876192
-0.077470742
-0.057060502
-0.050682302
0.010548418
-0.015921112
-0.013369832
-0.001570162
0.007997138
0.017883348
-0.007310542
-0.065671072
-0.066946712
0.024261548
-0.001570162
-0.025807322
-0.021342582
-0.048131022
-0.017834572
0.045309608
0.034785578
0.060617288
0.103989048
0.091232648
0.096654118
0.163944128
0.163625218
0.136836778
0.103032318
0.051049988
0.132053128
0.121848008
0.081665348
0.036699038
-0.033780072
-0.058017232
-0.022299312
2.44E-05
-0.065671072
-0.046855382
-0.038882632
-0.075238372
-0.041752822
-0.081297662
-0.134555632
-0.121799232
-0.125945062
-0.094054062
-0.067903442
-0.087675862
-0.145398572
-0.146674212
-0.132323262
-0.106810462
-0.051639032
-0.067584532
-0.090227142
-0.057060502
-0.036969172
-0.020066942
-0.046536472
-0.098837712
-0.107129372
-0.007310542
-0.029953152
-0.072049272
-0.054190312
-0.110956292
-0.081616572
-0.043028462
-0.037288082
-0.053552492
-0.019748032
-0.031228792
-0.050682302
-0.007948362
-0.023574952
-0.048768842
-0.038244812
-0.065671072
-0.029953152
-0.045898652
-0.074919462
-0.095967522
-0.111913022
-0.094054062
-0.008586182
0.009910598
-0.052914672
-0.043666282
-0.024212772
-0.034736802
0.040207048
0.005764768
-0.045260832
-0.041433912
-0.014645472
-0.045260832
-0.021342582
-0.023574952
-0.073324912
-0.072687092
-0.055465952
-0.053233582
0.001618938
-0.032504432
-0.039839362
-0.024212772
0.025537188
0.033191028
-0.011456372
-0.062163062
-0.055465952
0.014694248
-0.003802532
-0.039520452
-0.011137462
-0.001251252
0.044990698
0.098567578
0.094102838
0.087724638
0.138112418
0.135880048
0.109729428
0.164581948
0.160755028
0.101118858
0.032234298
-0.061206332
0.034785578
0.094740658
0.013737518
-0.033142252
-0.079384202
-0.121799232
-0.102026812
-0.078746382
-0.132004352
-0.113188662
-0.080659842
-0.090864962
-0.042709552
-0.075876192
-0.113188662
-0.120523592
-0.120842502
-0.150820042
-0.138701462
-0.143485112
-0.196105262
-0.177927392
-0.174419382
-0.164214262
-0.113507572
-0.098837712
-0.099156622
-0.080659842
-0.074919462
-0.028039692
-0.035693532
-0.073006002
-0.063119792
0.029364108
0.030320838
-0.013050922
-0.002207982
-0.048449932
-0.035693532
-0.008586182
-0.027082962
-0.059611782
-0.005397082
-0.021980402
-0.052914672
-0.006672722
-0.006034902
-0.025807322
-0.033780072
-0.081297662
-0.034736802
-0.020066942
-0.034736802
-0.024531682
-0.007310542
-0.002845802
0.054876908
0.086767908
0.046266338
0.066995488
0.091870468
0.070822408
0.112280708
0.091232648
0.039888138
0.023942638
0.026175008
-0.013688742
-0.006034902
-0.011775282
-0.063119792
-0.046855382
-0.017834572
-0.044623012
-0.031547702
-0.021661492
0.000662208
-0.010180732
0.013099698
0.074330418
0.026175008
-0.044304102
-0.070454722
0.041801598
0.049136528
-0.011775282
-0.016558932
-0.067903442
-0.059292872
-0.015921112
-0.049725572
-0.074919462
-0.027082962
-0.024850592
-0.043028462
-0.010499642
-0.023893862
-0.066627802
-0.067903442
-0.101707902
-0.055784862
-0.040158272
-0.058336142
-0.077789652
-0.094054062
-0.070773632
-0.003483622
0.026175008
-0.006991632
0.037017948
0.022666998
0.003213488
0.046266338
0.016288798
-0.038563722
-0.036012442
-0.016240022
-0.019110212
-0.008586182
-0.006991632
-0.069497992
-0.063757612
-0.058017232
-0.054509222
-0.012094192
-0.017515662
-0.010818552
0.005445858
0.031915388
0.043715058
0.011505148
-0.035055712
-0.043347372
0.027131738
-0.009861822
-0.049087752
-0.040158272
-0.091821692
-0.053233582
-0.007310542
-0.017834572
-0.066627802
-0.023574952
-0.049725572
-0.078746382
0.020115718
0.004170218
-0.044623012
-0.048131022
-0.093416242
-0.090864962
-0.059930692
-0.091183872
-0.117015582
-0.110637382
-0.040477182
0.054239088
0.033828848
-0.032823342
-0.025807322
-0.001570162
0.065400938
0.111005068
0.039250318
-0.006034902
0.017564438
0.038293588
-0.008905092
-0.044941922
-0.049087752
-0.091821692
-0.075876192
-0.071092542
-0.096605342
-0.059611782
-0.084486762
-0.094372972
-0.080659842
-0.042071732
-0.031866612
-0.042709552
-0.073643822
-0.072049272
-0.011456372
-0.021023672
-0.056741592
-0.063438702
-0.106172642
-0.087038042
-0.047493202
-0.047493202
-0.061844152
0.005764768
2.44E-05
-0.027082962
0.002256758
-0.045260832
-0.066946712
-0.039201542
-0.058655052
-0.025488412
-0.020704762
-0.051639032
-0.074919462
-0.105534822
-0.101707902
-0.047493202
-0.024850592
-0.075557282
-0.049725572
-0.012094192
-0.012732012
0.030958658
0.015969888
-0.047812112
-0.056103772
-0.040796092
-0.038244812
-0.008586182
0.014694248
-0.018472392
-0.006672722
0.011505148
0.000662208
0.073054778
0.064763118
0.032872118
0.071141318
0.118658908
0.115788718
0.112599618
0.031915388
-0.000294522
0.052325628
0.066357668
0.022985908
0.012142968
-0.044941922
-0.006353812
0.048817618
0.043077238
-0.018153482
0.012780788
0.034147758
0.011186238
0.057747098
0.084535538
0.050093258
0.067952218
0.015332068
0.036380128
0.045309608
0.026175008
-0.036969172
-0.055784862
-0.017515662
0.014694248
0.016288798
-0.046855382
-0.030590972
-0.009224002
-0.037288082
-0.011775282
-0.053233582
-0.094691882
-0.086719132
-0.040158272
-0.073643822
-0.071092542
-0.053233582
-0.091183872
-0.075238372
-0.048768842
-0.047812112
-0.010818552
-0.001570162
-0.020385852
-0.018153482
0.024261548
0.037974678
-0.007629452
-0.052276852
-0.067584532
-0.011456372
-0.021342582
-0.057698322
-0.050044482
-0.088632592
-0.089270412
-0.027401872
-0.025488412
-0.051001212
-0.008267272
-0.012094192
-0.032504432
0.026175008
0.020115718
0.024261548
0.022985908
-0.014326562
2.44E-05
0.065082028
0.057109278
-0.004440352
-0.034736802
-0.010180732
0.043396148
0.070503498
0.022029178
0.042120508
0.074011508
0.070822408
0.092508288
0.050093258
-0.017515662
-0.021023672
0.013737518
-0.028358602
-0.045898652
-0.022937132
-0.077151832
-0.043028462
-0.042709552
-0.053233582
-0.017834572
-0.000932342
-0.017515662
-0.023256042
0.023942638
0.046266338
0.017883348
-0.026764052
-0.043985192
0.035104488
0.036380128
-0.009224002
-0.019748032
-0.066627802
-0.031228792
0.023942638
0.024899368
-0.013050922
0.036699038
0.043715058
0.003213488
0.050731078
0.067314398
0.050093258
0.048498708
0.015013158
0.043715058
0.056152548
0.013099698
-0.028996422
-0.017834572
0.004808038
0.053920178
0.092508288
-0.006353812
-0.021023672
0.024899368
0.002256758
0.028407378
-0.015921112
-0.068860172
-0.070135812
-0.005715992
-0.030590972
-0.024531682
-0.019748032
-0.088951502
-0.064076522
-0.036331352
-0.039201542
0.002894578
0.010229508
0.014375338
0.032234298
0.072735868
0.062849658
0.026812828
0.001937848
-0.016558932
0.044352878
0.028407378
-0.016877842
-0.025169502
-0.074600552
-0.053233582
0.017883348
0.038931408
-0.015921112
0.007359318
0.009910598
0.012461878
0.049455438
0.012142968
-0.010180732
-0.002207982
-0.025807322
-0.013688742
-0.019429122
-0.031866612
-0.066946712
-0.077789652
-0.062800882
-0.011775282
0.021391358
-0.027720782
-0.031228792
-0.011775282
-0.002526892
0.048498708
0.030958658
-0.023256042
-0.022299312
0.029364108
0.005126948
0.000343298
0.010867328
-0.031228792
-0.016240022
-0.017515662
-0.014964382
0.030958658
0.030001928
-0.000294522
0.002575668
0.038293588
0.031915388
0.040207048
0.006721498
-0.024531682
0.031596478
0.019158988
-0.025169502
-0.028677512
-0.067903442
-0.021661492
0.065082028
0.049455438
0.001618938
0.053920178
0.050731078
0.011505148
0.043396148
0.024580458
-0.004759262
0.007997138
0.001300028
0.000981118
0.015650978
0.004170218
-0.030909882
-0.057698322
-0.036331352
0.018840078
0.041482688
-0.013050922
-0.006353812
0.029045198
0.036380128
0.069865678
0.038612498
-0.001889072
-0.006672722
0.017883348
0.001300028
-0.001889072
-0.004759262
-0.058336142
-0.038244812
-0.034417892
-0.013050922
0.019477898
0.005126948
-0.016558932
-0.023574952
0.015013158
0.025218278
-0.008586182
-0.028677512
-0.032823342
0.032553208
0.018521168
-0.007948362
-0.016877842
-0.052276852
-0.021342582
0.040525958
0.053920178
0.009910598
0.079432978
0.092189378
0.055833638
0.098248668
0.060936198
0.032872118
0.017564438
0.015332068
0.038612498
0.051049988
0.034147758
-0.007310542
-0.021342582
-0.009542912
0.030958658
0.081984258
0.066995488
0.043715058
0.092827198
0.082622078
0.088362458
0.059660558
0.001300028
-0.003164712
0.058066008
0.015013158
-0.029953152
2.44E-05
-0.044623012
-0.043347372
-0.016240022
-0.030272062
-0.016240022
0.018840078
-0.004121442
-0.029953152
2.44E-05
0.000343298
-0.036650262
-0.061844152
-0.082254392
-0.037925902
-0.016558932
-0.007310542
-0.010499642
-0.081935482
-0.087038042
-0.056741592
-0.029634242
-0.044304102
0.024899368
0.039250318
0.025856098
0.083897718
0.053920178
0.020434628
0.038612498
0.015969888
0.010229508
0.022666998
0.022666998
-0.009224002
-0.023893862
-0.012413102
0.039569228
0.083578808
0.021072448
0.035104488
0.067314398
0.071460228
0.101756678
0.074649328
0.032553208
0.042758328
0.081346438
0.064763118
0.060298378
0.061574018
-0.008905092
0.028726288
0.059660558
0.033828848
0.058066008
0.082940988
0.066995488
0.032234298
0.068590038
0.084854448
0.048817618
0.002256758
-0.014326562
0.043396148
0.044033968
-0.001251252
-0.010499642
-0.053552492
-0.039201542
0.022985908
0.037974678
-0.009542912
0.020753538
0.053920178
0.012142968
0.045947428
0.014375338
-0.015283292
-0.008905092
-0.008905092
-0.019748032
0.012461878
-0.012732012
-0.093097332
-0.103621362
-0.046217562
0.015013158
0.031915388
-0.040477182
-0.030909882
0.015650978
0.043396148
0.064444208
0.018521168
-0.028358602
-0.021661492
0.032553208
-0.009861822
-0.039201542
-0.014007652
-0.051001212
-0.027720782
0.008953868
0.017564438
0.035423398
0.046904158
0.022029178
0.011505148
0.063487478
0.068590038
0.054239088
0.028407378
0.009272778
0.077838428
0.125993838
0.088043548
0.048179798
0.008953868
0.040207048
0.098248668
0.085811178
0.023623728
0.067952218
0.083259898
0.065719848
0.128226208
0.081346438
0.037336858
0.041801598
0.025537188
0.003213488
0.009591688
0.004489128
-0.047493202
-0.064714342
-0.057698322
-0.021661492
0.018840078
-0.045579742
-0.011775282
0.069546768
0.056471458
0.044671788
-0.005397082
-0.075238372
-0.089908232
-0.039201542
-0.081616572
-0.066946712
-0.039201542
-0.081616572
-0.056422682
-0.031547702
-0.040477182
-0.023893862
-0.029634242
-0.054509222
-0.046536472
0.030958658
0.050412168
0.031915388
0.023304818
-0.004440352
0.043396148
0.040207048
0.010867328
0.008953868
-0.020066942
-0.001251252
0.063168568
0.067952218
0.018521168
0.056152548
0.066676578
0.047541978
0.091232648
0.066995488
0.026175008
0.039888138
0.040525958
0.035423398
0.035742308
0.032234298
-0.007310542
-0.011456372
-0.004440352
0.029045198
0.056471458
0.017883348
0.014056428
0.036061218
0.068590038
0.100162128
0.059022738
-0.007629452
-0.004759262
0.047223068
0.036061218
0.009272778
0.016607708
-0.054190312
-0.047174292
-0.010818552
-0.016558932
-0.009861822
0.023942638
0.026175008
0.012142968
0.078795158
0.041801598
-0.021342582
-0.018153482
-0.021023672
0.027769558
0.026175008
-0.005397082
-0.017834572
-0.053233582
-0.045898652
0.023942638
0.042120508
-0.003483622
0.033828848
0.046585248
0.007997138
0.046904158
0.015013158
-0.003483622
0.014694248
0.029364108
0.051049988
0.072416958
0.042120508
0.017883348
0.023942638
0.041801598
0.064444208
0.091232648
0.051049988
0.071779138
0.089319188
0.090913738
0.099524308
0.049774348
-0.009542912
0.008953868
0.060936198
0.013418608
-0.026445142
-0.007310542
-0.069497992
-0.060568512
-0.036331352
-0.022937132
-0.014964382
0.017883348
0.001937848
-0.011775282
0.042439418
0.041801598
0.010548418
-0.012094192
-0.053233582
0.017245528
0.017564438
-0.025169502
-0.030272062
-0.052914672
-0.036331352
0.030320838
0.036699038
-0.022618222
0.026175008
0.026812828
-0.004759262
0.043396148
0.018202258
0.006402588
0.012780788
0.009591688
-0.029315332
2.44E-05
0.018521168
-0.015283292
2.44E-05
0.022029178
0.002894578
0.013737518
-0.023256042
-0.019748032
0.025218278
0.051049988
0.074011508
0.045309608
-0.002845802
-0.014964382
0.028407378
-0.015283292
-0.014964382
0.003851308
-0.034098982
-0.002845802
0.031915388
0.032872118
0.041482688
0.084854448
0.072098048
0.094740658
0.131734218
0.106221418
0.063168568
0.050412168
0.019158988
0.055195818
0.052963448
0.022985908
0.011505148
-0.029315332
-0.019429122
0.021710268
0.036061218
-0.015602202
0.005445858
0.024261548
0.003851308
0.047860888
0.032234298
0.004170218
0.012142968
0.008634958
-0.014326562
-0.016240022
-0.020066942
-0.065989982
-0.057379412
-0.046217562
-0.037606992
-0.004121442
-0.013369832
-0.020704762
0.011824058
0.021072448
0.020753538
2.44E-05
-0.025807322
-0.021023672
0.048817618
0.036061218
0.028407378
0.052325628
0.000662208
0.026812828
0.061574018
0.059341648
0.065719848
0.108134878
0.093146108
0.069546768
0.115788718
0.118977818
0.099205398
0.075287148
0.030639748
0.075924968
0.084216628
0.039569228
0.016607708
-0.005078172
0.011186238
0.060617288
0.061574018
0.014694248
0.041801598
0.051049988
0.035423398
0.072735868
0.040207048
0.009591688
0.006402588
0.007678228
-0.016877842
-0.017515662
-0.013369832
-0.050682302
-0.043666282
-0.035374622
-0.022618222
0.019796808
-0.010180732
-0.014964382
-0.003483622
0.009272778
0.028088468
-0.001251252
-0.037925902
-0.032185522
0.029045198
0.000981118
-0.019110212
0.007678228
-0.031547702
-0.001570162
0.031596478
0.027131738
0.041482688
0.089638098
0.069227858
0.048817618
0.096016298
0.078795158
0.049455438
0.041482688
0.014375338
0.055514728
0.057428188
0.029364108
-0.006672722
-0.045898652
-0.017196752
0.048498708
0.073373688
0.008316048
0.032234298
0.054876908
0.033509938
0.073373688
0.036380128
0.002894578
0.035423398
0.036699038
0.002575668
0.016607708
0.056471458
-0.012094192
-0.013688742
0.005126948
0.018202258
0.062211838
0.037017948
0.034147758
0.046904158
0.087405728
0.104307958
0.053601268
0.017883348
0.002894578
0.044990698
0.017564438
-0.007948362
-0.005715992
-0.065671072
-0.039839362
-0.006034902
-0.022937132
-0.003483622
0.050731078
0.021710268
-0.003164712
0.040207048
0.028407378
0.009591688
0.013418608
-0.017515662
0.033828848
0.040207048
0.015332068
-0.014326562
-0.033461162
-0.006353812
0.060298378
0.063168568
0.012780788
0.046904158
0.074011508
0.053282358
0.096016298
0.070184588
0.036380128
0.054239088
0.078476248
0.064125298
0.081027528
0.092189378
0.015969888
0.009272778
0.028407378
0.037655768
0.081027528
0.033191028
0.026493918
0.044033968
0.058703828
0.088362458
0.042120508
-0.037925902
-0.053871402
-0.003483622
-0.033780072
-0.063119792
-0.051320122
-0.105215912
-0.083848942
-0.027082962
-0.056103772
-0.049087752
0.003213488
0.001618938
-0.021980402
0.032234298
0.003851308
-0.035693532
-0.032823342
-0.043985192
0.015013158
0.028407378
0.009910598
-0.000613432
-0.030909882
-0.018791302
0.046904158
0.062211838
0.010548418
0.042758328
0.049136528
0.037336858
0.089957008
0.065082028
0.028726288
0.038293588
0.047541978
0.020434628
0.028407378
0.036699038
-0.007629452
0.017245528
0.056152548
0.109729428
0.116426538
0.072416958
0.062849658
0.074330418
0.090594828
0.098886488
0.053282358
-0.002207982
-0.026764052
0.059022738
0.053920178
0.014694248
0.004808038
-0.075876192
-0.065989982
-0.031547702
-0.030909882
-0.030590972
0.037655768
0.022985908
-0.013050922
0.035423398
0.011824058
-0.023574952
-0.028677512
-0.046536472
-0.006672722
-0.007948362
-0.020385852
-0.043985192
-0.077151832
-0.058017232
0.015650978
0.038293588
-0.016240022
0.021710268
0.060298378
0.055195818
0.094740658
0.071141318
0.033509938
0.037336858
0.067314398
0.040844868
0.058066008
0.068590038
0.011186238
0.009591688
0.021072448
0.024580458
0.058066008
0.044671788
0.031915388
0.037974678
0.069865678
0.067314398
0.032553208
-0.008586182
-0.019429122
0.026175008
0.023623728
-0.000613432
0.018521168
-0.001251252
-0.000613432
0.031915388
0.026812828
0.004170218
0.058703828
0.062849658
0.052325628
0.076243878
0.055514728
0.037017948
0.014694248
-0.043985192
-0.026445142
-0.023574952
-0.036650262
-0.062481972
-0.081297662
-0.072368182
-0.010818552
0.009272778
-0.063757612
-0.044304102
-0.012413102
-0.024850592
0.027450648
0.011505148
-0.018472392
-0.028677512
-0.009542912
-0.049087752
-0.042390642
-0.047174292
-0.097562072
-0.084805672
-0.055784862
-0.033780072
0.010548418
0.003851308
-0.001889072
0.009591688
0.017883348
0.025537188
0.033191028
0.004808038
-0.000613432
0.073054778
0.066676578
0.043077238
0.049455438
0.007997138
0.030639748
0.074330418
0.071141318
0.048179798
0.100481038
0.094102838
0.066357668
0.112599618
0.103032318
0.075287148
0.077200608
0.065400938
0.089638098
0.101118858
0.073054778
0.029364108
0.021072448
0.037017948
0.086448998
0.088681368
0.012461878
0.012142968
0.026175008
0.020115718
0.064763118
0.039888138
-0.024850592
-0.026126232
-0.042071732
-0.092140602
-0.081616572
-0.057698322
-0.113507572
-0.102983542
-0.088951502
-0.085124582
-0.047174292
-0.045260832
-0.042071732
-0.025169502
0.047223068
0.067314398
0.010867328
-0.036331352
-0.038563722
0.035423398
0.030958658
0.011505148
0.020434628
-0.000294522
0.016288798
0.043396148
0.018202258
0.007678228
0.070822408
0.042439418
-0.022618222
0.034147758
0.010867328
-0.019429122
-0.020385852
-0.047493202
-0.014645472
0.010867328
-0.011456372
-0.047493202
-0.062163062
-0.046855382
0.020115718
0.050093258
-0.004440352
0.025856098
0.055195818
0.057109278
0.084854448
0.054557998
0.009910598
0.010867328
0.032872118
-0.011775282
-0.013369832
0.005764768
-0.042709552
-0.029953152
-0.021342582
-0.032185522
0.028088468
0.022985908
-0.004759262
-0.001570162
0.042758328
0.065082028
0.034466668
-0.008905092
-0.015921112
0.040844868
0.028088468
-0.006991632
-0.009542912
-0.049087752
-0.019748032
0.031915388
0.026175008
0.005126948
0.048498708
0.045947428
0.010867328
0.060617288
0.048179798
0.026812828
0.035104488
0.007678228
0.026175008
0.037974678
0.021710268
-0.008586182
-0.030272062
-0.006034902
0.048817618
0.062211838
0.006402588
0.025537188
0.035742308
0.037655768
0.078476248
0.042120508
0.010548418
-0.017196752
-0.023574952
-0.074281642
-0.073324912
-0.054190312
-0.110318472
-0.087356952
-0.096605342
-0.094372972
-0.059930692
-0.065989982
-0.062481972
-0.023893862
0.019158988
0.015969888
-0.010818552
-0.041752822
-0.029315332
0.052644538
0.066676578
0.045309608
0.050412168
0.010867328
0.030639748
0.080708618
0.088681368
0.054876908
0.133328768
0.139388058
0.097929758
0.146722988
0.118977818
0.104307958
0.116426538
0.087724638
0.114513078
0.113556348
0.083897718
0.031596478
-0.003164712
0.011824058
0.064125298
0.094740658
0.005126948
-0.008586182
0.021710268
0.018840078
0.026493918
-0.013050922
-0.053871402
-0.056103772
-0.031228792
-0.059292872
-0.063119792
-0.043347372
-0.098837712
-0.104897002
-0.094054062
-0.099156622
-0.061844152
-0.062481972
-0.075876192
-0.059292872
-0.032185522
-0.010818552
-0.033780072
-0.078427472
-0.093097332
-0.009861822
2.44E-05
-0.032504432
-0.024850592
-0.053552492
-0.018791302
0.042758328
0.061574018
0.035104488
0.091870468
0.097929758
0.072416958
0.107815968
0.076243878
0.056152548
0.059979468
0.037336858
0.044671788
0.054876908
0.035423398
0.007997138
-0.020066942
-0.012094192
0.034785578
0.069227858
0.009591688
0.015013158
0.029683018
0.028088468
0.069865678
0.072416958
0.002894578
-0.010818552
0.020753538
-0.032185522
-0.035693532
0.000981118
-0.036012442
-0.050363392
-0.046536472
-0.037925902
0.004808038
-0.001251252
-0.023574952
-0.038244812
0.009591688
0.042439418
0.010229508
-0.045579742
-0.046536472
0.028407378
0.022029178
-0.021342582
-0.027082962
-0.061844152
-0.032185522
0.010229508
-0.000613432
-0.035374622
0.019796808
0.019796808
-0.011456372
0.032553208
0.008634958
-0.013369832
-0.015921112
-0.047174292
-0.043028462
-0.024212772
-0.023256042
-0.052595762
-0.050682302
-0.028996422
0.022348088
0.050412168
-0.009224002
0.010548418
0.064125298
0.103670138
0.135561138
0.114831988
0.061255108
0.056152548
0.108453788
0.075287148
0.063806388
0.073054778
-0.004121442
-0.015283292
-0.007310542
-0.013050922
0.028407378
0.032234298
-0.008586182
-0.037606992
-0.002207982
0.001618938
-0.033461162
-0.064076522
-0.064395432
0.000343298
0.031596478
0.038612498
0.009272778
-0.043985192
-0.021342582
0.025218278
0.029683018
-0.016240022
0.015650978
0.006083678
-0.013688742
0.038931408
0.014694248
-0.037606992
-0.048449932
-0.077789652
-0.054509222
-0.051957942
-0.065671072
-0.087038042
-0.079065292
-0.050044482
0.006402588
0.033828848
-0.009224002
0.010867328
0.042120508
0.046904158
0.075287148
0.040525958
-0.014007652
-0.024850592
0.011824058
-0.014645472
-0.017834572
-0.012732012
-0.056422682
-0.047812112
-0.037288082
-0.034098982
-0.000613432
0.002256758
-0.002526892
0.011186238
0.052644538
0.053282358
0.025218278
-0.005078172
-0.011775282
0.088681368
0.108772698
0.059979468
0.045309608
0.020434628
0.048817618
0.087724638
0.085173358
0.051049988
0.089000278
0.062211838
0.030001928
0.064763118
0.048179798
0.010229508
-0.001570162
-0.069179082
-0.064395432
-0.029953152
-0.042709552
-0.114464302
-0.132961082
-0.117334492
-0.061844152
-0.017834572
-0.078108562
-0.081297662
-0.042709552
-0.025807322
0.000343298
-0.022299312
-0.080340932
-0.066308892
-0.009224002
-0.027401872
-0.041115002
-0.019110212
-0.063438702
-0.043028462
-0.009542912
0.000343298
0.041163778
0.056152548
0.049136528
0.045947428
0.085492268
0.090275918
0.056152548
0.022985908
-0.000613432
0.057428188
0.060298378
0.034466668
0.027450648
-0.025169502
-0.010499642
0.045628518
0.063168568
0.015969888
0.053601268
0.050731078
0.022029178
0.074011508
0.051368898
0.020434628
0.028726288
0.007359318
0.003532398
0.008634958
0.064125298
0.048498708
0.001618938
0.011186238
0.060298378
0.071460228
0.009591688
0.003213488
0.046585248
0.053601268
0.067633308
0.013418608
-0.059611782
-0.088632592
-0.045898652
-0.037925902
-0.041752822
-0.058973962
-0.135193452
-0.098837712
-0.065989982
-0.082573302
-0.006353812
0.053920178
0.022029178
0.020115718
0.078157338
0.081665348
0.045309608
0.007678228
-0.022618222
0.031596478
0.013737518
-0.012094192
-0.006991632
-0.064076522
-0.078746382
-0.032185522
-0.015921112
-0.065352162
-0.028996422
0.004170218
-0.027082962
0.007997138
-0.016240022
-0.026764052
-0.013369832
-0.028039692
-0.029634242
-0.014007652
-0.015921112
-0.045579742
-0.053552492
-0.034098982
-0.001251252
0.022666998
-0.044304102
-0.042071732
-0.020704762
0.001300028
0.036699038
0.003851308
-0.041433912
-0.038244812
0.019158988
-0.000613432
-0.023256042
-0.009861822
-0.051639032
-0.022618222
0.013099698
0.059979468
0.110686158
0.118021088
0.078157338
0.072416958
0.127588388
0.112599618
0.071141318
0.022348088
0.014056428
0.064763118
0.049455438
-0.006991632
-0.028677512
-0.075238372
-0.073006002
-0.045898652
-0.045579742
-0.088951502
-0.043985192
-0.034736802
-0.060568512
-0.009224002
-0.019429122
-0.032185522
-0.021342582
-0.035693532
-0.029634242
-0.013050922
-0.021661492
-0.030909882
-0.034417892
-0.023574952
-0.000294522
0.033191028
-0.006672722
-0.002207982
0.031277568
0.041163778
0.061574018
0.019158988
-0.021342582
-0.010818552
0.043077238
0.020434628
-0.005715992
0.011505148
-0.022937132
0.006721498
0.024580458
0.017883348
0.044671788
0.070822408
0.046266338
0.035423398
0.102075588
0.119615638
0.070184588
0.015969888
-0.026764052
0.027131738
0.033191028
-0.005715992
0.002575668
-0.030272062
-0.026764052
0.007678228
-0.003802532
-0.033461162
0.018840078
0.010867328
-0.027720782
0.006083678
-0.021980402
-0.048768842
-0.026445142
-0.052276852
-0.035693532
-0.010818552
-0.023574952
-0.082254392
-0.092778422
-0.054509222
-0.025169502
0.003851308
-0.039201542
-0.014007652
0.011505148
0.010867328
0.024580458
0.004170218
-0.050044482
-0.083211122
-0.050044482
-0.084167852
-0.087356952
-0.051957942
-0.085762402
-0.065989982
-0.037925902
-0.061844152
-0.039839362
-0.006034902
-0.009861822
-0.013050922
0.044033968
0.066357668
0.042439418
0.024899368
0.004489128
0.054239088
0.062849658
0.031915388
0.024899368
-0.013369832
0.000981118
0.061574018
0.066357668
0.012142968
0.055514728
0.065719848
0.043715058
0.090594828
0.065082028
0.038612498
0.033828848
0.028726288
0.015650978
0.014375338
0.015969888
-0.016877842
-0.021023672
-0.007948362
0.026812828
0.073054778
0.046585248
0.022348088
0.034147758
0.037336858
0.043077238
0.008953868
-0.038882632
-0.038244812
0.008634958
-0.013688742
-0.039520452
-0.044623012
-0.095329702
-0.064395432
-0.045260832
-0.060887422
-0.071411452
-0.041433912
-0.043347372
-0.035693532
0.018840078
0.026812828
-0.016240022
-0.059611782
-0.096605342
-0.023893862
-0.005078172
-0.036969172
-0.049406662
-0.084167852
-0.080659842
-0.010180732
0.012461878
-0.023893862
0.015332068
0.032553208
0.049774348
0.116107628
0.087724638
0.042120508
0.048817618
0.045947428
0.038293588
0.059979468
0.061892928
0.020434628
-0.002845802
-0.012413102
0.007040408
0.049136528
-0.016558932
-0.009542912
-0.001889072
-0.012094192
0.001618938
-0.031228792
-0.080340932
-0.074281642
-0.027082962
-0.051320122
-0.075238372
-0.079065292
-0.145717482
-0.099794442
-0.053871402
-0.065352162
-0.071411452
-0.039839362
-0.045260832
-0.054828132
-0.021023672
-0.036650262
-0.050682302
-0.064714342
-0.098199892
-0.028039692
-0.010499642
-0.038244812
-0.051639032
-0.082892212
-0.057060502
0.003851308
0.023304818
-0.017196752
0.041163778
0.038293588
0.021710268
0.082303168
0.064444208
0.029364108
0.037974678
0.036699038
0.015013158
0.030639748
0.037655768
0.007040408
0.010867328
0.011824058
0.040207048
0.086448998
0.052644538
0.036061218
0.065400938
0.084854448
0.105902508
0.059660558
0.005764768
0.025537188
0.074330418
0.044671788
0.032553208
0.032234298
-0.025807322
-0.008586182
0.018840078
0.011824058
0.027131738
0.051049988
0.022985908
-0.001251252
0.017245528
-0.009542912
-0.023256042
-0.063438702
-0.117334492
-0.083848942
-0.097562072
-0.135193452
-0.151457862
-0.183986682
-0.167722272
-0.110956292
-0.093416242
-0.126901792
-0.056741592
-0.048131022
-0.074281642
-0.029634242
-0.056422682
-0.065671072
-0.037288082
-0.013369832
-0.012094192
0.011824058
0.019158988
-0.027082962
-0.027082962
0.004170218
0.022666998
0.050093258
0.007040408
0.005764768
0.039569228
0.078476248
0.117383268
0.069227858
0.015650978
-0.000294522
0.077519518
0.049455438
0.036380128
0.043077238
-0.010818552
0.011505148
0.044990698
0.034785578
0.045309608
0.093783928
0.097929758
0.096973028
0.155971378
0.178613988
0.130139668
0.110367248
0.112280708
0.124718198
0.100481038
0.066995488
0.035104488
-0.013369832
-0.018472392
0.012461878
0.030001928
-0.055147042
-0.024850592
-0.044941922
-0.081297662
-0.058017232
-0.077470742
-0.129771982
-0.136150182
-0.115739942
-0.123074872
-0.111275202
-0.086081312
-0.110637382
-0.104897002
-0.101707902
-0.077470742
-0.028677512
-0.055147042
-0.057698322
-0.030272062
-0.011775282
2.44E-05
-0.034736802
-0.068541262
-0.060568512
0.004489128
-0.019110212
-0.045898652
-0.033142252
-0.067265622
-0.041115002
-0.013050922
-0.023256042
-0.025169502
0.015650978
2.44E-05
-0.025488412
0.018521168
0.001618938
-0.028039692
-0.041752822
-0.070773632
-0.019748032
-0.013688742
-0.027720782
-0.039839362
-0.069497992
-0.040158272
0.048179798
0.076562788
0.007359318
0.057428188
0.084854448
0.066357668
0.101437768
0.073692598
0.039250318
0.026493918
0.026175008
-0.001889072
-0.021342582
-0.053233582
-0.087356952
-0.093097332
-0.072049272
-0.037288082
-0.006353812
-0.076832922
-0.056741592
-0.021980402
-0.008267272
0.049136528
0.024261548
-0.036969172
-0.041115002
0.016288798
2.44E-05
0.003213488
0.011186238
-0.062481972
-0.055147042
-0.029315332
-0.043028462
-0.046536472
0.006721498
-0.001251252
-0.037606992
-0.008586182
-0.011456372
-0.037288082
-0.039520452
-0.063119792
0.000343298
0.007040408
-0.022299312
-0.037606992
-0.057698322
-0.036012442
0.035104488
0.046904158
-0.012094192
0.027450648
0.048498708
0.029683018
0.088362458
0.058703828
0.022348088
0.015332068
0.027131738
0.002256758
0.008634958
0.007678228
-0.034098982
-0.032823342
-0.028358602
-0.018791302
0.020434628
-0.005078172
-0.006353812
0.001300028
0.022029178
0.037974678
-0.012732012
-0.081935482
-0.094691882
-0.039201542
-0.060887422
-0.099794442
-0.106491552
-0.151138952
-0.123393782
-0.086400222
-0.079065292
-0.085762402
-0.051639032
-0.061525242
-0.063119792
-0.003802532
-0.013369832
-0.032504432
-0.026764052
-0.044623012
0.023304818
0.041163778
0.019477898
-0.011137462
-0.038563722
-0.019429122
0.044033968
0.066676578
0.013099698
0.060617288
0.073054778
0.055195818
0.110686158
0.085492268
0.032234298
0.028726288
0.047223068
0.037974678
0.043715058
0.049136528
-0.008586182
-0.013369832
-0.026126232
-0.018153482
0.024899368
-0.006991632
0.004489128
0.010229508
0.024899368
0.025856098
-0.022618222
-0.078746382
-0.091502782
-0.017515662
-0.030590972
-0.065671072
-0.064076522
-0.117653402
-0.080340932
-0.020704762
-0.000294522
-0.013050922
0.013418608
0.002256758
-0.014326562
0.051049988
0.052644538
0.039569228
0.028407378
-0.001251252
0.044671788
0.046904158
0.024899368
-0.005078172
-0.054509222
-0.037606992
0.027450648
0.034785578
-0.039839362
-0.032823342
-0.028677512
-0.044941922
-0.012732012
-0.045260832
-0.075238372
-0.080340932
-0.065352162
-0.094372972
-0.102026812
-0.072368182
-0.094054062
-0.089270412
-0.072049272
-0.061844152
-0.016240022
-0.027082962
-0.013688742
0.013737518
0.052325628
0.069546768
0.035104488
-0.010499642
-0.004440352
0.064125298
0.040525958
0.038612498
0.044990698
-0.013050922
0.013418608
0.027450648
0.013099698
-0.003802532
0.042439418
0.037336858
0.019796808
0.085811178
0.042758328
-0.005715992
-0.035374622
-0.036331352
-0.008267272
-0.004759262
-0.016877842
-0.023893862
-0.036331352
-0.018791302
0.051368898
0.065719848
0.001300028
0.031596478
0.052325628
0.037017948
0.072735868
0.049774348
0.008953868
-0.013369832
-0.005715992
-0.043347372
-0.034417892
-0.034736802
-0.093097332
-0.104897002
-0.070135812
-0.060568512
-0.041752822
-0.083530032
-0.085443492
-0.062800882
-0.030909882
-0.024212772
-0.048449932
-0.102026812
-0.093097332
-0.035693532
-0.058336142
-0.077789652
-0.048768842
-0.087675862
-0.061525242
-0.014326562
-0.006353812
-0.015921112
0.041482688
0.039888138
0.024580458
0.072735868
0.054239088
0.023304818
0.015650978
-0.027720782
0.004170218
0.004170218
-0.022299312
-0.058017232
-0.082573302
-0.076514012
-0.012094192
-0.001889072
-0.049406662
-0.022299312
-0.006991632
-0.001570162
0.038931408
0.010548418
-0.014326562
-0.018791302
0.024899368
0.012142968
0.021391358
0.032234298
0.015332068
0.016926618
0.031277568
0.058066008
0.087405728
0.049774348
0.038293588
0.045309608
0.083259898
0.089319188
0.018840078
-0.037288082
-0.041115002
0.013418608
-0.012094192
-0.045579742
-0.050044482
-0.093735152
-0.061844152
-0.027082962
-0.036331352
-0.053552492
-0.001889072
-0.003802532
-0.010818552
0.046585248
0.025856098
-0.003164712
-0.012094192
-0.047493202
-0.016558932
-0.017515662
-0.042071732
-0.084486762
-0.108086102
-0.090546052
-0.028358602
-0.018791302
-0.071411452
-0.042071732
-0.019429122
-0.016558932
0.026175008
0.001300028
-0.029634242
-0.026126232
0.015969888
-0.001889072
0.007997138
0.020434628
-0.017834572
-0.012413102
0.019158988
0.041482688
0.075287148
0.045947428
0.066676578
0.069227858
0.098886488
0.113237438
0.064763118
0.009272778
-0.001251252
0.072416958
0.075606058
0.046585248
0.013418608
-0.023256042
-0.012413102
0.018521168
0.025218278
2.44E-05
0.035742308
0.016607708
-0.007310542
0.034147758
0.008953868
-0.008905092
-0.010499642
-0.051320122
-0.029953152
-0.031866612
-0.044941922
-0.073643822
-0.093097332
-0.066308892
-0.010818552
-0.006034902
-0.058017232
-0.029315332
-0.019748032
-0.021023672
0.025856098
-0.005397082
-0.052595762
-0.057379412
-0.022937132
-0.045260832
-0.043028462
-0.040477182
-0.088313682
-0.064076522
-0.028677512
-0.021023672
0.006402588
-0.007629452
-0.029634242
-0.030590972
-0.002207982
0.005764768
-0.023256042
-0.059611782
-0.067584532
-0.009224002
-0.026126232
-0.054190312
-0.044304102
-0.099475532
-0.073006002
-0.030590972
-0.010499642
-0.022299312
0.034147758
0.031596478
0.015969888
0.069546768
0.051368898
0.027769558
0.019796808
-0.005715992
0.026812828
0.026493918
0.007359318
-0.025807322
-0.046536472
-0.028039692
0.026175008
0.034147758
-0.027401872
-0.009861822
0.019158988
0.017564438
0.050731078
0.020115718
-0.021342582
-0.032823342
0.004170218
-0.018791302
-0.015602202
-0.011456372
-0.052914672
-0.037925902
-0.021342582
-0.014964382
0.023942638
0.009272778
0.011505148
0.017564438
0.049774348
0.051049988
0.013099698
-0.034098982
-0.044304102
0.023304818
0.017245528
-0.016877842
-0.019748032
-0.065352162
-0.046217562
0.001618938
0.011505148
-0.022618222
0.022985908
0.015650978
-0.005715992
0.040844868
0.018202258
-0.007310542
-0.014326562
-0.038244812
-0.008905092
-0.006672722
-0.024212772
-0.054828132
-0.068541262
-0.046855382
0.011505148
0.019158988
-0.034417892
-0.010818552
0.025856098
0.026812828
0.056471458
0.031277568
-0.003164712
-0.008586182
0.018840078
-0.007310542
-0.005715992
-0.003802532
-0.041752822
-0.026764052
-0.017196752
-0.008905092
0.018840078
0.005445858
0.005126948
0.006083678
0.040525958
0.041482688
2.44E-05
-0.042071732
-0.053233582
0.014375338
0.006721498
-0.027401872
-0.032823342
-0.075238372
-0.052595762
-0.003164712
0.007678228
-0.023893862
0.024580458
0.015332068
-0.006034902
0.040525958
0.021072448
0.001618938
-0.002845802
-0.026445142
-0.006991632
-0.006672722
-0.022299312
-0.054190312
-0.070773632
-0.047812112
0.007678228
0.030001928
-0.035055712
-0.019429122
0.007359318
0.002894578
0.032553208
0.001618938
-0.037288082
-0.028358602
0.009591688
-0.020066942
-0.018791302
-0.016877842
-0.064395432
-0.042071732
-0.018472392
-0.017834572
0.009272778
-0.002526892
-0.008267272
0.015969888
0.061892928
0.055514728
0.019158988
-0.027720782
-0.040158272
0.023304818
0.015332068
-0.017515662
-0.025169502
-0.063757612
-0.041752822
0.010548418
0.040207048
-0.011137462
0.031915388
0.031915388
0.010548418
0.062211838
0.041163778
0.016926618
0.012142968
-0.006991632
0.017564438
0.014375338
-0.004121442
-0.036012442
-0.042071732
-0.023574952
0.025856098
0.032553208
-0.021023672
-0.007629452
0.019477898
0.023942638
0.056790368
0.025537188
-0.021023672
-0.021661492
0.026812828
0.002575668
0.020434628
0.040207048
-0.027082962
-0.021023672
0.001300028
0.017564438
0.045628518
0.036380128
0.033191028
0.036699038
0.084854448
0.070503498
0.012142968
-0.009224002
0.006083678
0.046904158
0.010867328
-0.013688742
-0.013688742
-0.052914672
-0.019429122
0.025218278
0.024261548
-0.008586182
0.029364108
0.011505148
-0.009224002
0.027131738
-0.000294522
-0.031228792
-0.047493202
-0.061844152
-0.050363392
-0.055465952
-0.058017232
-0.093097332
-0.100113352
-0.076514012
-0.029953152
-0.013050922
-0.061844152
-0.039201542
-0.000932342
0.012142968
0.049774348
0.017564438
-0.029634242
-0.035693532
0.010548418
-0.017515662
-0.017834572
-0.011137462
-0.056103772
-0.040796092
-0.023574952
-0.016877842
0.014375338
0.012142968
0.006402588
0.007359318
0.051368898
0.049455438
0.016607708
-0.023574952
-0.032823342
0.031915388
0.034147758
0.006721498
-0.005078172
-0.050363392
-0.023256042
0.032553208
0.039569228
-0.003164712
0.037655768
0.033509938
0.014694248
0.050093258
0.007040408
-0.020385852
-0.014964382
-0.033142252
-0.009542912
0.012780788
-0.017196752
-0.067903442
-0.079065292
-0.046217562
0.018840078
0.015650978
-0.025488412
-0.003164712
0.029364108
0.035423398
0.041163778
0.007040408
-0.036331352
-0.046536472
-0.000932342
-0.032823342
-0.042709552
-0.021023672
-0.062800882
-0.066308892
-0.048131022
-0.044623012
-0.009861822
0.001937848
0.005126948
0.005764768
0.051049988
0.059022738
0.011505148
-0.024531682
-0.036650262
0.039569228
0.033509938
-0.012094192
-0.024531682
-0.061844152
-0.035693532
0.016288798
0.019796808
-0.022299312
0.029045198
0.021072448
0.001300028
0.048179798
0.017564438
-0.010499642
-0.004440352
-0.010499642
-0.008905092
-0.010499642
-0.021661492
-0.052276852
-0.058336142
-0.051639032
-0.005078172
0.024899368
-0.025169502
-0.027720782
0.002575668
0.023623728
0.051687808
0.015013158
-0.040158272
-0.050682302
0.014375338
-0.009224002
-0.017515662
0.001300028
-0.043347372
-0.036331352
-0.020385852
-0.019110212
0.015650978
0.028407378
0.007359318
-0.002207982
0.044033968
0.042120508
-0.012094192
-0.048449932
-0.050363392
0.021710268
0.019158988
-0.035693532
-0.054509222
-0.085443492
-0.064076522
0.002894578
0.008634958
-0.044941922
-0.001251252
-0.001889072
-0.018472392
0.026175008
-0.001889072
-0.025807322
-0.029953152
-0.046536472
-0.035055712
-0.029634242
-0.041433912
-0.076832922
-0.076195102
-0.059292872
-0.019429122
0.005764768
-0.039520452
-0.029953152
-0.006991632
0.003213488
0.027769558
-0.010818552
-0.061206332
-0.064714342
-0.012732012
-0.035055712
-0.042390642
-0.020704762
-0.058017232
-0.032185522
0.007359318
0.001937848
0.026175008
0.058066008
0.077200608
0.068908948
0.112599618
0.096335208
0.064125298
0.022348088
0.006402588
0.115150898
0.105264688
0.049455438
0.007359318
-0.042390642
-0.026764052
0.018521168
0.013418608
-0.005078172
0.044352878
0.040525958
0.000343298
0.025537188
-0.007629452
-0.035374622
-0.018472392
-0.033780072
-0.039201542
-0.036969172
-0.043985192
-0.082254392
-0.087675862
-0.076195102
-0.036969172
-0.013688742
-0.067584532
-0.051957942
-0.026445142
-0.015283292
0.019477898
-0.014964382
-0.068541262
-0.075876192
-0.024212772
-0.042071732
-0.055465952
-0.055784862
-0.102983542
-0.082254392
-0.054828132
-0.055784862
-0.037925902
-0.022618222
-0.030590972
-0.026445142
0.024261548
0.012780788
-0.011137462
-0.038244812
-0.057698322
0.011824058
0.025856098
-0.005078172
-0.022618222
-0.056741592
-0.031866612
0.028407378
0.054239088
0.007359318
0.056790368
0.066038758
0.039569228
0.088043548
0.060617288
0.035104488
0.033191028
0.019158988
0.025218278
0.059022738
0.063487478
-0.005397082
-0.016877842
0.020434628
0.040844868
0.055514728
0.007359318
0.029364108
0.038612498
0.039250318
0.058066008
0.006083678
-0.066308892
-0.076195102
-0.009542912
-0.013688742
-0.042709552
-0.060249602
-0.110637382
-0.078427472
-0.073643822
-0.055147042
-0.022618222
2.44E-05
-0.007948362
-0.016558932
0.031915388
0.033828848
0.001300028
-0.026764052
-0.034098982
0.029045198
0.037017948
-0.014964382
-0.038244812
-0.074600552
-0.041433912
0.015969888
0.014694248
-0.037925902
-0.000932342
-0.003483622
-0.025169502
0.017564438
-0.000932342
-0.017515662
-0.014645472
-0.025488412
-0.025169502
-0.017834572
-0.007629452
-0.037288082
-0.042071732
-0.022937132
0.020753538
0.050731078
0.010548418
0.036380128
0.058384918
0.068590038
0.089319188
0.041163778
-0.025807322
-0.031228792
0.022029178
-0.008905092
-0.034098982
-0.045898652
-0.092459512
-0.039839362
-0.021023672
-0.036331352
-0.025488412
-0.003164712
-0.020385852
-0.044304102
0.004489128
0.017245528
-0.001570162
-0.033461162
-0.062481972
0.017245528
0.026812828
-0.024850592
-0.035055712
-0.069497992
-0.037606992
0.026175008
0.035104488
-0.021023672
0.029683018
0.035742308
0.029364108
0.071779138
0.047541978
0.015650978
0.013418608
0.003851308
-0.004759262
2.44E-05
-0.007629452
-0.058336142
-0.057698322
-0.026126232
0.011186238
0.032234298
-0.017196752
-0.004759262
0.010548418
0.018840078
0.048179798
0.009910598
-0.042390642
-0.051957942
0.017564438
-0.005078172
-0.008586182
-0.010499642
-0.069497992
-0.051320122
-0.013369832
2.44E-05
0.010229508
0.025856098
0.014056428
0.000981118
0.043715058
0.034147758
0.015969888
-0.008267272
-0.017834572
0.027450648
0.008634958
0.006721498
0.018840078
-0.046217562
-0.052914672
0.029045198
0.035423398
-0.006034902
0.027450648
0.021710268
0.009272778
0.094421748
0.069227858
0.030001928
0.037017948
0.010229508
0.005126948
0.001618938
-0.011775282
-0.026764052
-0.039839362
-0.012413102
0.000343298
0.017245528
-0.047174292
-0.051001212
-0.036331352
-0.007310542
-0.000294522
-0.054190312
-0.115739942
-0.116696672
-0.059292872
-0.106491552
-0.116377762
-0.104897002
-0.143485112
-0.107767192
-0.073643822
-0.063119792
-0.049406662
-0.013369832
-0.021980402
-0.011456372
0.053601268
0.036380128
-0.003164712
-0.022299312
-0.046855382
-0.003802532
-0.016877842
-0.049406662
-0.051957942
-0.080978752
-0.063438702
-0.001889072
0.003851308
-0.067903442
-0.029953152
-0.007948362
-0.018153482
0.032234298
0.014375338
0.033509938
0.056471458
0.056790368
0.038931408
0.033828848
0.048498708
0.013099698
0.019477898
0.036699038
0.065719848
0.114831988
0.053601268
0.028726288
0.035104488
0.070184588
0.081027528
0.024580458
-0.051957942
-0.043347372
0.028726288
-0.009542912
-0.033461162
-0.047174292
-0.064714342
-0.051639032
-0.040158272
-0.047174292
-0.043347372
-0.020385852
-0.032185522
-0.051639032
0.017245528
0.005764768
-0.046217562
-0.069497992
-0.095967522
-0.036650262
-0.018791302
-0.026445142
-0.045898652
-0.077151832
-0.054190312
0.022348088
0.033828848
-0.011137462
0.022985908
0.060617288
0.033828848
0.067952218
0.031596478
-0.008267272
-0.023893862
-0.022618222
-0.053233582
-0.049087752
-0.044304102
-0.090227142
-0.102983542
-0.080659842
-0.033142252
0.004170218
-0.027401872
-0.038244812
-0.001889072
0.029364108
0.066676578
0.060617288
0.012461878
0.011186238
0.088362458
0.061255108
0.031915388
0.030958658
-0.031228792
0.008316048
0.042439418
0.055195818
0.046266338
0.080070798
0.044352878
0.061255108
0.097610848
0.086130088
0.057747098
0.027450648
-0.005715992
0.055514728
0.050731078
0.022029178
-0.003164712
-0.016240022
-0.019110212
0.028407378
0.027131738
-0.053552492
0.003213488
0.040525958
-0.007948362
0.002256758
-0.026445142
-0.061525242
-0.084486762
-0.082254392
-0.092459512
-0.080022022
-0.099794442
-0.145398572
-0.154646962
-0.131047622
-0.109999562
-0.093097332
-0.111275202
-0.100751172
-0.098199892
-0.065352162
-0.018472392
-0.042709552
-0.071411452
-0.069816902
-0.021342582
-0.048768842
-0.052914672
-0.055784862
-0.088951502
-0.049725572
-0.008267272
-0.014007652
-0.018153482
0.031277568
0.008953868
0.012142968
0.078795158
0.072098048
0.036699038
0.049136528
0.030001928
0.064763118
0.072735868
0.093783928
0.074649328
0.033509938
0.053282358
0.105583598
0.135880048
0.109410518
0.143533888
0.218477738
0.140982608
0.143533888
0.111005068
0.090275918
0.083897718
0.101437768
0.100162128
0.103351228
0.100481038
0.040844868
0.035104488
0.039250318
0.026493918
0.084535538
0.032553208
0.007040408
0.005445858
0.018521168
0.046266338
-0.007948362
-0.089908232
-0.118291222
-0.044623012
-0.061844152
-0.122118142
-0.131366532
-0.172824832
-0.123712692
-0.094372972
-0.103940272
-0.116058852
-0.075238372
-0.059292872
-0.036012442
0.024261548
-0.000613432
-0.027720782
-0.027082962
-0.068222352
-0.017834572
-0.023574952
-0.066946712
-0.094054062
-0.116377762
-0.093735152
-0.031547702
-0.030590972
-0.104259182
-0.080978752
-0.070773632
-0.058336142
0.009272778
0.027450648
0.022348088
-0.004440352
0.004489128
-0.013688742
0.010548418
0.040844868
0.010229508
0.037974678
0.088681368
0.113237438
0.147360808
0.070184588
0.058703828
0.090275918
0.100799948
0.132053128
0.078476248
-0.004121442
-0.001251252
0.067314398
0.024899368
-0.043347372
-0.050682302
-0.113188662
-0.082892212
-0.060887422
-0.074600552
-0.090864962
-0.036650262
-0.054509222
-0.078108562
-0.036012442
-0.034098982
-0.050044482
-0.056103772
-0.062481972
-0.017196752
-0.034098982
-0.062481972
-0.073962732
-0.086081312
-0.066946712
-0.023256042
-0.026764052
-0.046855382
0.011505148
0.040207048
0.007678228
0.029045198
-0.015283292
-0.008586182
0.032872118
0.075924968
0.077200608
0.068271128
0.059979468
0.002256758
0.004170218
0.063168568
0.089000278
0.145766258
0.087086818
0.079114068
0.066357668
0.116426538
0.142577158
0.087086818
0.076562788
0.051368898
0.111961798
0.112280708
0.074968238
0.049774348
0.007040408
0.009591688
0.027131738
0.008634958
-0.010818552
0.013737518
0.008634958
-0.014645472
-0.007948362
-0.065671072
-0.082573302
-0.110318472
-0.161344072
-0.125626152
-0.123074872
-0.134555632
-0.153690232
-0.159111702
-0.113507572
-0.032504432
-0.021980402
-0.088632592
-0.047174292
-0.023256042
-0.028996422
0.007359318
-0.006991632
-0.029953152
-0.021661492
-0.008586182
-0.039839362
-0.003483622
0.008634958
-0.041115002
-0.046536472
-0.022937132
0.022985908
0.058066008
0.032234298
0.015332068
0.015969888
0.049774348
0.061574018
0.034147758
0.000343298
0.004489128
0.068590038
0.025856098
-0.045898652
-0.042071732
-0.054190312
0.007040408
0.062849658
0.043077238
0.041163778
0.094740658
0.083897718
0.076562788
0.123761468
0.121848008
0.148636448
0.156609198
0.151187728
0.155652468
0.111323978
0.081984258
0.035423398
0.005126948
0.022985908
0.065719848
0.065082028
-0.014645472
-0.017834572
-0.013688742
-0.035693532
-0.005078172
-0.043028462
-0.093097332
-0.106810462
-0.098837712
-0.124350512
-0.093735152
-0.047174292
-0.105215912
-0.103621362
-0.088951502
-0.067584532
-0.025169502
-0.036331352
-0.022937132
-0.007948362
0.020115718
0.038612498
0.011505148
-0.028996422
-0.028677512
0.069227858
0.085173358
0.029045198
0.006721498
-0.042071732
-0.002526892
0.031596478
0.040844868
0.019477898
0.061574018
0.073373688
0.029364108
0.059979468
0.035742308
0.022029178
0.045628518
2.44E-05
0.006083678
0.015013158
-0.021342582
-0.054190312
-0.078108562
-0.043028462
0.031277568
0.074330418
0.003532398
0.032234298
0.069227858
0.055833638
0.110048338
0.124399288
0.081346438
0.032234298
0.041482688
0.024899368
0.061255108
0.058384918
-0.032823342
-0.025807322
-0.048768842
-0.042390642
-0.010499642
-0.058973962
-0.095967522
-0.084486762
-0.065671072
-0.061844152
-0.104897002
-0.159430612
-0.156879332
-0.076514012
-0.066308892
-0.087675862
-0.086081312
-0.123074872
-0.091821692
-0.046855382
-0.045579742
-0.069179082
-0.011775282
-0.025807322
-0.049087752
0.005126948
-0.011775282
-0.027401872
-0.004440352
0.009910598
0.019477898
0.010548418
-0.002207982
-0.036331352
-0.062800882
-0.015283292
0.036061218
0.039250318
-0.022937132
-0.001251252
0.017564438
0.015013158
0.055195818
0.059341648
0.002256758
-0.020704762
0.010548418
0.010229508
0.004808038
0.029683018
0.005764768
0.033828848
0.066676578
0.074968238
0.121529098
0.094740658
0.075287148
0.060936198
0.068271128
0.064763118
0.033191028
-0.032185522
-0.073962732
-0.029315332
-0.031866612
-0.068541262
-0.079065292
-0.080978752
-0.046536472
-0.010818552
-0.006991632
-0.027401872
0.001618938
0.031596478
0.072098048
0.119934548
0.074649328
0.063487478
0.039250318
-0.012413102
0.028088468
0.044352878
0.009272778
-0.041752822
-0.060249602
-0.036331352
0.013737518
0.015332068
-0.083848942
-0.070773632
-0.024212772
0.007040408
0.060617288
0.027131738
-0.026126232
-0.030909882
0.009272778
0.014375338
0.022348088
0.010229508
-0.050682302
-0.057379412
-0.055147042
-0.050044482
-0.013050922
-0.007629452
-0.010818552
-0.018153482
0.010548418
0.017245528
-0.016877842
-0.051957942
-0.057698322
0.002575668
-0.008905092
-0.022937132
-0.016558932
-0.054828132
-0.023574952
0.020115718
0.009591688
-0.026126232
0.027769558
0.030001928
-0.001889072
0.040207048
0.023623728
0.011824058
-0.001251252
-0.010499642
0.008953868
0.019158988
-0.004440352
-0.047493202
-0.038882632
0.021710268
0.074968238
0.083578808
0.031277568
0.043077238
0.059022738
0.064444208
0.090913738
0.074330418
0.050412168
0.080708618
0.113237438
0.054239088
0.034147758
0.051687808
-0.015602202
-0.009542912
0.025218278
0.054239088
0.058703828
0.027131738
0.007997138
-0.017515662
-0.027720782
-0.058336142
-0.111594112
-0.148906582
-0.138382552
-0.084805672
-0.089908232
-0.117972312
-0.137425822
-0.190364882
-0.167084452
-0.092778422
-0.055784862
-0.079384202
-0.015921112
-0.010499642
-0.006353812
0.047860888
0.021391358
0.029683018
0.050412168
0.037336858
0.023304818
0.001300028
-0.020385852
-0.038563722
-0.041115002
-0.016558932
0.023623728
0.028726288
-0.043347372
-0.041433912
0.069546768
0.081984258
0.074330418
0.038931408
0.005126948
0.083578808
0.122166918
0.079114068
0.078795158
0.056152548
-0.016240022
0.011186238
0.059341648
0.033828848
0.040525958
0.020434628
0.041163778
0.042439418
0.062211838
0.027450648
-0.026764052
-0.012413102
-0.028358602
0.023623728
0.050412168
0.066676578
0.036061218
-0.006034902
0.009910598
0.050412168
0.045309608
-0.019429122
0.011186238
-0.009542912
2.44E-05
-0.003164712
-0.071092542
-0.081616572
-0.087356952
-0.149225492
-0.148587672
-0.141571652
-0.154646962
-0.177927392
-0.171230282
-0.161025162
-0.106491552
-0.078108562
-0.119566862
-0.101707902
-0.073006002
-0.063119792
-0.032823342
-0.056103772
-0.102026812
-0.108405012
-0.061844152
-0.069497992
-0.059292872
-0.022299312
-0.066946712
-0.058336142
-0.028996422
-0.010818552
0.037017948
0.057109278
0.055514728
0.049136528
0.111005068
0.111005068
0.088043548
0.083578808
0.066995488
0.142577158
0.138112418
0.073692598
0.035104488
-0.022937132
2.44E-05
0.058384918
0.049774348
-0.024850592
0.025537188
0.047860888
0.039569228
0.037974678
-0.024850592
-0.038882632
-0.029634242
-0.040158272
-0.021980402
0.021072448
0.033509938
-0.007629452
0.016607708
0.044990698
0.101437768
0.084535538
0.021710268
0.033828848
0.024899368
0.015969888
0.082940988
0.073054778
2.44E-05
-0.069497992
-0.017834572
-0.062481972
-0.077470742
-0.095648612
-0.152733502
-0.114783212
-0.066308892
-0.075238372
-0.063757612
-0.047493202
-0.057698322
-0.067265622
-0.018791302
-0.009224002
-0.039201542
-0.096924252
-0.097243162
-0.014645472
2.44E-05
-0.011137462
-0.046217562
-0.105215912
-0.058973962
0.021391358
0.037336858
-0.000613432
0.047541978
0.051687808
0.044671788
0.098886488
0.091551558
0.066995488
0.039250318
0.023623728
0.017245528
0.024580458
0.042439418
0.010867328
0.005764768
0.034147758
0.061574018
0.052325628
-0.011137462
-0.015283292
0.003213488
0.009910598
0.055514728
0.017564438
-0.073962732
-0.065352162
-0.011775282
-0.064714342
-0.092459512
-0.090864962
-0.139658192
-0.121161412
-0.110637382
-0.086719132
-0.058336142
-0.038244812
-0.044623012
-0.053233582
-0.011775282
-0.016240022
-0.048449932
-0.068222352
-0.058655052
0.005764768
0.020115718
-0.013688742
-0.043028462
-0.113507572
-0.103621362
-0.061844152
-0.085124582
-0.169954642
-0.102345722
-0.064076522
-0.056103772
-0.015921112
-0.070773632
-0.062163062
-0.026445142
-0.048449932
-0.035374622
-0.034098982
0.012780788
0.013418608
0.052644538
0.111642888
0.182121998
0.181803088
0.150230998
0.176062708
0.183716548
0.172235788
0.196791858
0.153101188
0.127269478
0.124399288
0.145766258
0.119934548
0.120572368
0.116107628
0.031915388
0.031596478
0.048498708
0.033509938
0.059341648
0.059979468
-0.000932342
0.002256758
0.090913738
0.048817618
-0.003164712
-0.066946712
-0.093735152
-0.002845802
-0.040796092
-0.086719132
-0.111594112
-0.155603692
-0.154009142
-0.111275202
-0.138063642
-0.163257532
-0.106172642
-0.109361742
-0.128496342
-0.093735152
-0.114464302
-0.127220702
-0.135512362
-0.148587672
-0.127539612
-0.096605342
-0.052595762
-0.073006002
-0.055465952
-0.034098982
0.009910598
0.030639748
0.028726288
0.044352878
0.051368898
0.056790368
0.080708618
0.042120508
-0.018472392
-0.027720782
0.038293588
0.004489128
-0.022937132
-0.013369832
-0.059292872
-0.045260832
-0.030590972
-0.050363392
-0.015921112
0.009591688
0.021710268
0.021072448
0.104945778
0.091870468
0.035742308
0.043077238
0.030958658
0.062211838
0.066038758
0.047541978
0.019796808
-0.023574952
0.004489128
0.097610848
0.090275918
0.047223068
0.034785578
0.017883348
-0.004759262
0.055833638
0.022666998
0.015332068
0.029364108
0.020115718
-0.007310542
-0.000613432
0.013737518
-0.036012442
-0.048131022
-0.025169502
-0.010818552
0.002256758
-0.059611782
-0.064714342
-0.047812112
-0.028996422
-0.035693532
-0.089589322
-0.154328052
-0.172187012
-0.105215912
-0.115739942
-0.112550842
-0.093416242
-0.121799232
-0.129771982
-0.092778422
-0.068860172
-0.027401872
0.033509938
0.054876908
0.022029178
0.067633308
0.063806388
0.024580458
-0.030272062
-0.053233582
0.002575668
0.010548418
-0.024850592
-0.023256042
-0.037288082
-0.047812112
-0.012732012
-0.004759262
-0.048768842
-0.007310542
0.007040408
0.010229508
0.083897718
0.071141318
0.050731078
0.052644538
0.060617288
0.068908948
0.074649328
0.083578808
0.064444208
0.076881698
0.082303168
0.119615638
0.170003418
0.083897718
0.087724638
0.102075588
0.130139668
0.131734218
0.032553208
0.000981118
0.002894578
0.059341648
0.008634958
-0.057698322
-0.063757612
-0.124988332
-0.088951502
-0.055784862
-0.012094192
-0.046855382
-0.051957942
-0.057698322
-0.028996422
0.022348088
-0.000613432
-0.042071732
-0.053233582
-0.066627802
-0.006991632
0.003851308
-0.061525242
-0.111913022
-0.171868102
-0.141890562
-0.083530032
-0.072687092
-0.123712692
-0.066308892
-0.045898652
-0.054828132
-0.023574952
-0.079703112
-0.091502782
-0.078746382
-0.065033252
-0.032185522
0.025218278
0.012780788
-0.038563722
-0.046536472
-0.033461162
-0.011456372
0.021710268
-0.004440352
-0.010180732
0.021710268
0.048179798
0.103670138
0.035104488
-0.045260832
-0.058336142
0.009272778
0.004808038
0.015969888
0.043715058
0.015969888
0.007997138
0.032234298
0.033828848
0.035423398
0.069227858
0.046904158
0.022348088
0.060936198
0.058384918
0.045309608
0.005126948
-0.025488412
0.002575668
-0.001889072
0.000981118
0.023304818
0.009272778
0.012780788
0.074968238
0.126631658
0.088681368
0.081665348
0.082940988
0.055514728
0.084535538
0.039569228
0.023623728
0.026175008
0.023304818
-0.005715992
-0.046536472
-0.042709552
-0.102664632
-0.124031602
-0.094372972
-0.074919462
-0.033142252
-0.046536472
-0.054828132
-0.042709552
-0.012413102
0.006083678
-0.042390642
-0.094054062
-0.094054062
-0.024212772
-0.044623012
-0.043985192
-0.014645472
-0.060568512
-0.007629452
0.056790368
0.030639748
0.035104488
0.044033968
0.037336858
0.059660558
0.100162128
0.113875258
0.075287148
0.052963448
0.047541978
0.072098048
0.062530748
0.023623728
-0.029953152
-0.074919462
-0.055784862
0.000662208
0.013418608
-0.043028462
0.000343298
0.003851308
-0.036650262
0.001937848
-0.002845802
-0.012094192
-0.022937132
-0.026445142
-0.051639032
-0.033142252
-0.017834572
-0.031866612
-0.023574952
-0.000294522
0.017564438
0.024261548
0.035423398
0.016926618
0.005126948
0.028726288
0.031596478
0.016607708
-0.060568512
-0.091821692
-0.051001212
-0.049087752
-0.073962732
-0.104578092
-0.167084452
-0.150182222
-0.110318472
-0.080659842
-0.060568512
-0.017834572
-0.039201542
-0.045898652
0.023942638
0.027450648
0.010548418
0.000662208
-0.003802532
0.060617288
0.074649328
0.059022738
0.043396148
0.009910598
0.023942638
0.073373688
0.075287148
0.013418608
0.060617288
0.087724638
0.055514728
0.088043548
0.068590038
0.044352878
0.048817618
0.033828848
-0.003164712
0.020434628
0.049136528
0.010229508
0.024580458
0.033191028
0.053601268
0.061574018
0.015013158
0.011824058
0.037017948
0.057109278
0.018521168
-0.003483622
-0.028358602
-0.044941922
0.007359318
-0.041433912
-0.070773632
-0.069497992
-0.093735152
-0.035693532
-0.008586182
-0.020066942
-0.041433912
-0.002845802
-0.012413102
-0.001570162
0.050412168
0.059660558
0.029045198
0.010548418
-0.020385852
0.050731078
0.040207048
-0.001251252
-0.041433912
-0.048768842
-0.011775282
0.053601268
0.056790368
-0.002526892
0.028088468
0.015013158
0.020115718
0.029364108
-0.005715992
-0.007629452
-0.014007652
-0.010180732
-0.046855382
-0.030272062
-0.051320122
-0.086400222
-0.079703112
-0.080659842
-0.048449932
-0.029953152
-0.077151832
-0.058973962
-0.009224002
0.014694248
0.004489128
-0.030909882
-0.074600552
-0.078746382
-0.013369832
-0.017834572
-0.022937132
-0.015921112
-0.052276852
-0.026764052
0.010548418
0.015969888
0.012142968
0.106540328
0.089957008
0.046585248
0.103989048
0.065082028
0.037017948
0.029683018
0.005126948
0.058066008
0.074649328
0.026812828
-0.021980402
-0.016240022
-0.033142252
0.023304818
0.042120508
0.004170218
0.011824058
-0.006034902
-0.024850592
0.012780788
-0.004759262
-0.045579742
-0.061844152
-0.051320122
-0.052914672
-0.067584532
-0.083848942
-0.110956292
-0.092459512
-0.066627802
-0.054828132
-0.015283292
-0.014645472
-0.048768842
-0.050044482
-0.001251252
0.039888138
0.025856098
-0.015602202
-0.026445142
0.050731078
0.038293588
0.009272778
2.44E-05
-0.042390642
-0.018153482
0.029045198
0.040844868
0.030320838
0.072735868
0.061892928
0.030001928
0.068590038
0.039250318
-0.000932342
-0.003483622
-0.001251252
0.037336858
0.035423398
0.019477898
-0.013369832
-0.026445142
-0.013369832
0.035742308
0.048498708
0.030320838
0.074968238
0.100481038
0.071141318
0.097929758
0.034147758
-0.017515662
-0.012413102
0.021710268
-0.035693532
-0.033142252
-0.021661492
-0.053233582
-0.035693532
-0.038244812
-0.054509222
-0.032504432
-0.009542912
0.040844868
0.058066008
0.090913738
0.100799948
0.092827198
0.077200608
0.074649328
0.111961798
0.126950568
0.119615638
0.033828848
-0.063119792
-0.003483622
0.094740658
0.082622078
0.019477898
0.069865678
2.44E-05
-0.041752822
-0.004440352
-0.033142252
-0.055784862
-0.063119792
-0.081616572
-0.065352162
-0.074281642
-0.084805672
-0.103940272
-0.125945062
-0.106491552
-0.044623012
-0.019748032
-0.060249602
-0.041433912
-0.018472392
-0.017515662
0.028726288
0.011186238
-0.009542912
-0.007629452
0.022348088
0.007040408
0.020753538
0.030639748
-0.006034902
0.000343298
0.015650978
0.052963448
0.094421748
0.071141318
0.073373688
0.083578808
0.090275918
0.087724638
0.113875258
0.020434628
-0.011456372
0.044671788
0.048179798
0.021391358
-0.005078172
-0.082892212
-0.065989982
-0.002845802
0.009591688
-0.017834572
0.019158988
0.000981118
-0.035055712
0.003532398
0.019477898
0.014694248
-0.004440352
-0.038244812
0.008634958
0.007997138
-0.012094192
-0.030272062
-0.040158272
-0.022299312
0.035742308
0.033191028
-0.028358602
-0.004759262
0.011824058
0.008316048
0.047541978
0.022348088
0.001300028
-0.015283292
0.023623728
-0.019429122
-0.040477182
-0.017515662
-0.056741592
-0.031547702
-0.003164712
0.000981118
0.028407378
0.037336858
0.057747098
0.030958658
0.027769558
0.015650978
-0.006034902
-0.034736802
-0.043028462
0.046266338
0.046904158
0.024580458
-0.001889072
-0.076195102
-0.057060502
-0.000932342
0.005764768
-0.001570162
0.075287148
0.091232648
0.041163778
0.084535538
0.045628518
0.016607708
0.020753538
-0.002207982
0.016926618
-0.008586182
-0.007629452
-0.032823342
-0.056741592
-0.033461162
0.030639748
0.044990698
-0.007310542
0.001618938
0.030958658
0.037017948
0.078157338
0.058384918
0.087405728
0.087405728
0.077838428
0.026175008
0.030958658
0.030958658
-0.018791302
-0.030272062
0.012461878
0.045309608
0.055514728
0.003213488
0.009272778
-0.005715992
0.018840078
0.010867328
-0.023574952
-0.063119792
-0.061525242
-0.007629452
-0.027720782
-0.062481972
-0.065033252
-0.099794442
-0.066946712
-0.009861822
0.002575668
-0.039520452
0.011824058
0.011824058
-0.016877842
0.044033968
0.036380128
0.014694248
0.030320838
0.022029178
0.048498708
0.037017948
0.021391358
-0.031866612
-0.048449932
0.006083678
0.067633308
0.077200608
0.026812828
0.023942638
0.035104488
0.053601268
0.107815968
0.059341648
0.012780788
-0.000294522
0.048179798
0.032234298
0.022985908
0.004170218
-0.042390642
-0.019110212
0.010548418
-0.015921112
-0.016558932
-0.048131022
-0.073006002
-0.016877842
0.039569228
0.035742308
0.008953868
-0.018153482
-0.051320122
-0.034736802
-0.035693532
-0.046217562
-0.007310542
-0.055465952
-0.016558932
0.040844868
0.075287148
0.037974678
0.064444208
0.020434628
0.021391358
0.072735868
0.023304818
0.012780788
0.009272778
-0.027082962
0.022348088
0.047860888
0.013099698
-0.038882632
-0.051957942
-0.059292872
0.002256758
0.009272778
-0.029634242
-0.016240022
0.009591688
0.027450648
0.059660558
0.030958658
-0.028677512
-0.019429122
0.030320838
-0.022937132
-0.006991632
0.008634958
-0.031866612
-0.019748032
0.013418608
0.024261548
0.053920178
0.043715058
0.036699038
0.041801598
0.071779138
0.080070798
0.050412168
0.011186238
-0.005715992
0.050731078
0.043396148
0.004808038
-0.005078172
-0.045579742
-0.020385852
0.018840078
0.037336858
0.012142968
0.070184588
0.055833638
0.023304818
0.046904158
0.052963448
0.038293588
0.039250318
0.005445858
-0.006991632
-0.013369832
-0.009224002
-0.043028462
-0.033142252
-0.020385852
0.036380128
0.058703828
0.032234298
0.042758328
0.045947428
0.035423398
0.051049988
0.007997138
-0.029315332
-0.006672722
0.042120508
0.040844868
0.041482688
-0.002207982
-0.065352162
-0.058655052
-0.080022022
-0.079065292
-0.044623012
-0.028039692
-0.030909882
-0.005078172
0.047541978
0.037336858
-0.034098982
-0.073006002
-0.053233582
0.018202258
0.011186238
-0.012413102
-0.014326562
-0.055465952
-0.025169502
0.021710268
0.028088468
-0.005078172
0.056790368
0.047541978
0.011824058
0.066995488
0.042439418
0.023304818
0.018840078
-0.009224002
-0.000613432
0.007997138
0.008953868
-0.020704762
-0.026445142
-0.015921112
0.030001928
0.046585248
0.011824058
0.022348088
0.040525958
0.046585248
0.095059568
0.076881698
0.038612498
0.053601268
0.081984258
0.030320838
0.014375338
0.020434628
-0.025807322
-0.004440352
0.001300028
0.000981118
0.051049988
0.042758328
0.032553208
0.015332068
0.037655768
0.022348088
-0.022299312
-0.059292872
-0.069179082
-0.001251252
0.007997138
-0.031228792
-0.049406662
-0.080022022
-0.054828132
0.007678228
0.028726288
-0.021342582
0.019796808
0.003532398
0.008953868
0.067314398
0.038612498
0.030001928
0.004808038
-0.003483622
0.004489128
0.032872118
0.038612498
0.013099698
-0.000613432
0.008634958
0.009272778
0.015332068
-0.028358602
-0.011456372
0.022985908
0.027131738
0.036380128
0.010867328
0.001300028
-0.051001212
-0.021023672
-0.020385852
-0.047812112
-0.047174292
-0.086081312
-0.078108562
-0.045898652
-0.026445142
0.007997138
0.022029178
0.012142968
0.004170218
0.050412168
0.053282358
0.022985908
-0.028677512
-0.037288082
0.026812828
0.035742308
0.007678228
0.001937848
-0.033780072
-0.007948362
0.046904158
0.050093258
0.009910598
0.056790368
0.055195818
0.036699038
0.091232648
0.070822408
0.039569228
0.039888138
0.029683018
0.036380128
0.045628518
0.044033968
0.006083678
0.025856098
0.109410518
0.113237438
0.093465018
0.025856098
0.017245528
0.073373688
0.104626868
0.119615638
0.069546768
0.001618938
-0.038882632
-0.032823342
-0.055784862
-0.086719132
-0.102983542
-0.148587672
-0.110956292
-0.076514012
-0.083211122
-0.061844152
-0.059611782
-0.098199892
-0.091183872
-0.039201542
-0.028039692
-0.030909882
-0.054190312
-0.073324912
0.015969888
0.024899368
-0.010499642
-0.028039692
-0.068541262
-0.050044482
0.011824058
0.064125298
0.015332068
0.058703828
0.039888138
0.006083678
0.064763118
0.052963448
0.035742308
0.039888138
0.023942638
0.024580458
0.030639748
0.012780788
-0.021023672
-0.022618222
-0.005397082
0.040525958
0.066038758
0.026175008
0.037336858
0.063168568
0.079432978
0.105264688
0.064125298
0.016288798
0.016288798
0.060936198
0.030958658
0.021710268
0.040844868
0.031277568
0.065719848
0.066357668
0.089000278
0.100481038
0.095378478
0.056152548
0.048817618
0.097610848
0.086448998
0.059022738
0.028407378
-0.008586182
0.035104488
0.023623728
-0.037288082
-0.080659842
-0.093416242
-0.078108562
-0.059292872
-0.042390642
-0.091821692
-0.041433912
-0.037606992
-0.071092542
-0.014645472
-0.039201542
-0.076514012
-0.082892212
-0.076514012
-0.082892212
-0.060887422
-0.067265622
-0.101707902
-0.080340932
-0.069179082
-0.035374622
0.000662208
-0.022299312
-0.006672722
0.024580458
0.038293588
0.064444208
0.034147758
-0.010499642
-0.014645472
0.047541978
0.025856098
0.016926618
0.034466668
-0.014326562
0.010229508
0.024261548
0.031915388
0.066676578
0.083259898
0.093465018
0.075924968
0.105264688
0.096016298
0.065400938
0.057109278
0.011186238
0.051049988
0.035423398
0.003532398
-0.008586182
-0.056422682
-0.018791302
0.041482688
0.008634958
-0.021342582
0.051687808
0.037336858
0.021072448
0.074649328
0.070184588
0.002894578
-0.018791302
-0.022937132
-0.027720782
-0.018791302
-0.021342582
-0.079384202
-0.047174292
-0.026126232
-0.028677512
-0.025488412
-0.071411452
-0.079703112
-0.063438702
-0.023893862
0.017564438
-0.007310542
-0.051639032
-0.059611782
0.008953868
-0.009861822
-0.025169502
-0.016240022
-0.056103772
-0.029634242
2.44E-05
-0.013050922
0.007678228
0.047541978
0.040844868
0.021710268
0.070503498
0.063806388
0.039888138
0.021072448
0.001618938
0.052006718
0.052644538
0.019796808
-0.004121442
-0.034098982
-0.009542912
0.051368898
0.067314398
0.018521168
0.065400938
0.069865678
0.058703828
0.103351228
0.069865678
0.046585248
0.057109278
0.118339998
0.062211838
0.032234298
0.037017948
-0.018153482
-0.048768842
-0.070454722
-0.016558932
0.007359318
-0.041752822
-0.063119792
-0.082573302
-0.065989982
-0.058017232
-0.097243162
-0.142847292
-0.162300802
-0.097880982
-0.098518802
-0.086400222
-0.052914672
-0.087675862
-0.046855382
-0.018472392
-0.023256042
-0.009542912
0.043396148
0.040844868
0.016288798
0.063806388
0.058066008
0.047223068
0.005126948
-0.010180732
0.036699038
0.039888138
0.012461878
-0.005715992
-0.042071732
-0.014007652
0.051049988
0.072416958
0.024580458
0.066357668
0.075924968
0.065719848
0.106221418
0.078795158
0.058384918
0.081665348
0.090913738
0.088043548
0.087724638
0.089957008
0.057428188
0.052006718
0.069546768
0.094421748
0.114513078
0.085492268
0.072735868
0.118339998
0.089319188
0.073054778
0.037655768
-0.032823342
-0.059292872
-0.010499642
-0.032504432
-0.045579742
-0.034417892
-0.084805672
-0.075876192
-0.054509222
-0.058973962
-0.030590972
0.021072448
0.009910598
-0.031228792
0.010229508
0.038612498
0.023623728
-0.001570162
-0.055147042
-0.025488412
-0.033780072
-0.075557282
-0.096286432
-0.097880982
-0.076832922
-0.023893862
-0.017834572
-0.078427472
-0.065033252
-0.069816902
-0.045579742
0.026812828
0.009272778
-0.019429122
-0.011456372
0.000662208
-0.009861822
-0.001889072
0.019477898
-0.017196752
-0.008905092
0.009910598
0.028726288
0.071779138
0.052006718
0.044352878
0.054557998
0.067314398
0.071460228
0.034147758
-0.015283292
-0.010818552
0.042758328
0.013737518
-0.003164712
0.008634958
-0.041115002
-0.018791302
0.010867328
0.012461878
-0.004759262
0.048817618
0.047860888
0.035104488
0.084854448
0.085811178
0.072416958
0.059022738
0.030001928
0.129501848
0.083578808
0.026175008
0.013418608
-0.014326562
-0.002207982
0.059660558
0.087405728
0.050731078
0.047541978
0.069865678
0.059022738
0.048498708
0.025218278
-0.020704762
-0.028677512
-0.015921112
-0.034417892
-0.043028462
-0.022937132
-0.056422682
-0.064395432
-0.050044482
-0.017196752
2.44E-05
-0.043985192
-0.039201542
-0.007310542
0.024580458
0.022666998
-0.010180732
-0.031228792
-0.014964382
0.041482688
0.018521168
0.007997138
0.021391358
-0.058655052
-0.029953152
0.021391358
0.033509938
0.015969888
0.045947428
0.036380128
0.011824058
0.067314398
0.048498708
0.001618938
-0.028039692
-0.052595762
-0.010499642
-0.020066942
-0.049725572
-0.068541262
-0.097243162
-0.084167852
-0.030590972
-0.014645472
-0.062163062
-0.017196752
0.005764768
-0.016877842
0.026493918
-0.002526892
-0.025169502
-0.017834572
-0.013688742
-0.027082962
-0.013369832
2.44E-05
-0.041752822
-0.031547702
-0.021023672
0.011824058
0.070503498
0.054557998
0.030001928
0.017564438
0.042439418
0.107815968
0.119615638
0.047541978
0.066357668
0.111323978
0.081346438
0.060298378
0.110367248
0.045628518
0.034785578
0.057109278
0.050093258
0.044033968
0.090913738
0.101118858
0.058066008
0.058703828
0.012780788
-0.011775282
-0.025169502
-0.060568512
-0.041115002
-0.038563722
-0.058655052
-0.118610132
-0.134555632
-0.093416242
-0.026764052
0.017245528
-0.069497992
-0.056422682
-0.052595762
-0.072049272
-0.024212772
-0.039201542
-0.068541262
-0.060887422
-0.058017232
-0.087994772
-0.065671072
-0.067265622
-0.129771982
-0.120523592
-0.105853732
-0.070454722
-0.020385852
-0.037288082
-0.032823342
-0.017834572
0.010548418
0.045309608
0.027131738
-0.012413102
0.012142968
0.074649328
0.050412168
0.039888138
0.029364108
-0.020385852
-0.006034902
0.017883348
0.020434628
-0.003802532
0.030639748
0.028407378
0.015650978
0.051368898
0.033509938
-0.028677512
-0.039520452
-0.020066942
0.037017948
0.046904158
0.031915388
0.021072448
0.012142968
0.105264688
0.169684508
0.155971378
0.103032318
0.142577158
0.115469808
0.087405728
0.111642888
0.089957008
0.057109278
0.069865678
0.085811178
-0.006991632
-0.015283292
-0.009542912
-0.076514012
-0.080978752
-0.056103772
-0.039839362
-0.033142252
-0.051957942
-0.025488412
0.029364108
0.073373688
0.049455438
0.029364108
-0.033780072
-0.059930692
0.014375338
-0.001889072
-0.035374622
-0.072687092
-0.149544402
-0.095648612
-0.038244812
-0.048131022
-0.080340932
-0.061844152
-0.069816902
-0.083530032
-0.048131022
-0.076832922
-0.107767192
-0.102664632
-0.103940272
-0.060249602
-0.053552492
-0.076832922
-0.102026812
-0.120523592
-0.087356952
-0.023256042
-0.007948362
-0.058017232
-0.028358602
-0.005078172
-0.007948362
0.027131738
0.006721498
-0.022937132
-0.021980402
0.002575668
-0.025169502
-0.011775282
0.021072448
-0.035693532
-0.023574952
-0.002526892
-0.011456372
0.011824058
0.000662208
0.003851308
0.034147758
0.086448998
0.073373688
0.019477898
-0.003802532
0.001937848
0.056152548
0.052644538
0.035423398
0.057109278
0.027450648
0.062530748
0.143214978
0.158203748
0.122485828
0.153101188
0.135561138
0.125993838
0.146404078
0.096973028
0.106221418
0.098886488
0.069227858
0.032872118
-0.009224002
-0.001570162
-0.023893862
-0.091502782
-0.089270412
-0.070773632
-0.073006002
-0.130409802
-0.086400222
-0.080978752
-0.078427472
-0.044304102
-0.067584532
-0.100751172
-0.114145392
-0.089908232
-0.121161412
-0.116058852
-0.093097332
-0.121799232
-0.096286432
-0.084167852
-0.080659842
-0.047174292
-0.066308892
-0.073324912
-0.051957942
-0.010499642
-0.001889072
-0.030590972
-0.080978752
-0.071411452
0.000981118
-0.013688742
-0.019748032
-0.013050922
-0.055147042
-0.017834572
0.036380128
0.083897718
0.066357668
0.109091608
0.105583598
0.096654118
0.151506638
0.154057918
0.147679718
0.116107628
0.078157338
0.125356018
0.145128438
0.149593178
0.108772698
0.055514728
0.048817618
0.095378478
0.094102838
0.053282358
0.084535538
0.066676578
0.049136528
0.045309608
0.034785578
-0.038563722
-0.061844152
-0.051957942
-0.100113352
-0.103302452
-0.092140602
-0.150820042
-0.145079662
-0.120842502
-0.122118142
-0.087038042
-0.096924252
-0.090227142
-0.090864962
-0.055147042
-0.041433912
-0.069179082
-0.115102122
-0.117653402
-0.052276852
-0.057060502
-0.084805672
-0.096286432
-0.140933832
-0.124988332
-0.076832922
-0.082254392
-0.121799232
-0.062800882
-0.048449932
-0.062481972
-0.015283292
-0.033142252
-0.039520452
-0.026126232
-0.041433912
0.003213488
0.012142968
0.009272778
-0.003483622
-0.007948362
0.022029178
0.095059568
0.118658908
0.085492268
0.130777488
0.136836778
0.130777488
0.144171708
0.123442558
0.107178148
0.117064358
0.180208538
0.169684508
0.167771048
0.133647678
0.054876908
0.075606058
0.085492268
0.079751888
0.091551558
0.052644538
0.060617288
0.045947428
0.050093258
0.044352878
0.066676578
0.041163778
-0.035693532
0.022666998
0.030639748
0.026493918
0.012780788
-0.037288082
-0.023893862
0.042120508
0.049774348
-0.006034902
-0.025169502
-0.011775282
-0.023893862
0.003213488
-0.080978752
-0.144441842
-0.157836062
-0.190364882
-0.175057202
-0.167084452
-0.177927392
-0.207904932
-0.217153322
-0.188132512
-0.120523592
-0.091183872
-0.126901792
-0.098518802
-0.064714342
-0.056103772
-0.005078172
-0.020385852
-0.048768842
-0.049087752
-0.001570162
-0.036969172
-0.041433912
-0.039839362
-0.079703112
-0.065033252
-0.055784862
-0.057379412
-0.028358602
-0.027720782
-0.028039692
-0.020385852
0.017245528
0.010867328
-0.025169502
-0.051957942
-0.050044482
0.018202258
0.025856098
0.013737518
0.015969888
-0.014645472
0.025856098
0.077838428
0.088362458
0.041482688
0.094740658
0.094740658
0.079114068
0.117383268
0.088681368
0.060298378
0.048179798
0.025218278
0.038931408
0.032872118
0.022348088
-0.006353812
-0.017196752
0.004489128
0.066995488
0.064125298
-0.005715992
0.020115718
0.041163778
0.049136528
0.084854448
0.081665348
0.032553208
0.011186238
0.036380128
0.009272778
0.011824058
0.022985908
-0.028996422
-0.030272062
-0.032185522
-0.019429122
-0.007310542
-0.000613432
-0.027720782
-0.054828132
-0.001889072
0.016288798
-0.035374622
-0.094372972
-0.122118142
-0.060568512
-0.064076522
-0.094054062
-0.109680652
-0.147630942
-0.124350512
-0.063757612
-0.046855382
-0.087038042
-0.035374622
-0.030590972
-0.041433912
0.019477898
-0.004759262
-0.021661492
-0.033780072
-0.034098982
-0.005078172
0.007678228
0.026812828
-0.011456372
-0.026764052
-0.004759262
0.044990698
0.064125298
0.015969888
0.044990698
0.097929758
0.080070798
0.089319188
0.043077238
2.44E-05
0.011505148
0.051368898
0.001937848
-0.018472392
-0.014007652
-0.058017232
-0.042709552
-0.033780072
-0.049406662
-0.012732012
-0.017515662
-0.028358602
-0.027720782
0.016607708
0.016288798
-0.026764052
-0.057379412
-0.055465952
0.011505148
0.010229508
-0.018153482
-0.011775282
-0.048131022
-0.028996422
0.055833638
0.078157338
0.018840078
0.045628518
0.053282358
0.030639748
0.057747098
0.030320838
-0.001251252
0.012461878
0.000981118
-0.018472392
-0.033780072
-0.053871402
-0.058017232
-0.080978752
-0.084805672
-0.046855382
-0.020704762
-0.067903442
-0.052914672
-0.021023672
-0.004440352
0.027769558
-0.006672722
-0.052276852
-0.053233582
-0.001889072
-0.030909882
-0.036969172
-0.029953152
-0.073006002
-0.050044482
-0.030590972
-0.028358602
-0.003802532
0.009910598
0.003213488
-0.005078172
0.039569228
0.043396148
0.010548418
-0.028996422
-0.042709552
0.011824058
0.010867328
-0.021342582
-0.039520452
-0.089589322
-0.073643822
-0.025807322
-0.029634242
-0.060568512
0.001937848
-0.015921112
-0.047174292
-0.000613432
-0.028358602
-0.033780072
-0.015283292
-0.015602202
-0.022618222
-0.022618222
-0.008905092
-0.035055712
-0.027720782
-0.008586182
0.036699038
0.051687808
0.002894578
0.020753538
0.039569228
0.044352878
0.055514728
0.005445858
-0.048449932
-0.062800882
-0.007310542
-0.037288082
-0.045260832
-0.041433912
-0.086400222
-0.070135812
-0.050682302
-0.045898652
-0.030590972
-0.005078172
-0.001251252
-0.006034902
0.046266338
0.047223068
0.017883348
-0.014964382
-0.027720782
0.036699038
0.037974678
0.009910598
-0.001570162
-0.037925902
-0.016558932
0.034147758
0.050731078
0.001618938
0.037017948
0.015969888
-0.012094192
0.026493918
-0.009224002
-0.044304102
-0.061844152
-0.080978752
-0.077151832
-0.065352162
-0.062163062
-0.099475532
-0.105853732
-0.072368182
-0.028996422
-0.002526892
-0.046855382
-0.025807322
0.020115718
0.050412168
0.087724638
0.064444208
0.018521168
0.015013158
0.071460228
0.044033968
0.032234298
0.036699038
-0.012732012
0.006083678
0.032553208
0.044990698
0.058703828
0.073692598
0.061255108
0.048817618
0.089319188
0.084216628
0.047541978
0.015650978
-0.005715992
0.049136528
0.075924968
0.039250318
0.007359318
-0.017515662
0.001618938
0.043077238
0.041801598
-0.008905092
0.045309608
0.055833638
0.045628518
0.081346438
0.043715058
0.005126948
-0.025488412
-0.032823342
-0.039520452
-0.028677512
-0.038882632
-0.096924252
-0.102026812
-0.084805672
-0.064395432
-0.048449932
-0.092459512
-0.078108562
-0.048449932
-0.035374622
-0.016240022
-0.045579742
-0.095329702
-0.094372972
-0.029953152
-0.049406662
-0.056741592
-0.046217562
-0.086400222
-0.062163062
-0.039839362
-0.033142252
-0.021661492
0.001300028
-0.008905092
-0.027401872
0.020115718
0.007359318
-0.038244812
-0.083530032
-0.112869752
-0.046536472
-0.042390642
-0.061844152
-0.080022022
-0.114464302
-0.087356952
-0.021980402
-0.003164712
-0.047174292
-0.003164712
0.005126948
0.012780788
0.081346438
0.063487478
0.040844868
0.040525958
0.052325628
0.043396148
0.053920178
0.059979468
0.012461878
0.016607708
0.030001928
0.052006718
0.075287148
0.042439418
0.039888138
0.044990698
0.056152548
0.072098048
0.030639748
-0.014326562
-0.024212772
0.022666998
-0.016558932
-0.030590972
-0.028996422
-0.065671072
-0.038563722
-0.021980402
-0.025488412
-0.028039692
-0.000613432
0.004808038
-0.009542912
0.023942638
0.022985908
-0.010180732
-0.031866612
-0.055465952
-0.005715992
-0.011775282
-0.039201542
-0.063119792
-0.091821692
-0.069816902
-0.007629452
-0.003802532
-0.058336142
0.001937848
-0.008586182
-0.014645472
0.039888138
0.005764768
-0.029953152
-0.041752822
-0.027401872
-0.028358602
-0.011775282
-0.007948362
-0.044623012
-0.049406662
-0.030272062
0.008634958
0.041482688
-0.006353812
0.010548418
0.027131738
0.055195818
0.081346438
0.035742308
-0.016240022
-0.018791302
0.046904158
0.018840078
0.021391358
0.029045198
-0.021023672
-0.010499642
0.010867328
0.027131738
0.044990698
0.071141318
0.058066008
0.037017948
0.098567578
0.081984258
0.035742308
0.012780788
0.001937848
0.044990698
0.018840078
-0.010499642
-0.028358602
-0.072687092
-0.061206332
0.000981118
-0.008586182
-0.077789652
-0.039520452
-0.021342582
-0.027082962
0.000662208
-0.040158272
-0.060568512
-0.069179082
-0.063438702
-0.084486762
-0.076832922
-0.075238372
-0.117015582
-0.109361742
-0.093416242
-0.071730362
-0.037925902
-0.056103772
-0.056103772
-0.036012442
-0.006672722
0.015332068
-0.016877842
-0.061844152
-0.057379412
0.014375338
2.44E-05
-0.014007652
-0.005715992
-0.048768842
-0.018153482
0.009272778
0.014694248
0.009591688
0.044352878
0.032553208
0.020115718
0.062530748
0.040525958
0.006402588
-0.017834572
-0.037925902
0.010548418
0.012142968
0.005445858
-0.006991632
-0.032504432
-0.003483622
0.064125298
0.072098048
0.013099698
0.038293588
0.055833638
0.059341648
0.103989048
0.040207048
-0.001251252
0.006721498
0.035742308
0.002894578
-0.011775282
-0.011456372
-0.062800882
-0.063119792
-0.049406662
-0.028996422
0.005126948
-0.030272062
-0.027720782
-0.000932342
0.036380128
0.052963448
0.013418608
-0.041115002
-0.039201542
0.029045198
0.010867328
-0.011775282
-0.008905092
-0.055465952
-0.018153482
0.032553208
0.031596478
0.022666998
0.057747098
0.043715058
0.028726288
0.077519518
0.052963448
0.025856098
0.006083678
-0.022299312
0.021391358
0.016607708
-0.014645472
-0.051957942
-0.076832922
-0.059930692
-0.003164712
0.003532398
-0.036650262
-0.009542912
-0.009224002
-0.018153482
0.018521168
-0.022618222
-0.060568512
-0.072049272
-0.050682302
-0.070135812
-0.070135812
-0.075557282
-0.123074872
-0.110318472
-0.085443492
-0.067584532
-0.032823342
-0.055465952
-0.035693532
-0.019110212
0.010867328
0.013737518
0.016607708
-0.009542912
-0.017515662
0.045628518
0.030001928
0.015013158
0.013737518
-0.030909882
-0.009224002
0.029364108
0.029683018
0.013418608
0.059660558
0.050731078
0.029045198
0.079432978
0.065400938
0.038293588
0.032234298
0.008634958
0.059022738
0.056152548
0.032872118
0.007040408
-0.010818552
0.012780788
0.071141318
0.074968238
0.023942638
0.046904158
0.041482688
0.043715058
0.083259898
0.053920178
0.012461878
-0.022618222
-0.019429122
-0.036331352
-0.036012442
-0.029634242
-0.067584532
-0.060249602
-0.061206332
-0.058017232
-0.015283292
-0.022937132
-0.021342582
-0.006672722
0.019158988
0.033191028
-0.009861822
-0.069497992
-0.073962732
0.006083678
0.007359318
-0.011456372
-0.042390642
-0.091183872
-0.066946712
-0.032504432
-0.009542912
-0.027720782
0.015013158
-0.020385852
-0.052595762
0.016926618
-0.000932342
-0.019748032
-0.021342582
-0.055465952
-0.013688742
-0.022937132
-0.040158272
-0.056422682
-0.073962732
-0.058336142
-0.002207982
0.009591688
-0.034417892
-0.004759262
0.009272778
0.007678228
0.049455438
0.023304818
-0.007310542
-0.014007652
0.011505148
-0.016877842
-0.009542912
0.005764768
-0.036331352
-0.021661492
-0.005715992
0.000981118
0.029683018
0.011186238
0.020753538
0.016607708
0.053282358
0.088043548
0.054239088
-0.008586182
-0.024850592
0.042758328
0.023942638
-0.007310542
-0.008905092
-0.054190312
-0.025169502
0.005126948
-0.007948362
-0.022937132
0.052006718
0.043077238
0.007997138
0.095697388
0.070503498
0.015650978
-0.016877842
-0.038882632
0.026175008
0.024580458
0.000662208
-0.042071732
-0.053552492
-0.045579742
0.004489128
0.002575668
-0.055147042
-0.047174292
-0.043666282
-0.036650262
0.011186238
-0.010499642
-0.063119792
-0.073643822
-0.028996422
-0.038244812
-0.022299312
-0.032185522
-0.063438702
-0.047174292
-0.044623012
-0.039201542
-0.011775282
-0.026764052
-0.011775282
-0.027082962
-0.000613432
0.032872118
0.005445858
-0.050044482
-0.072049272
-0.014326562
-0.019110212
-0.042071732
-0.025807322
-0.037288082
0.004170218
0.078157338
0.095059568
0.047541978
0.110367248
0.108453788
0.082940988
0.141620428
0.117064358
0.078476248
0.064125298
0.037336858
0.059660558
0.055833638
0.030958658
-0.016240022
-0.037288082
-0.034736802
0.027450648
0.033509938
-0.045260832
-0.007310542
0.000343298
0.011824058
0.037017948
-0.011137462
-0.076195102
-0.093097332
-0.056741592
-0.087356952
-0.082254392
-0.075557282
-0.105534822
-0.103621362
-0.114145392
-0.124988332
-0.084167852
-0.109361742
-0.102664632
-0.102345722
-0.052276852
-0.022618222
-0.053552492
-0.101707902
-0.097562072
-0.008586182
-0.026764052
-0.075557282
-0.091821692
-0.125307242
-0.076195102
-0.008267272
0.012142968
-0.024212772
0.031277568
0.034466668
0.010867328
0.053601268
0.042120508
0.026812828
0.024261548
-0.007629452
0.043715058
0.115469808
0.152463368
0.066038758
0.030639748
0.055833638
0.136517868
0.149593178
0.098248668
0.104626868
0.125674928
0.121529098
0.121848008
0.072416958
0.000981118
0.005126948
0.020434628
-0.012413102
-0.022299312
-0.050363392
-0.074919462
-0.069179082
-0.082573302
-0.058655052
0.021710268
0.038293588
0.042758328
0.082303168
0.167133228
0.144809528
0.072735868
0.020753538
0.057747098
0.103989048
0.089638098
0.045947428
0.043077238
0.030320838
-0.005078172
0.009272778
-0.019429122
-0.051320122
-0.017196752
-0.035374622
-0.073962732
-0.035055712
-0.070135812
-0.104578092
-0.137106912
-0.181435402
-0.148906582
-0.125307242
-0.124031602
-0.153052412
-0.168679002
-0.158473882
-0.108723922
-0.083530032
-0.137425822
-0.095648612
-0.041433912
-0.021980402
0.003213488
-0.024531682
-0.047812112
-0.058336142
0.001618938
0.000343298
0.041482688
0.084216628
0.015650978
0.019477898
0.023304818
0.007040408
0.019796808
0.026175008
0.028407378
0.034147758
0.077838428
0.031915388
0.004808038
-0.053871402
-0.089908232
-0.015283292
-0.044304102
-0.073962732
-0.078427472
-0.118291222
-0.078746382
-0.013369832
0.022985908
-0.005078172
0.034466668
0.044990698
0.063806388
0.151506638
0.099524308
0.090275918
0.103351228
0.097610848
0.102394498
0.068271128
0.050412168
0.019158988
0.014375338
0.020753538
0.037655768
0.036380128
-0.024850592
-0.013050922
-0.032823342
-0.043028462
-0.022299312
-0.066627802
-0.107767192
-0.058973962
-0.028996422
-0.094054062
-0.082892212
-0.048768842
-0.056741592
-0.015602202
-0.030272062
-0.029315332
0.004808038
-0.001570162
-0.011456372
-0.038882632
0.021072448
0.031915388
0.000981118
-0.041752822
-0.084805672
-0.046536472
-0.053233582
-0.056422682
-0.045579742
-0.102026812
-0.064395432
0.014056428
0.055514728
0.015969888
0.069227858
0.048498708
0.040844868
0.106540328
0.060936198
-0.000294522
0.040844868
0.019796808
-0.022937132
-0.024212772
-0.071092542
-0.072368182
-0.047812112
-0.023256042
-0.007629452
-0.044304102
-0.070454722
-0.059292872
-0.017196752
0.000343298
0.093146108
0.087086818
0.052006718
0.085492268
0.129501848
0.070503498
0.069546768
0.077838428
0.037336858
0.078157338
0.096973028
0.069227858
0.048817618
0.091551558
0.089000278
0.068908948
0.094740658
0.058384918
0.007040408
-0.030272062
-0.053552492
-0.028358602
-0.049087752
-0.075876192
-0.096924252
-0.141890562
-0.147312032
-0.089908232
-0.059930692
-0.114783212
-0.099475532
-0.083848942
-0.090227142
-0.044304102
-0.048131022
-0.019110212
-0.018791302
-0.034736802
-0.034736802
-0.034417892
-0.007310542
-0.026126232
-0.016877842
-0.005397082
0.025537188
0.002894578
-0.051320122
-0.037925902
0.000662208
0.009272778
-0.006991632
-0.048131022
-0.074600552
-0.084167852
-0.024850592
-0.050363392
-0.056422682
-0.032185522
-0.062163062
-0.018153482
0.034147758
0.000343298
-0.004759262
0.008953868
-0.007948362
-0.023574952
0.034147758
0.052644538
0.031915388
-0.014326562
0.004808038
0.040525958
0.074330418
0.098567578
0.070503498
0.091551558
0.138112418
0.186905648
0.182121998
0.125993838
0.173830338
0.164900858
0.130458578
0.213694088
0.137793508
0.083897718
0.063487478
0.018521168
-0.005397082
-0.058017232
-0.085762402
-0.103302452
-0.089589322
-0.102983542
-0.055784862
-0.035693532
-0.083530032
-0.073962732
-0.033461162
-0.004440352
0.021391358
-0.033461162
-0.091183872
-0.109999562
-0.043666282
-0.074281642
-0.097243162
-0.073324912
-0.097880982
-0.084805672
-0.095967522
-0.087356952
-0.069497992
-0.077789652
-0.068222352
-0.053871402
0.020115718
0.005764768
-0.035055712
-0.074281642
-0.075557282
0.036061218
0.086130088
0.110048338
0.095059568
0.020753538
0.021072448
0.133328768
0.170641238
0.141620428
0.198067498
0.201894418
0.161073938
0.188181288
0.074330418
0.075924968
0.092189378
0.070503498
-0.040158272
-0.041433912
-0.029315332
-0.076832922
-0.101707902
-0.121480322
-0.097880982
-0.068222352
-0.109680652
-0.102345722
-0.060887422
-0.037288082
-0.002207982
-0.032823342
-0.077470742
-0.031228792
0.072735868
0.030001928
0.048498708
0.055514728
-0.014645472
-0.012732012
0.004489128
0.015332068
0.048179798
0.075606058
0.045309608
0.011505148
0.061255108
0.034147758
-0.001251252
0.024261548
-0.017834572
-0.003164712
-0.007629452
-0.021661492
-0.036969172
-0.068860172
-0.014007652
0.055195818
0.072735868
0.011505148
0.023304818
0.008953868
0.044352878
0.091870468
0.022348088
-0.045898652
-0.004759262
0.029045198
-0.032185522
-0.061525242
-0.060568512
-0.098199892
-0.087038042
-0.068541262
-0.042709552
-0.031547702
-0.084486762
-0.065352162
-0.025488412
-0.025488412
-0.018791302
-0.027720782
-0.060887422
-0.055784862
0.013737518
-0.034736802
-0.037925902
0.004170218
-0.028039692
-0.003164712
0.020115718
0.021072448
0.033828848
0.045628518
0.026812828
0.069227858
0.151187728
0.137793508
0.080070798
0.056152548
0.008316048
0.072735868
0.092508288
0.104307958
0.107815968
0.080389708
0.063806388
0.134604408
0.182440908
0.089319188
0.088681368
0.074330418
0.048179798
0.052963448
0.036061218
0.040844868
0.004808038
0.021391358
-0.006034902
-0.065989982
-0.070773632
-0.103621362
-0.123074872
-0.103302452
-0.084167852
-0.067584532
-0.102345722
-0.087675862
-0.131047622
-0.068860172
0.008316048
-0.044623012
-0.134236722
-0.141252742
-0.084486762
-0.061206332
-0.077789652
-0.054190312
-0.059292872
-0.035055712
-0.005078172
0.004170218
0.021391358
0.049455438
0.052325628
0.052963448
0.094740658
0.083259898
0.051687808
0.014056428
-0.024850592
0.043077238
0.050093258
-0.003483622
-0.047174292
-0.087356952
-0.076195102
-0.014007652
-0.006034902
-0.060568512
0.009591688
0.026175008
0.004489128
0.014375338
-0.017196752
-0.007310542
-0.014964382
0.030639748
0.031915388
0.053601268
0.052006718
0.003851308
0.047541978
0.073373688
0.072735868
0.089000278
0.072416958
0.074968238
0.059341648
0.092189378
0.112280708
0.076881698
0.003213488
-0.027720782
0.004489128
-0.039201542
-0.045579742
-0.048131022
-0.065671072
-0.082892212
-0.090546052
-0.048449932
-0.037288082
-0.054190312
-0.051957942
-0.040158272
-0.002207982
-0.021342582
-0.015602202
-0.016240022
0.014056428
0.106221418
0.116426538
0.104945778
0.078157338
0.064125298
0.091551558
0.146722988
0.115469808
0.058703828
0.073373688
0.095378478
0.093465018
0.077519518
-0.012732012
-0.032504432
-0.056103772
-0.094054062
-0.129453072
-0.127220702
-0.122118142
-0.165489902
-0.121799232
-0.097562072
-0.061525242
-0.033461162
-0.056741592
-0.041752822
-0.019429122
-0.006353812
0.022348088
-0.007948362
-0.058655052
-0.103621362
-0.051957942
-0.057379412
-0.078427472
-0.096924252
-0.131047622
-0.105853732
-0.086081312
-0.079065292
-0.073962732
-0.013688742
0.043396148
0.010867328
0.034785578
0.031277568
0.013099698
-0.001570162
2.44E-05
0.080708618
0.088681368
0.056152548
0.074968238
0.021710268
0.047541978
0.044352878
0.103670138
0.069865678
0.100799948
0.093465018
0.063806388
0.140663698
0.155652468
0.081665348
0.056790368
0.056152548
0.046904158
0.028726288
0.011824058
-0.046855382
-0.052276852
-0.009542912
-0.013050922
-0.025169502
-0.061525242
-0.036650262
-0.013369832
-0.012732012
-0.014645472
-0.033461162
-0.083530032
-0.105853732
-0.053552492
-0.040158272
-0.036650262
-0.040158272
-0.133598902
-0.061206332
-0.030590972
-0.049087752
-0.080022022
-0.041752822
-0.048768842
-0.062163062
-0.019110212
-0.021342582
-0.049406662
-0.078427472
-0.087994772
-0.044941922
-0.046217562
-0.051001212
-0.056422682
-0.078108562
-0.046536472
0.044033968
0.042758328
-0.003483622
0.040207048
0.038612498
0.043715058
0.080389708
0.049136528
0.020115718
0.003851308
0.010229508
-0.003802532
-0.012732012
-0.009861822
-0.089270412
-0.075876192
-0.033461162
-0.013369832
0.007359318
-0.047493202
-0.029953152
0.005445858
0.039888138
0.055833638
0.059979468
0.019477898
0.017245528
0.073373688
0.042758328
0.066676578
0.097929758
0.040207048
0.051049988
0.092508288
0.096654118
0.064125298
0.065082028
0.098886488
0.078157338
0.093465018
0.066676578
0.015650978
0.001618938
0.056471458
0.170641238
0.135561138
0.056790368
0.001618938
-0.055465952
-0.083530032
-0.031228792
-0.004440352
-0.054509222
-0.018472392
-0.063757612
-0.057698322
-0.045260832
-0.068860172
-0.112869752
-0.191959432
-0.183348862
-0.199613272
-0.177608482
-0.118610132
-0.134874542
-0.115421032
-0.049406662
-0.014964382
-0.000294522
-0.044623012
-0.055465952
-0.047812112
-0.009861822
-0.009542912
-0.048131022
-0.087675862
-0.066308892
-0.013369832
-0.047493202
-0.098837712
-0.082892212
-0.095648612
-0.056741592
-0.031228792
-0.013688742
-0.016558932
0.044033968
0.062211838
0.058066008
0.164263038
0.116426538
0.066676578
0.054239088
0.023623728
0.034147758
0.054876908
0.079751888
0.034785578
-0.019748032
-0.051639032
0.014694248
0.070503498
0.024899368
0.015650978
-0.014645472
0.000662208
0.033191028
0.038293588
0.009272778
0.036380128
0.059022738
0.027131738
0.041482688
0.055195818
0.031596478
0.009591688
0.030001928
0.042120508
0.028726288
-0.001889072
0.012142968
0.004489128
0.028407378
0.043396148
-0.013688742
-0.072687092
-0.092459512
-0.065352162
-0.106491552
-0.104259182
-0.058973962
-0.131685442
-0.151457862
-0.142528382
-0.136788002
-0.162300802
-0.118610132
-0.117972312
-0.109361742
-0.039520452
-0.062800882
-0.129771982
-0.106172642
-0.099475532
-0.055465952
-0.055465952
-0.040158272
-0.034417892
-0.026764052
0.020434628
0.100162128
0.133328768
0.078795158
0.093146108
0.106540328
0.078795158
0.096654118
0.062211838
0.045309608
0.040207048
0.040207048
0.011186238
-0.012413102
0.019477898
-0.012094192
-0.027720782
-0.026126232
-0.006991632
0.046266338
0.068271128
0.108134878
0.106859238
0.117383268
0.146085168
0.089638098
0.028726288
0.054876908
0.096973028
0.060617288
0.072416958
0.074649328
0.022985908
-0.016558932
-0.015283292
-0.014964382
-0.034417892
0.035742308
0.035104488
-0.040158272
0.005126948
-0.015602202
-0.038244812
-0.016240022
-0.030909882
-0.026445142
-0.036650262
-0.071730362
-0.131366532
-0.165170992
-0.146355302
-0.067584532
-0.068222352
-0.089270412
-0.054828132
-0.089270412
-0.098199892
-0.053233582
-0.075557282
-0.117972312
-0.100751172
-0.038882632
-0.052914672
-0.046217562
-0.018791302
-0.044304102
-0.043347372
-0.044941922
-0.051001212
-0.032185522
-0.041752822
-0.068222352
-0.068222352
-0.028996422
-0.027720782
-0.061206332
-0.085124582
-0.096924252
-0.053871402
-0.081297662
-0.095967522
-0.053871402
-0.050363392
-0.024531682
0.028726288
0.069227858
0.076881698
0.125674928
0.174149248
0.203170058
0.227726128
0.179570718
0.185630008
0.210823898
0.175424888
0.167452138
0.168727778
0.134604408
0.055195818
-0.007310542
0.015650978
0.053282358
0.056471458
-0.046855382
-0.091502782
-0.130728712
-0.159111702
-0.140933832
-0.167403362
-0.178246302
-0.168679002
-0.137425822
-0.153371322
-0.146993122
-0.147949852
-0.161662982
-0.093097332
-0.075876192
-0.084486762
-0.035055712
-0.040158272
-0.046536472
-0.065989982
-0.023574952
0.000343298
-0.024850592
-0.098837712
-0.093735152
0.000343298
-0.029953152
-0.074600552
-0.087356952
-0.116377762
-0.072368182
0.001937848
0.043077238
0.016607708
0.069865678
0.068271128
0.049774348
0.087086818
0.069865678
0.056790368
0.016607708
-0.060568512
-0.057379412
-0.072049272
-0.099156622
-0.144122932
-0.134555632
-0.071730362
-0.038244812
-0.050682302
-0.075238372
-0.031228792
-0.065989982
-0.051320122
0.058384918
0.079432978
0.078476248
0.102394498
0.169684508
0.143852798
0.173830338
0.223261388
0.183397638
0.228045038
0.301075428
0.315745288
0.271097888
0.222623568
0.176700528
0.148636448
0.138112418
0.105264688
0.075606058
0.081027528
0.015969888
0.000662208
-0.056103772
-0.091821692
-0.137425822
-0.196743082
-0.191640522
-0.132961082
-0.114145392
-0.075238372
-0.002845802
-0.040477182
-0.073643822
-0.021980402
-0.031547702
-0.043028462
-0.053233582
-0.048768842
-0.036012442
-0.032823342
-0.016877842
-0.083848942
-0.145398572
-0.168997912
-0.116696672
-0.098837712
-0.153690232
-0.138382552
-0.103940272
-0.083848942
-0.043028462
-0.062163062
-0.092459512
-0.121161412
-0.078427472
-0.078108562
-0.038882632
-0.011775282
-0.028039692
0.016288798
0.077200608
0.061574018
0.065400938
0.045309608
0.029364108
0.009272778
0.040844868
0.015332068
-0.016240022
-0.051320122
-0.062481972
-0.022618222
-0.028996422
-0.053233582
-0.046855382
-0.115739942
-0.092140602
-0.025807322
0.017245528
0.003532398
0.061255108
0.074968238
0.056790368
0.163306308
0.272692438
0.249412008
0.195197308
0.139069148
0.116745448
0.088043548
0.089957008
0.056152548
0.051368898
0.089638098
0.087086818
0.054239088
0.014375338
0.000981118
-0.021980402
-0.034417892
-0.043985192
-0.083211122
-0.121799232
-0.109361742
-0.041115002
-0.050044482
-0.043347372
-0.039520452
-0.084805672
-0.067265622
-0.048131022
-0.040477182
-0.011456372
0.000343298
-0.006991632
-0.007948362
0.037336858
0.021391358
-0.001251252
-0.042071732
-0.050682302
0.007359318
0.014056428
-0.004759262
-0.017196752
-0.052914672
-0.030272062
0.013737518
0.010867328
-0.050044482
-0.017834572
0.007678228
0.011505148
0.054239088
0.030639748
0.000343298
-0.030272062
