-0.011456
-0.002208
0.012781
0.023943
0.043396
0.017246
-0.017197
-0.026445
0.0095917
-0.0044404
-0.0105
-0.010181
-0.044942
-0.028678
-0.015283
-0.0095429
0.010867
0.0038513
0.0060837
0.0057648
0.037975
0.036699
0.0095917
-0.028359
-0.038245
0.014694
0.012143
-0.0079484
-0.022937
-0.050044
-0.031229
0.004808
0.015332
-0.012732
0.019159
0.016289
0.0073593
0.039888
0.019797
0.0013
-0.0076295
-0.017835
0.0019378
-0.00029452
-0.010819
-0.040796
-0.046536
-0.030591
0.01023
0.025218
-0.016559
-0.0073105
0.0089539
0.017883
0.038931
0.012781
-0.020067
-0.02804
0.0032135
-0.011137
-0.015283
-0.015283
-0.050682
-0.034737
-0.022299
-0.013051
0.0089539
-0.0038025
-0.0012513
2.4388e-05
0.032872
0.033829
0.0051269
-0.034418
-0.042072
0.0095917
0.0067215
-0.014008
-0.025488
-0.052915
-0.034737
-0.0015702
0.0073593
-0.01337
0.019478
0.015332
0.0054459
0.039569
0.020435
0.0019378
-0.0098618
-0.021024
0.0067215
0.0035324
-0.0063538
-0.03665
-0.045261
-0.027402
0.015332
0.028407
-0.014964
-0.0015702
0.014375
0.019797
0.044034
0.01884
-0.010819
-0.019748
0.0070404
-0.0073105
-0.0105
-0.0076295
-0.043985
-0.031548
-0.016559
-0.0060349
0.018521
-0.0018891
0.0028946
0.0070404
0.037975
0.042758
0.012143
-0.027721
-0.03665
0.017564
0.010867
-0.0089051
-0.018472
-0.047493
-0.028996
0.00066221
0.0089539
-0.005716
0.02171
0.019159
0.0079971
0.043077
0.027451
0.0070404
-0.009224
-0.021343
0.011824
0.0099106
-0.0038025
-0.032823
-0.043985
-0.024851
0.01884
0.029683
-0.011775
0.0035324
0.017246
0.020116
0.04531
0.020754
-0.0060349
-0.014645
0.004808
-0.0063538
-0.0073105
-0.0085862
-0.041753
-0.031867
-0.016878
-0.0031647
0.02171
-0.0041214
0.00066221
0.0067215
0.036061
0.041164
0.012143
-0.028996
-0.038245
0.015332
0.0079971
-0.010181
-0.017835
-0.047812
-0.028359
-0.0050782
0.0054459
-0.0044404
0.021391
0.018521
0.0073593
0.044034
0.028088
0.0079971
-0.012413
-0.024532
0.014694
0.012462
-0.0038025
-0.029315
-0.045899
-0.026445
0.017883
0.030002
-0.013051
0.0070404
0.016289
0.019159
0.044991
0.019797
-0.0053971
-0.012094
0.0041702
-0.0060349
-0.0069916
-0.0076295
-0.041115
-0.03378
-0.017516
0.00066221
0.020754
-0.0063538
-0.0031647
0.008316
0.033829
0.041802
0.011824
-0.029634
-0.038245
0.014056
0.0051269
-0.012094
-0.015921
-0.047174
-0.030591
-0.0066727
-0.002208
-0.0038025
0.019797
0.014375
0.0060837
0.03925
0.028407
0.0038513
-0.017835
-0.031229
0.013738
0.0099106
-0.0089051
-0.03378
-0.050044
-0.031229
0.013738
0.023624
-0.015283
0.0060837
0.012781
0.011505
0.040526
0.016289
-0.0060349
-0.014645
-0.0041214
-0.0098618
-0.009224
-0.010819
-0.044623
-0.038245
-0.024532
0.0013
0.021391
-0.012413
-0.005716
0.0060837
0.029364
0.040526
0.010548
-0.028678
-0.039202
0.012143
2.4388e-05
-0.011456
-0.017516
-0.050363
-0.029634
-0.0098618
-0.0050782
-0.0025269
0.014694
0.012781
0.0051269
0.039888
0.029683
0.0057648
-0.020067
-0.033461
0.012462
0.0131
-0.0066727
-0.028678
-0.049407
-0.030272
0.015013
0.028407
-0.014964
0.010548
0.017246
0.015651
0.042758
0.020435
-0.00093234
-0.0079484
-0.0025269
-0.002208
-0.0028458
-0.0063538
-0.03952
-0.034737
-0.020067
0.0076782
0.025537
-0.0095429
-0.0044404
0.01023
0.029683
0.043077
0.014694
-0.026126
-0.033461
0.014375
2.4388e-05
-0.0105
-0.014327
-0.04845
-0.029634
-0.011456
-0.005716
0.00098112
0.012462
0.011505
0.0038513
0.040207
0.031596
0.0060837
-0.022299
-0.035375
0.013419
0.012781
-0.0079484
-0.027721
-0.050044
-0.032823
0.011186
0.021391
-0.015283
0.0131
0.015013
0.01023
0.040207
0.016927
-0.0018891
-0.009224
-0.0076295
-0.0031647
-0.0050782
-0.009224
-0.041753
-0.041115
-0.026126
0.0067215
0.02458
-0.012413
-0.0076295
0.0060837
0.023305
0.040845
0.011505
-0.024213
-0.034418
0.0089539
-0.0038025
-0.01337
-0.015921
-0.049088
-0.032186
-0.014645
-0.0082673
0.0044891
0.0099106
0.0095917
0.0028946
0.039569
0.032234
0.0070404
-0.026445
-0.037288
0.014694
0.012781
-0.0095429
-0.027083
-0.05132
-0.03091
0.010867
0.022348
-0.015283
0.014375
0.017564
0.011186
0.042758
0.020435
0.0016189
-0.0060349
-0.010181
0.0013
-0.0015702
-0.0073105
-0.039202
-0.041434
-0.02517
0.0099106
0.02777
-0.01337
-0.0044404
0.0099106
0.022986
0.042439
0.014375
-0.021024
-0.032186
0.0092728
-0.0069916
-0.013051
-0.014645
-0.047812
-0.031548
-0.015602
-0.010181
0.0070404
0.0060837
0.0054459
0.0035324
0.03925
0.034467
0.0067215
-0.029634
-0.038245
0.014694
0.0131
-0.0076295
-0.023575
-0.050044
-0.032504
0.0076782
0.017883
-0.011775
0.01884
0.01884
0.011186
0.043396
0.021391
0.0041702
-0.0060349
-0.012413
0.0051269
0.0025757
-0.0053971
-0.03665
-0.041434
-0.024851
0.014694
0.029364
-0.013689
-0.0028458
0.012462
0.02171
0.042121
0.016608
-0.016559
-0.027083
0.0064026
-0.0076295
-0.011456
-0.01337
-0.046855
-0.032186
-0.017835
-0.009224
0.011186
2.4388e-05
0.0035324
0.0028946
0.037656
0.03638
0.0076782
-0.029634
-0.038883
0.014056
0.0099106
-0.0098618
-0.022937
-0.050363
-0.031229
0.0016189
0.014694
-0.011456
0.019797
0.017246
0.0070404
0.041164
0.022667
0.0025757
-0.0082673
-0.017197
0.0070404
0.0032135
-0.0069916
-0.038245
-0.044942
-0.027402
0.014375
0.026813
-0.011456
-0.0025269
0.012143
0.020754
0.042439
0.015651
-0.013689
-0.022937
0.0057648
-0.0076295
-0.011137
-0.011775
-0.04558
-0.031548
-0.017835
-0.0079484
0.013738
0.0003433
0.0028946
0.0051269
0.037975
0.038612
0.01023
-0.029315
-0.037926
0.01597
0.011505
-0.0089051
-0.019748
-0.04845
-0.029315
0.0019378
0.011505
-0.0082673
0.022029
0.018521
0.0079971
0.043715
0.025537
0.0044891
-0.0085862
-0.019429
0.010867
0.0070404
-0.0047593
-0.034099
-0.044623
-0.027721
0.01597
0.029045
-0.014327
0.00098112
0.014694
0.017883
0.043715
0.017883
-0.010181
-0.01911
0.0028946
-0.0082673
-0.011775
-0.0105
-0.043666
-0.032504
-0.018153
-0.0044404
0.018521
-0.0076295
0.0003433
0.0064026
0.035104
0.040207
0.011186
-0.030272
-0.038245
0.013419
0.008316
-0.009224
-0.019429
-0.050044
-0.029953
-0.0025269
0.0067215
-0.0066727
0.020435
0.017246
0.0070404
0.042121
0.025537
0.0057648
-0.013051
-0.022937
0.01023
0.0076782
-0.0073105
-0.035375
-0.047174
-0.03091
0.015332
0.028088
-0.015921
0.0016189
0.0131
0.015013
0.041483
0.017246
-0.0076295
-0.016878
0.0013
-0.0085862
-0.0095429
-0.010819
-0.043028
-0.034418
-0.020067
-0.0015702
0.020435
-0.0069916
-0.0012513
0.0073593
0.035104
0.041483
0.011824
-0.028359
-0.03665
0.016927
0.0076782
-0.0098618
-0.015921
-0.047493
-0.028359
-0.0047593
0.0028946
-0.0034836
0.022029
0.018202
0.0079971
0.043077
0.029683
0.0076782
-0.012732
-0.025807
0.015651
0.013419
-0.0031647
-0.031548
-0.043666
-0.027402
0.019797
0.03064
-0.011456
0.0092728
0.018202
0.019478
0.044991
0.02171
-0.0018891
-0.0095429
0.0019378
-0.0038025
-0.0044404
-0.0076295
-0.040477
-0.032504
-0.018153
0.0028946
0.026813
-0.0069916
-0.0015702
0.0095917
0.033829
0.04531
0.01597
-0.02517
-0.034737
0.01597
0.0054459
-0.0089051
-0.012732
-0.046218
-0.026126
-0.005716
0.0019378
-0.00029452
0.020116
0.017883
0.008316
0.044034
0.031915
0.008635
-0.015921
-0.02804
0.017564
0.013738
-0.0041214
-0.027721
-0.046218
-0.027083
0.016289
0.028726
-0.012732
0.011186
0.017883
0.016927
0.04531
0.021391
0.0003433
-0.0085862
-0.00029452
-0.0038025
-0.0044404
-0.0063538
-0.041434
-0.036012
-0.020067
0.0067215
0.025537
-0.0089051
-0.0028458
0.0099106
0.030002
0.044991
0.01597
-0.025488
-0.033461
0.015013
0.0016189
-0.0089051
-0.012413
-0.046218
-0.025807
-0.0082673
-0.0028458
0.0028946
0.019159
0.015651
0.0070404
0.042758
0.034148
0.0095917
-0.017197
-0.029634
0.017883
0.015651
-0.0050782
-0.024851
-0.046218
-0.028678
0.01597
0.025856
-0.013689
0.015013
0.019478
0.014375
0.045629
0.019478
0.0025757
-0.0060349
-0.0038025
-0.0018891
-0.0028458
-0.0069916
-0.041434
-0.037607
-0.022937
0.008316
0.026175
-0.011775
-0.0050782
0.008316
0.026813
0.042439
0.01597
-0.023894
-0.033142
0.013419
-0.0031647
-0.0105
-0.01337
-0.048131
-0.029634
-0.013051
-0.0066727
0.0028946
0.011505
0.010867
0.0051269
0.041164
0.032872
0.0099106
-0.023256
-0.034099
0.015332
0.014375
-0.0066727
-0.023894
-0.047812
-0.029953
0.011505
0.022986
-0.014008
0.017883
0.01884
0.013419
0.043715
0.022029
0.0025757
-0.0044404
-0.0082673
-0.00093234
-0.0018891
-0.0060349
-0.03952
-0.040477
-0.023575
0.011505
0.024899
-0.0095429
-0.0038025
0.010867
0.024262
0.043396
0.014375
-0.020386
-0.031229
0.011186
-0.0038025
-0.010819
-0.012094
-0.046536
-0.028996
-0.014327
-0.0089051
0.0060837
0.010548
0.008635
0.0041702
0.040207
0.035104
0.0089539
-0.027083
-0.03665
0.014375
0.013419
-0.0089051
-0.024213
-0.052277
-0.030272
0.0060837
0.019478
-0.014008
0.018202
0.016608
0.0099106
0.041483
0.020754
0.0028946
-0.0076295
-0.012094
0.0032135
-0.00061343
-0.0073105
-0.039202
-0.041753
-0.026126
0.015332
0.028088
-0.01337
-0.0034836
0.012781
0.024899
0.043715
0.018521
-0.015602
-0.025807
0.010867
-0.0047593
-0.010181
-0.011137
-0.045261
-0.028359
-0.014327
-0.0076295
0.011186
0.0041702
0.0060837
0.0057648
0.037656
0.037975
0.0095917
-0.02804
-0.035694
0.015332
0.011824
-0.0089051
-0.021661
-0.050044
-0.031867
0.0044891
0.013738
-0.012413
0.01884
0.017246
0.0076782
0.041164
0.021072
0.0013
-0.0089051
-0.017197
0.004808
0.00098112
-0.009224
-0.039202
-0.044942
-0.028678
0.012781
0.025537
-0.014645
-0.0034836
0.0099106
0.018521
0.040207
0.014694
-0.017197
-0.02804
0.0041702
-0.0105
-0.01337
-0.014327
-0.04845
-0.034418
-0.020067
-0.011137
0.008635
-0.0018891
0.0013
0.0016189
0.034786
0.032872
0.0051269
-0.03378
-0.041434
0.012143
0.0067215
-0.011456
-0.02517
-0.052277
-0.034099
-0.00093234
0.0079971
-0.012413
0.019159
0.014694
0.0064026
0.040526
0.020754
0.0032135
-0.010819
-0.022299
0.0057648
0.0032135
-0.0089051
-0.038883
-0.047174
-0.029634
0.014056
0.026494
-0.017516
-0.0025269
0.011824
0.016608
0.040526
0.01597
-0.013051
-0.022618
0.0025757
-0.0089051
-0.012413
-0.012094
-0.04558
-0.033461
-0.018472
-0.0069916
0.015651
-0.0050782
0.0016189
0.0044891
0.036061
0.03925
0.0095917
-0.032186
-0.038564
0.014694
0.0079971
-0.010181
-0.01911
-0.050363
-0.030591
-0.0038025
0.0073593
-0.0095429
0.020435
0.01597
0.0067215
0.040526
0.024899
0.0038513
-0.012413
-0.023256
0.0092728
0.0067215
-0.0076295
-0.034737
-0.049726
-0.030272
0.015013
0.024262
-0.016559
-0.00029452
0.012143
0.01597
0.03925
0.015013
-0.010819
-0.021024
0.0003433
-0.012094
-0.01337
-0.013689
-0.046855
-0.037288
-0.022937
-0.0066727
0.014056
-0.010181
-0.0047593
0.0016189
0.030002
0.037337
0.0079971
-0.035375
-0.043028
0.01023
0.0013
-0.015283
-0.02198
-0.053871
-0.035375
-0.010819
-0.0012513
-0.0095429
0.014375
0.012462
0.0013
0.036699
0.022029
0.0019378
-0.018791
-0.031229
0.0076782
0.0057648
-0.010819
-0.036012
-0.051639
-0.034099
0.013419
0.025856
-0.018791
0.0032135
0.011824
0.013738
0.040526
0.016289
-0.0063538
-0.015921
-0.0018891
-0.0098618
-0.0095429
-0.011137
-0.044304
-0.037288
-0.021024
-0.002208
0.020116
-0.010181
-0.0041214
0.0057648
0.032553
0.041483
0.011505
-0.027721
-0.037607
0.013419
0.0044891
-0.0085862
-0.016559
-0.047493
-0.02804
-0.0053971
0.0051269
0.0028946
0.022986
0.020754
0.0099106
0.047861
0.035104
0.012462
-0.011456
-0.02198
0.021391
0.017883
-0.0015702
-0.023894
-0.042391
-0.029634
0.01884
0.028726
-0.010819
0.014375
0.017883
0.016289
0.044991
0.020116
-0.00029452
-0.0089051
-0.00029452
-0.0028458
-0.0053971
-0.0066727
-0.039839
-0.034418
-0.020067
0.0060837
0.024899
-0.0066727
-0.002208
0.010548
0.032234
0.04531
0.01597
-0.023894
-0.031229
0.018521
0.0051269
-0.0076295
-0.0105
-0.04271
-0.023894
-0.0066727
0.0016189
0.0051269
0.021391
0.022986
0.013419
0.065082
0.069547
0.07433
0.038294
0.030959
0.077838
0.07433
0.063487
0.044034
0.023943
0.05105
0.10399
0.12344
0.059342
0.062212
0.05679
0.044034
0.06572
0.034467
0.0092728
-0.012732
-0.0047593
-0.019748
-0.032823
-0.04271
-0.077471
-0.073325
-0.060887
-0.033461
-0.01911
-0.052915
-0.047174
-0.035056
-0.01911
-0.0028458
-0.031548
-0.069498
-0.079703
-0.035375
-0.046218
-0.052915
-0.060569
-0.088314
-0.067266
-0.040796
-0.028996
0.0038513
0.0131
0.010548
0.004808
0.049137
0.04531
0.023305
-0.0028458
-0.015283
0.044991
0.06285
0.049455
0.014694
-0.026764
-0.01911
0.021072
0.028726
-0.0066727
0.019159
0.017564
0.012462
0.04531
0.015332
-0.015283
-0.018791
-0.026445
-0.023256
-0.028678
-0.037607
-0.069179
-0.068541
-0.049726
-0.014008
-0.0028458
-0.04845
-0.045899
-0.03665
-0.014964
0.0028946
-0.026764
-0.06886
-0.079065
-0.036969
-0.049726
-0.052915
-0.053234
-0.085443
-0.063439
-0.043985
-0.036331
-0.01911
-0.014964
-0.0085862
-0.010819
0.025856
0.024262
0.0003433
-0.032186
-0.040477
0.01023
0.010548
-0.009224
-0.027721
-0.050363
-0.02804
0.011186
0.023624
-0.0105
0.018521
0.017883
0.010867
0.053282
0.038612
0.01597
0.0032135
-0.0038025
0.011505
0.0092728
0.0013
-0.033142
-0.040158
-0.026445
0.010867
0.020435
-0.024851
-0.010819
0.0067215
0.023943
0.041164
0.014375
-0.025807
-0.035056
0.00066221
-0.013051
-0.019429
-0.025488
-0.061844
-0.042391
-0.0066727
0.036061
0.033829
0.015651
0.008635
0.0067215
0.064444
0.069547
0.045629
0.052645
0.050412
0.1193
0.093465
0.059023
0.055196
0.034148
0.037018
0.091552
0.091233
0.05679
0.059023
0.059661
0.024899
0.039569
0.01023
-0.011137
-0.035694
-0.053871
-0.045261
-0.071093
-0.065671
-0.1033
-0.11478
-0.092141
-0.048769
-0.040796
-0.080022
-0.067903
-0.055147
-0.043347
-0.017197
-0.040477
-0.065352
-0.072368
-0.044623
-0.054509
-0.057379
-0.052915
-0.082892
-0.064714
-0.052596
-0.03952
-0.020386
-0.031548
-0.021661
-0.013689
0.020754
0.022986
-0.0044404
-0.04271
-0.048131
0.0054459
0.0044891
-0.014008
-0.023256
-0.05132
-0.032186
0.00066221
0.016927
-0.0034836
0.027451
0.027132
0.03064
0.069866
0.085811
0.068909
0.034467
0.022348
0.04818
0.043396
0.031915
-0.0041214
-0.00029452
0.023305
0.059023
0.061574
-0.0053971
-0.0031647
0.0079971
0.0044891
0.020116
-0.0053971
-0.034418
-0.047812
-0.025488
-0.04271
-0.043985
-0.038564
-0.044304
-0.026126
-0.016559
0.0092728
0.028726
0.032553
0.034786
0.024899
0.061574
0.099524
0.082622
0.040526
0.025537
0.072098
0.070503
0.039888
0.040207
0.060936
0.040845
0.037656
0.044034
0.035742
0.061574
0.04531
0.048818
0.065082
0.063806
0.017564
-0.014645
-0.037288
0.00066221
-0.0060349
-0.0105
-0.033142
-0.055785
-0.047174
-0.0050782
0.0041702
-0.037288
-0.027721
-0.019429
-0.0060349
0.018521
0.0079971
-0.037607
-0.063439
-0.046218
-0.058336
-0.066309
-0.056104
-0.087038
-0.076514
-0.066628
-0.058336
-0.03378
-0.051958
-0.034418
-0.023575
0.0054459
0.015651
-0.0105
-0.047174
-0.052596
0.0032135
-0.0025269
-0.013689
-0.01911
-0.048131
-0.026764
-0.002208
0.0073593
0.0054459
0.034148
0.046904
0.044991
0.074649
0.060936
0.059979
0.031915
0.020116
0.06285
0.094741
0.094741
0.040845
0.011186
0.018521
0.069547
0.077838
0.03351
0.046904
0.093784
0.10048
0.096973
0.058385
0.051369
0.051369
0.066677
0.055196
0.050731
0.034786
-0.0085862
0.004808
0.015013
0.03638
0.038294
-0.018472
-0.030591
-0.055147
-0.03665
-0.019429
-0.055147
-0.11319
-0.12913
-0.089589
-0.10266
-0.11255
-0.10745
-0.13679
-0.12531
-0.10043
-0.094373
-0.084806
-0.052596
-0.056104
-0.064395
-0.038564
-0.052277
-0.080022
-0.07173
-0.014964
0.0073593
-0.0028458
0.01023
0.042439
0.075925
0.13014
0.17638
0.17542
0.13939
0.17511
0.17734
0.18691
0.19488
0.17128
0.16394
0.12536
0.09793
-0.0063538
-0.063439
-0.058336
-0.086081
-0.066947
-0.092778
-0.11383
-0.11733
-0.15911
-0.14189
-0.13009
-0.12658
-0.095968
-0.12977
-0.16294
-0.17506
-0.13551
-0.13838
-0.14508
-0.13774
-0.16772
-0.14093
-0.11574
-0.10553
-0.10075
-0.079065
-0.061525
-0.053234
0.0051269
0.010867
0.0067215
0.0051269
-0.018791
0.038612
0.052326
0.049137
0.017246
-0.0076295
-0.0015702
0.060936
0.074968
0.029364
0.050412
0.051688
0.058704
0.1126
0.10048
0.069547
0.056153
0.054877
0.089638
0.11579
0.064763
0.032234
0.054239
0.05105
0.066995
0.045947
0.0067215
-0.013689
-0.014008
0.0016189
0.011824
-0.090227
-0.18781
-0.21141
-0.16581
-0.16995
-0.1757
-0.17697
-0.2162
-0.20121
-0.17633
-0.16134
-0.1521
-0.14986
-0.1336
-0.12467
-0.06312
-0.054509
-0.071411
-0.096924
-0.080979
-0.019748
-0.016559
-0.027083
-0.032823
-0.031548
0.01884
0.060617
0.059342
0.0057648
0.048818
0.10558
0.10558
0.12472
0.093784
0.098568
0.11228
0.093465
0.11898
0.083898
0.049137
2.4388e-05
-0.0050782
0.022986
0.039569
0.11388
0.022667
0.0003433
-0.015921
-0.020067
-0.019429
-0.059612
-0.10235
-0.13264
-0.086081
-0.084487
-0.083211
-0.096605
-0.15688
-0.15178
-0.12595
-0.066309
-0.063758
-0.077152
-0.085443
-0.079703
-0.063439
-0.062163
-0.087357
-0.12658
-0.12499
-0.068222
-0.089908
-0.13487
-0.13711
-0.15911
-0.132
-0.055466
0.026175
0.01597
0.069228
0.065401
0.040526
0.05392
0.077201
0.083898
0.11834
0.15501
0.14736
0.1126
0.072098
0.05392
0.055834
0.053601
0.080071
0.068909
0.014375
0.023624
0.030959
-0.012094
0.037337
-0.0044404
-0.033142
-0.07779
-0.068541
-0.054509
-0.076514
-0.084487
-0.10298
-0.10394
-0.063758
-0.067903
-0.064714
-0.081617
-0.069817
-0.059931
-0.027083
-0.015921
-0.027083
-0.060569
-0.065033
-0.0085862
0.044034
0.03064
-0.012413
-0.06599
-0.050363
0.0025757
0.0057648
-0.012094
0.03351
0.038612
0.022029
0.064125
0.030002
0.012462
-0.037288
-0.041753
-0.02517
-0.037926
-0.02804
-0.055785
-0.040158
-0.01911
0.089
0.11515
0.067952
0.034148
0.067952
0.12025
0.13269
0.074012
0.077201
0.077201
0.10782
0.035104
-0.0066727
-0.01337
-0.057379
-0.052915
-0.054509
-0.073325
-0.061844
-0.10362
-0.11319
-0.08066
-0.023575
0.0051269
-0.046855
-0.0864
-0.06025
0.02171
0.012462
0.023624
0.029045
-0.0105
0.020754
0.10941
0.080071
0.019159
0.027132
0.024899
0.011505
0.038612
0.0089539
-0.014645
-0.036331
-0.064395
-0.045899
-0.043028
-0.036969
-0.066628
-0.057698
-0.018791
0.034786
0.08613
0.083898
0.18978
0.13046
0.10813
0.12217
0.10973
0.093784
0.088362
0.096016
0.066358
0.037337
0.031915
-0.058017
-0.093416
-0.035375
-0.051639
-0.071093
-0.067585
-0.080022
-0.037288
0.0016189
0.023305
0.040207
0.011186
-0.0089051
0.046266
0.047223
0.043715
0.040845
0.0003433
0.033829
0.056153
0.031915
-0.032823
-0.022618
-0.036969
-0.033461
0.0016189
-0.023575
-0.059612
-0.076514
-0.085443
-0.081935
-0.073963
-0.052277
-0.083211
-0.086719
-0.068222
-0.035694
0.0041702
-0.03378
-0.0028458
-0.014327
-0.0095429
-0.0105
-0.027083
-0.03952
-0.029634
-0.034737
-0.041115
-0.018153
-0.043985
-0.10171
-0.094054
-0.053871
-0.037926
-0.042391
-0.037607
-0.019429
-0.023575
-0.024851
0.022348
0.0041702
0.029683
0.016608
0.052326
0.058066
0.065401
0.034148
0.026813
0.06572
0.07433
0.092508
0.098249
0.10782
0.068909
0.034467
0.057428
0.059342
0.075287
0.035104
-0.032823
-0.030591
-0.031229
-0.053552
-0.032504
-0.041434
-0.076195
-0.033461
-0.02198
-0.030591
-0.0066727
-0.015283
-0.013051
0.017883
0.0092728
-0.00093234
-0.0028458
0.01884
0.15788
0.15374
0.044991
0.0076782
0.049455
0.064125
0.069547
0.088362
0.051369
0.046585
0.096016
0.067952
0.03351
-0.020386
-0.10107
-0.13041
-0.079703
-0.083211
-0.11319
-0.12563
-0.16549
-0.15497
-0.13934
-0.13519
-0.1285
-0.096286
-0.091822
-0.10203
-0.041753
-0.028678
-0.061525
-0.087676
-0.085125
-0.029315
-0.00029452
0.0060837
0.0076782
-0.0038025
0.067952
0.1126
0.081665
0.032234
0.042758
0.030002
0.01884
0.040845
0.017883
0.0022568
-0.00061343
-0.01624
-0.044304
-0.068541
-0.067903
-0.10075
-0.067585
-0.036969
-0.0034836
0.029364
0.14003
0.13173
0.10813
0.15501
0.13971
0.13843
0.12472
0.11706
0.10431
0.11164
0.13875
0.083898
0.004808
-0.0082673
-0.018791
-0.031229
-0.038883
-0.070774
-0.079703
-0.037607
-0.014008
-0.068541
-0.10394
-0.13392
-0.15178
-0.11478
-0.11159
-0.11415
-0.12339
-0.13519
-0.12148
-0.099157
-0.070136
-0.091184
-0.068222
-0.06312
-0.032186
0.066677
0.046266
0.038612
0.047223
0.057428
0.070503
0.065401
0.06572
0.029045
0.037337
0.024262
0.029683
0.045947
0.0079971
-0.011775
0.0022568
-0.00093234
-0.002208
-0.031229
-0.040477
-0.058017
-0.024213
0.028407
0.037337
0.032553
0.10431
0.1244
0.081028
0.077838
0.10144
0.095378
0.081984
0.085811
0.080071
0.065401
0.020116
-0.025488
-0.028678
-0.029315
-0.081298
-0.097881
-0.10841
-0.13041
-0.10394
-0.054828
-0.043028
-0.058655
0.008316
0.0070404
-0.021024
0.020435
0.01884
-0.0034836
-0.017835
-0.059293
-0.066947
-0.059931
-0.017197
-0.046218
-0.061844
-0.064077
-0.044623
-0.035056
-0.062482
-0.022618
-0.013689
-0.012094
0.004808
-0.026445
-0.056423
-0.072049
-0.043985
-0.051639
-0.039839
-0.031548
-0.059612
-0.02517
0.0013
-0.018791
-0.022299
-0.016559
0.0035324
0.02777
0.08326
0.090914
0.066358
0.055834
0.042439
0.090595
0.086768
0.075606
0.066995
0.056153
0.12312
0.14513
0.13333
0.088362
0.10909
0.083898
0.06572
0.083579
0.042439
0.038931
0.051369
0.00098112
-0.034737
-0.041115
-0.048769
-0.13009
-0.1387
-0.13264
-0.12084
-0.12435
-0.15465
-0.1454
-0.1218
-0.11064
-0.088314
-0.11032
-0.12499
-0.13424
-0.10458
-0.12403
-0.12276
-0.10553
-0.10107
-0.060887
-0.037288
-0.019429
0.029045
0.046904
0.046904
0.073055
0.068271
0.026175
0.01597
-0.031548
-0.020067
0.032553
0.02777
0.004808
-0.014008
-0.034737
-0.0069916
0.0035324
-0.017197
-0.052596
-0.00029452
0.022986
0.094422
0.18595
0.16012
0.10303
0.074649
0.063806
0.081984
0.055515
0.039569
0.03925
0.058066
-0.0025269
0.022986
0.070503
0.01597
-0.011456
-0.026126
-0.047174
-0.025807
-0.028678
-0.023894
-0.02517
0.044991
0.024899
0.066039
0.03638
-0.012094
-0.011456
0.0079971
0.0060837
-0.0085862
-0.017835
0.0016189
0.019478
-0.0034836
-0.017516
-0.046218
-0.10649
-0.13551
-0.083211
-0.088314
-0.11032
-0.11893
-0.13073
-0.10171
-0.06025
-0.048769
-0.064714
-0.02198
-0.025488
-0.043347
-0.014964
-0.02804
-0.058974
-0.074919
-0.053234
0.0067215
0.010548
-0.031229
-0.066947
-0.073325
-0.043028
0.0057648
0.011824
-0.0085862
0.0076782
0.013419
0.011824
0.029045
0.0003433
-0.013051
-0.0041214
0.010548
0.0025757
0.0073593
0.0064026
-0.0050782
-0.010819
0.0003433
0.042121
0.096335
0.048499
0.032234
0.038294
0.07752
0.07752
0.02171
-0.048769
-0.046855
-0.0044404
-0.013689
-0.027083
0.0013
-0.044942
-0.054509
-0.027721
-0.037288
-0.03665
-0.0018891
-0.035375
-0.049088
0.026813
0.0013
-0.05132
-0.07173
-0.060569
-0.073325
-0.091184
-0.082573
-0.11096
-0.12882
-0.13137
-0.074601
-0.063439
-0.099157
-0.073963
-0.064395
-0.064395
-0.030272
-0.046855
-0.066628
-0.072049
-0.051958
-0.080022
-0.083211
-0.048769
-0.066628
-0.065671
-0.05132
-0.015602
0.015013
-0.011456
-0.018791
-0.011137
0.049774
0.059023
0.02777
-0.021343
-0.029953
0.02171
0.020116
0.016289
0.050731
0.02458
0.0054459
0.023943
0.017564
0.031915
0.041164
0.056153
0.046585
0.10622
0.03638
0.015332
0.0028946
-0.0031647
0.041164
0.0057648
-0.0079484
-0.022937
-0.031229
-0.036012
-0.022937
-0.009224
-0.044942
0.0089539
0.00098112
0.01884
0.022348
-0.018791
-0.056104
-0.080979
-0.082892
-0.078109
-0.086081
-0.08066
-0.087676
-0.093097
-0.081298
-0.082254
-0.071093
-0.09246
-0.051958
-0.042391
-0.034099
-0.024851
-0.050363
-0.088952
-0.090227
-0.050363
-0.06025
-0.06599
-0.060569
-0.087357
-0.066628
-0.029953
-0.028359
-0.042391
-0.0098618
-0.014008
-0.017197
0.015332
0.0028946
-0.011775
-0.035375
-0.035375
-0.00093234
0.0079971
-0.013051
-0.026764
-0.054509
-0.028996
0.01023
0.022348
0.0028946
0.050731
0.079752
0.079114
0.11005
0.13205
0.14226
0.1531
0.14098
0.12472
0.099205
0.10782
0.034467
0.050093
0.1008
0.081665
0.097611
0.041164
-0.020067
0.010548
-0.0069916
0.0038513
-0.027083
-0.10043
-0.11861
-0.056742
-0.037288
-0.058974
-0.075557
-0.1167
-0.10171
-0.063758
-0.066947
-0.043347
-0.04271
-0.059612
-0.031229
0.018202
-0.015283
-0.065352
-0.10745
-0.090227
-0.042391
-0.035056
-0.036969
-0.042391
-0.058974
-0.063758
-0.038883
-0.032504
-0.046536
-0.0060349
-0.0028458
-0.014645
0.020754
0.0079971
-0.01624
-0.023256
-0.016559
-0.015921
-0.015921
-0.012094
-0.043985
-0.051639
-0.019748
0.0073593
0.0070404
0.0054459
0.023624
0.01597
0.03351
0.023943
0.0057648
0.0003433
0.0013
0.026494
0.0076782
0.0051269
0.017564
-0.0053971
0.023943
0.064444
0.028726
0.024899
0.05392
0.1429
0.13779
0.13046
0.10016
0.090914
0.045629
0.01884
0.014056
0.035104
0.052326
0.0095917
-0.040796
-0.022299
-0.00061343
-0.019748
-0.055785
-0.033142
-0.042072
-0.038883
0.008635
0.0099106
0.035423
0.028407
0.038931
0.043077
0.02777
0.019478
0.040207
0.047223
0.015013
0.059661
0.11962
0.034148
-0.0063538
-0.039202
-0.035694
0.032872
0.011824
-0.051001
-0.066628
-0.044623
-0.081298
-0.090227
-0.081935
-0.08927
-0.078109
-0.045899
-0.018153
-0.0015702
-0.026126
-0.029315
-0.042391
-0.016878
0.008635
-0.013689
-0.038883
-0.032823
0.024262
0.020116
-0.011775
-0.062482
-0.047174
0.019159
0.072736
0.071141
0.045629
0.082303
0.080071
0.060298
0.090276
0.084854
0.085492
0.059979
0.028407
0.034786
0.042758
0.06572
0.039888
0.020116
0.046585
0.082622
0.081346
0.050731
0.022029
0.05392
0.052963
0.084536
0.070503
0.026813
-0.009224
0.011505
0.0038513
-0.012094
-0.014645
-0.03665
0.0028946
0.023943
0.020754
0.03638
0.012462
0.010548
-0.017197
0.0095917
0.04818
0.022029
-0.036331
-0.058974
-0.026764
-0.002208
-0.061525
-0.07173
-0.10426
-0.064395
-0.019429
-0.020067
-0.033142
-0.00093234
-0.0028458
-0.019748
0.0079971
0.020435
-0.0018891
0.023305
0.0089539
0.017564
-0.0018891
-0.019748
-0.041434
-0.043985
-0.029953
0.037975
0.072736
0.044034
0.049137
0.044353
0.03925
0.065401
0.057109
0.049137
0.043715
0.057109
0.05105
0.049137
0.046266
0.01884
0.028407
0.050412
0.084854
0.075287
0.05105
0.063806
0.081028
0.1008
0.1177
0.12025
0.048499
0.031278
0.076563
0.072417
0.058385
0.0070404
-0.049726
-0.002208
0.040207
0.03925
-0.0018891
-0.014008
-0.018791
-0.035694
-0.0066727
-0.047174
-0.061525
-0.073006
-0.084487
-0.041115
-0.024532
-0.034737
-0.046536
-0.048131
-0.03952
-0.0038025
0.010548
0.00098112
0.032234
0.054877
0.088681
0.077201
0.046904
0.035423
0.033829
0.026175
0.008635
0.0025757
0.046585
0.023943
0.012781
-0.0079484
0.019797
0.04818
0.021072
0.022348
0.042439
0.073055
0.060298
0.046266
0.046904
0.043396
0.074012
0.069228
0.058385
0.040526
-0.0069916
0.025218
0.036061
0.040207
0.022986
0.08326
0.076882
0.029045
0.036699
0.016608
0.027451
0.035423
0.041802
0.049455
0.048818
0.04818
0.015332
-0.00093234
0.024262
0.082622
0.049137
-0.032823
0.01023
0.047542
0.035423
0.035423
-0.015283
-0.051639
-0.062163
-0.05132
-0.065671
-0.054509
-0.058974
-0.09246
-0.067266
-0.032504
0.0079971
0.047542
0.038931
0.024899
0.015332
0.037018
0.042121
0.010548
-0.0025269
0.023305
0.10048
0.09187
0.054877
0.058385
0.025537
0.056471
0.06572
0.070822
0.096335
0.18531
0.16426
0.093465
0.10973
0.094422
0.069866
0.044672
0.040207
0.073055
0.056153
-0.03952
-0.054828
-0.032823
-0.023256
-0.0050782
-0.023575
-0.059293
-0.040796
-0.032823
-0.031229
-0.0015702
-0.027721
-0.040477
-0.043985
-0.028996
-0.037926
-0.040477
-0.035056
-0.067903
-0.058655
-0.034099
-0.002208
0.022348
0.023305
0.081028
0.070503
0.081346
0.090276
0.072417
0.019797
0.00066221
0.025856
0.061255
0.060936
0.065401
0.0025757
-0.025488
-0.018153
-0.010819
-0.029634
-0.0053971
-0.017197
-0.032504
0.021391
0.019159
0.00098112
-0.030272
-0.029634
0.011824
0.0019378
-0.012094
-0.02804
-0.044623
-0.026445
0.008635
0.030959
0.0089539
0.038612
0.041164
0.047542
0.074968
0.043715
0.028088
0.033829
0.029364
0.049137
0.046585
0.046266
0.021391
0.022029
0.015651
0.050093
0.074012
0.034786
0.035423
0.040207
0.058704
0.057109
0.016927
-0.0073105
-0.0098618
0.047542
0.062531
0.10239
0.11005
0.059979
0.058704
0.072736
0.075287
0.073374
0.061255
0.02777
0.035742
0.09793
0.14321
0.081346
-0.014008
-0.024851
-0.014327
-0.012094
-0.051639
-0.060569
-0.076195
-0.054828
-0.010819
0.031596
0.011824
-0.00093234
-0.016559
-0.0063538
0.028407
0.0038513
-0.020386
-0.020067
-0.021343
-0.021024
-0.014327
-0.0089051
-0.039202
-0.034418
-0.01337
0.008316
0.021072
0.0064026
0.015651
0.022986
0.023943
0.049137
0.030002
0.0028946
0.0003433
0.035742
0.0099106
-0.00093234
0.0016189
-0.021343
0.01597
0.05105
0.050731
0.05679
0.052007
0.053601
0.053601
0.093784
0.12153
0.067314
0.026175
0.049774
0.12249
0.14736
0.14162
0.075925
0.014694
0.0054459
0.040845
0.049774
0.044991
0.06285
0.07146
0.055196
0.045629
0.01023
-0.0044404
-0.032186
-0.011137
0.012781
0.01884
0.01023
-0.051001
-0.03378
-0.020067
0.0131
0.039888
0.022348
0.026175
0.029045
0.028726
0.028726
-0.015283
-0.06599
-0.072049
-0.022618
-0.053552
-0.064077
-0.040158
-0.055147
-0.049407
-0.036331
-0.024213
-0.010819
0.0003433
0.0028946
0.010867
0.043715
0.044034
0.029364
-0.0105
-0.028359
0.020754
0.018202
0.0038513
-0.0095429
-0.036331
-0.0050782
0.0067215
0.0019378
-0.0060349
0.044353
0.024262
0.0054459
0.061255
0.057109
0.069547
0.066358
0.044353
0.056153
0.055834
0.047542
0.0038513
2.4388e-05
0.064444
0.14768
0.12344
0.071779
0.10526
0.080709
0.074012
0.088362
0.071141
0.06285
0.00066221
-0.013689
0.019797
0.05392
0.048818
-0.020067
-0.036969
-0.035694
-0.023256
0.042121
0.093465
0.12217
0.10973
0.11419
0.11228
0.091233
0.074968
0.059661
0.11388
0.082941
0.055196
0.050412
0.0032135
0.0079971
0.028088
-0.0047593
-0.078109
-0.060887
-0.062482
-0.083211
-0.079065
-0.1167
-0.13169
-0.14285
-0.12945
-0.092778
-0.071411
-0.074601
-0.10458
-0.12371
-0.11702
-0.060887
-0.027083
-0.032823
0.0019378
0.020435
0.030321
0.05679
0.044034
0.018202
0.013738
0.042121
0.030002
0.034148
0.038612
0.0016189
0.019159
0.045947
0.046904
0.064763
0.064763
0.063487
0.069866
0.097611
0.099843
0.066677
0.026175
0.024899
0.060298
0.075925
0.057109
0.057747
0.038612
0.039888
0.059661
0.058385
0.028726
0.084217
0.06285
0.013419
0.032234
0.04818
0.033829
0.021391
0.0032135
0.020754
-0.0044404
-0.046536
-0.04271
-0.046536
-0.039202
0.0131
0.010867
-0.014327
-0.00093234
-0.0018891
-0.0053971
0.030321
-0.0012513
-0.02198
-0.041753
-0.04558
-0.026764
0.008635
0.0016189
-0.038883
-0.029315
-0.0034836
0.010548
0.037337
0.019159
0.013738
0.027132
0.050412
0.05392
0.03925
0.0016189
-0.0098618
0.023305
0.014694
-0.0069916
-0.020705
-0.038883
-0.014327
0.01597
0.015651
0.01023
0.03925
0.037975
0.058066
0.089
0.061574
0.038931
0.022029
0.021072
0.050412
0.054877
0.049774
0.011505
-0.020386
0.0003433
0.057428
0.069866
0.031278
0.043077
0.03925
0.01023
0.023943
-0.0041214
-0.029315
-0.0085862
0.042439
0.03638
-0.00061343
0.0003433
-0.041115
-0.028359
-0.0095429
0.02777
0.041164
0.0057648
0.0051269
0.011824
0.0092728
-0.0041214
-0.010181
-0.03665
-0.036969
0.0054459
0.0013
-0.01911
-0.057698
-0.0864
-0.060569
-0.028359
-0.0060349
0.0095917
0.052326
0.046585
0.041483
0.07146
0.06572
0.038294
0.020116
0.021391
0.046266
0.033829
0.010548
0.019159
0.025218
0.037975
0.057109
0.046585
0.012462
0.05392
0.046585
0.015651
0.040845
0.026813
0.020754
0.01023
0.022348
0.022986
0.011824
-0.0018891
-0.040796
-0.021661
0.012462
0.040526
0.054239
0.036699
0.05105
0.073693
0.075606
0.075925
0.03638
0.014694
0.017246
0.055515
0.052963
0.052645
0.023624
-0.014327
-0.0095429
0.0013
-0.00061343
-0.00029452
0.0013
-0.0028458
-0.01624
0.0022568
-0.0018891
-0.01624
-0.032504
-0.062801
-0.03952
-0.040796
-0.041434
-0.04558
-0.077152
-0.057061
-0.002208
0.060617
0.03925
0.034786
-0.002208
-0.0034836
0.058066
0.058385
0.05105
0.055834
0.066358
0.054558
0.034467
0.05105
0.0131
0.012143
0.011824
0.066677
0.070822
0.028726
0.041483
0.048818
0.065082
0.069866
0.042758
2.4388e-05
-0.012413
0.015013
0.00098112
-0.0038025
-0.016559
-0.052277
-0.032823
-0.024851
-0.00093234
0.008316
0.016927
0.017883
-0.0034836
0.025218
0.047542
0.029364
-0.0069916
-0.012413
0.017246
0.033191
0.020754
-0.005716
-0.052915
-0.022937
0.02777
0.0131
-0.010819
0.050412
0.020754
0.008635
0.052326
0.037337
0.026813
0.014375
-0.0066727
0.035423
0.040845
0.016608
-0.0012513
-0.01337
0.035742
0.032234
0.014375
0.012462
0.020116
-0.010181
-0.03378
-0.0073105
-0.040477
-0.076195
-0.080022
-0.035375
-0.044942
-0.035694
-0.041434
-0.071411
-0.055785
-0.046855
-0.030272
0.0013
0.042439
0.052645
0.039569
0.074968
0.07146
0.057109
0.026175
0.020116
0.066677
0.057747
0.035423
0.023943
0.0095917
0.028726
0.055834
0.056153
0.030002
0.07433
0.069866
0.057747
0.093465
0.057109
0.022986
0.026175
0.028726
0.021391
0.02171
0.0092728
-0.034418
-0.037288
-0.015283
0.029683
0.044353
0.0035324
-0.022299
-0.039202
-0.040158
-0.017197
-0.043985
-0.065033
-0.069817
-0.016559
-0.046536
-0.062163
-0.065352
-0.097243
-0.086719
-0.06025
-0.040477
-0.0105
0.025537
0.037975
0.030959
0.080709
0.08326
0.059979
0.059342
0.037018
0.052963
0.080709
0.064763
0.040526
0.0054459
0.0003433
-0.0105
0.049137
0.04531
0.069547
0.022348
-0.0089051
0.017883
0.014056
0.021072
0.027132
0.0028946
0.013738
0.0022568
-0.022937
-0.047812
-0.052277
-0.028996
0.019478
0.04818
0.0051269
0.0092728
0.023305
0.017246
0.020435
0.0067215
-0.0066727
0.0089539
0.05392
0.040207
0.053282
0.057109
0.01884
0.037656
0.095378
0.10016
0.098568
0.047861
0.021072
0.029045
0.089319
0.057747
0.010867
-0.043985
-0.037607
0.016608
-0.009224
-0.041434
-0.040796
-0.094692
-0.084487
-0.034418
0.0022568
-0.021343
-0.0050782
-0.009224
-0.02198
-0.0025269
-0.026764
-0.033142
-0.036331
-0.040477
-0.0085862
0.004808
-0.020067
-0.067903
-0.065033
-0.03091
0.03351
0.048818
0.038931
0.052007
0.053282
0.037337
0.058704
0.03064
0.01884
0.017246
0.036699
0.022986
0.0051269
-0.012732
-0.038245
-0.017835
-0.015921
-0.0050782
0.033191
0.040526
0.07433
0.059342
0.088362
0.10686
0.07146
0.036699
0.038931
0.058066
0.048499
0.040845
0.033191
-0.020067
0.011186
0.010548
0.0025757
-0.02517
-0.01337
-0.012732
-0.012732
0.021391
-0.0069916
-0.040477
-0.069817
-0.075238
-0.054828
-0.038564
-0.04845
-0.075557
-0.070774
-0.040477
0.0076782
0.022029
-0.0038025
0.0032135
0.0038513
0.0067215
0.062212
0.060936
0.041483
0.044353
0.056471
0.023624
0.012143
0.03064
0.0054459
-0.0066727
-0.0028458
0.019478
0.038294
0.023624
0.024899
0.01023
0.037018
0.029045
0.0095917
-0.011456
-0.0044404
0.044991
0.038931
0.033191
0.023624
-0.015921
-0.002208
0.0013
-0.0060349
0.0060837
0.061893
0.063806
0.044034
0.058385
0.039569
-0.00061343
-0.0085862
-0.021024
0.020435
0.011505
0.0028946
-0.014327
-0.016559
0.026813
0.045629
0.038294
0.020435
0.045629
0.036061
0.027451
0.020116
-0.0038025
0.028088
0.057428
0.054877
-0.00029452
-0.0095429
-0.0060349
-0.031548
-0.020067
0.00098112
0.017246
0.01023
0.0076782
0.025537
0.0070404
0.023624
0.035423
0.008316
-0.033142
-0.035375
0.0028946
-0.010181
-0.0098618
-0.005716
-0.033142
-0.035056
-0.029634
-0.017197
-0.012413
0.010548
0.016289
-0.0038025
0.022986
0.0003433
0.0070404
-0.0105
-0.038245
-0.018472
-0.018153
-0.028996
-0.039202
-0.043028
-0.023575
0.01884
0.03351
0.0070404
0.040526
0.027451
-0.017197
0.037975
0.030002
0.0070404
0.0025757
0.011824
-0.0015702
-0.018153
-0.031229
-0.050363
-0.01624
-0.01911
-0.00061343
0.012143
-0.0047593
-0.0041214
-0.0066727
0.015651
0.032553
0.008635
-0.0079484
0.01023
0.06285
0.032872
0.026813
0.026175
-0.0073105
0.017883
0.046585
0.066358
0.065401
0.076244
0.083579
0.073374
0.10718
0.08039
0.030002
-0.012413
-0.020067
0.016927
-0.0082673
-0.043985
-0.064077
-0.084487
-0.064714
-0.013051
0.0044891
-0.036331
-0.033461
-0.053552
-0.043028
0.0070404
-0.024213
-0.021024
0.0054459
0.011186
0.034786
0.039569
0.032234
0.0095917
0.0003433
-0.0018891
0.011186
0.0022568
-0.014327
0.036699
0.042758
0.041802
0.042439
0.0073593
-0.050044
-0.054828
-0.02198
-0.035375
-0.03091
-0.023256
-0.05132
-0.02804
-0.005716
0.0035324
0.0067215
0.017883
0.014375
0.0067215
0.033191
0.030321
0.014694
-0.010819
-0.031548
0.0092728
0.017564
0.0089539
-0.0060349
-0.038564
-0.0095429
0.039569
0.037018
0.014694
0.053282
0.031278
0.031278
0.091552
0.081028
0.066995
0.061574
0.05105
0.053601
0.069866
0.03064
0.032234
0.022029
0.029364
0.065082
0.070503
0.065401
0.073693
0.055515
0.030321
0.041164
0.0054459
-0.072687
-0.047174
0.0073593
-0.028359
-0.054828
-0.050363
-0.096286
-0.087676
-0.069498
-0.068222
-0.055466
-0.046218
-0.047493
-0.048131
-0.0076295
-0.01337
-0.017835
-0.043028
-0.063758
-0.026764
-0.026445
-0.037926
-0.059612
-0.079384
-0.065033
-0.021024
0.0060837
0.0019378
0.0044891
0.0038513
-0.0073105
-0.00061343
-0.020386
0.008316
0.0060837
0.0060837
0.017883
0.012781
0.010548
-0.00093234
-0.0012513
0.0025757
0.03064
0.032553
-0.0028458
0.00066221
0.0028946
0.014694
0.048818
0.022029
-0.0034836
-0.019429
0.017246
-0.0060349
-0.00061343
0.029045
-0.0025269
0.019797
0.046585
0.055515
0.064763
0.070185
0.060936
0.048818
0.091552
0.083579
0.04818
0.00066221
-0.018791
0.0092728
0.01884
-0.014645
-0.012413
-0.028678
-0.027721
0.017246
0.040207
0.0095917
0.05105
0.030321
0.0025757
0.074012
0.06572
0.050093
0.023305
-0.00029452
-0.0095429
-0.03091
-0.028678
-0.01337
-0.034099
-0.041753
-0.010181
-0.0105
-0.047812
-0.038245
-0.035694
-0.033142
0.0099106
-0.017516
-0.04845
-0.056104
-0.023575
-0.041434
-0.023575
-0.033142
-0.055466
-0.031548
-0.0031647
-0.0034836
0.014375
0.012781
0.017246
0.0054459
0.034148
0.046585
0.015651
-0.02517
-0.022937
0.050412
0.038612
-0.0034836
-0.020386
-0.03665
-0.010181
0.03064
0.035104
0.028088
0.060617
0.053282
0.043396
0.056471
0.03925
0.035423
0.031915
0.0044891
0.024899
0.020435
0.008635
-0.024213
-0.032186
0.010867
0.036699
0.044353
0.0099106
0.020435
0.014375
0.013738
0.0079971
0.02171
0.013738
-0.021661
-0.014008
-0.034099
-0.034099
-0.042072
-0.078427
-0.055466
-0.04845
-0.051001
-0.036012
-0.027721
-0.031548
-0.04271
-0.011456
0.0032135
-0.023894
-0.056423
-0.045899
-0.0095429
0.0016189
-0.0082673
-0.0041214
-0.032186
-0.0041214
0.031596
0.039569
0.038294
0.059661
0.038931
0.031915
0.071141
0.071779
0.052963
0.028407
0.0057648
0.0064026
0.0064026
0.013419
-0.019429
-0.043347
-0.015602
0.030959
0.058385
0.02458
0.033191
0.037337
0.047861
0.07146
0.048499
0.02777
0.012462
0.040845
0.04531
0.038294
0.020435
-0.0098618
-0.022937
-0.017516
-0.031548
-0.025807
-0.041434
-0.04845
-0.053234
-0.015921
0.019159
-0.020705
-0.087995
-0.10266
-0.05419
-0.071093
-0.076514
-0.068541
-0.074282
-0.034418
0.0054459
0.018202
0.014056
0.057109
0.03638
0.020116
0.046585
0.032872
0.048499
0.044034
0.023943
0.050093
0.066358
0.040845
0.0099106
-0.016559
0.0054459
0.040845
0.050731
0.0025757
0.028407
0.038612
0.050412
0.077201
0.041164
0.011186
0.011186
0.015651
-0.0105
-0.022618
-0.025488
-0.034099
-0.04845
-0.054509
-0.020067
0.0035324
-0.037288
-0.054828
-0.036969
-0.018791
-0.0066727
-0.016878
-0.041434
-0.03665
0.011505
0.0067215
-0.0015702
-0.0073105
-0.039202
-0.015921
-0.0053971
0.016289
0.069866
0.075925
0.055834
0.050093
0.060617
0.040526
-0.0063538
-0.021024
0.013738
0.035104
0.016289
0.039888
0.041802
-0.023894
-0.022299
0.029683
0.040526
0.014694
0.041164
0.052007
0.030959
0.063806
0.052007
0.035423
0.012143
0.015013
0.047223
0.030321
0.0041702
-0.039839
-0.037288
-0.024851
0.017246
0.018521
-0.0069916
-0.002208
-0.012732
-0.012732
0.01023
-0.0082673
-0.049088
-0.047812
-0.022618
-0.043028
-0.03665
-0.031548
-0.070774
-0.05419
-0.038245
-0.043028
-0.036012
-0.02517
-0.03952
-0.041115
-0.0069916
-0.012094
-0.017197
-0.045899
-0.06599
-0.032823
-0.016559
-0.015602
-0.025488
-0.04845
-0.028996
0.014694
0.046266
0.016289
0.046266
0.04531
0.035423
0.047861
0.015013
0.0067215
-0.0066727
-0.00061343
0.0067215
0.0044891
0.0051269
-0.039202
-0.036012
-0.00093234
0.041164
0.056471
0.030321
0.03925
0.045629
0.037975
0.05679
0.056153
0.021391
0.037018
0.061255
0.028407
0.040526
0.02458
-0.017835
-0.022937
-0.01624
-0.0012513
0.038294
0.052326
0.043396
0.012781
0.023624
0.067314
0.045629
-0.0069916
-0.015921
0.01597
0.01023
-0.0047593
-0.028996
-0.054509
-0.027083
0.032553
0.049455
0.01023
0.029683
0.004808
0.00098112
0.037337
0.014694
0.022348
0.022348
-0.002208
0.0076782
0.0095917
0.0073593
-0.034737
-0.038245
-0.021024
-0.015921
-0.013051
-0.052915
-0.056423
-0.038245
-0.025807
-0.012732
-0.044942
-0.078427
-0.090227
-0.064714
-0.071411
-0.075876
-0.066947
-0.075238
-0.043028
-0.026764
-0.029315
-0.027083
-0.011775
0.008635
0.01023
0.050412
0.059979
0.030321
-0.018153
-0.016559
0.024899
0.015013
0.021391
0.0095917
-0.013051
-0.0069916
0.029045
0.046266
0.043077
0.12536
0.1008
0.072736
0.10877
0.079433
0.04818
0.027132
0.012462
0.045947
0.064125
0.029045
2.4388e-05
-0.017835
-0.030272
-0.002208
-0.0018891
-0.034418
-0.032504
-0.016878
-0.0060349
0.022667
0.021391
-0.01337
-0.01337
0.01597
0.023943
0.028726
0.021072
-0.012094
-0.0063538
0.011824
0.01597
0.030959
0.03064
0.011824
0.018202
0.046904
0.029364
-0.0031647
-0.046855
-0.064714
-0.039839
-0.048131
-0.067266
-0.064714
-0.086081
-0.088314
-0.053871
-0.049407
-0.073963
-0.043028
-0.053234
-0.056742
-0.020067
-0.031867
-0.03665
-0.015283
-0.030272
-0.026126
-0.029634
-0.03091
-0.056423
-0.065671
-0.041434
0.0016189
0.013419
-0.0076295
0.012781
0.031278
0.065082
0.046904
0.019159
0.0041702
2.4388e-05
0.02777
0.023943
0.01597
0.030321
0.035423
0.045947
0.044991
0.0131
0.0067215
0.020116
0.028088
0.029045
0.052326
0.043396
0.016608
-0.0069916
-0.012413
0.014375
0.019159
0.032872
0.018202
-0.0076295
0.01597
0.037018
0.046585
0.01597
0.029364
0.017564
-0.009224
0.0070404
0.0073593
-0.0015702
-0.027721
-0.039202
-0.051001
-0.067903
-0.059293
-0.055466
-0.060569
-0.019429
0.037337
0.034148
-0.0098618
0.0041702
0.028407
0.022348
0.06285
0.041164
0.011186
0.040207
0.039888
-0.0066727
-0.0044404
0.014056
-0.038245
-0.035375
-0.034418
0.0060837
0.020116
-0.0066727
-0.017516
0.031278
0.042758
0.028407
0.023943
-0.0089051
-0.021661
-0.00093234
-0.025807
-0.035694
-0.043347
-0.076833
-0.044304
-0.020386
-0.019748
-0.018472
0.0057648
-0.018791
-0.046855
-0.028996
-0.024213
-0.038564
-0.052596
-0.055466
-0.02517
-0.015602
-0.015921
-0.032823
-0.042072
-0.02804
0.01597
0.027132
-0.00093234
0.0054459
0.015651
0.024262
0.048818
0.017564
0.012462
0.025856
0.041483
0.004808
-0.012413
0.0013
-0.012094
-0.015602
0.0057648
0.040526
0.036699
0.028407
0.054558
0.046904
0.065082
0.084854
0.06285
0.031278
0.023943
0.097292
0.090595
0.039888
0.0089539
-0.023894
-0.0050782
0.0054459
-0.01911
-0.029953
0.043396
0.017883
-0.042072
-0.043985
-0.051639
-0.067903
-0.089589
-0.088952
-0.061525
-0.055147
-0.057698
-0.077152
-0.077471
-0.049726
-0.0085862
0.00066221
-0.024213
0.011824
0.028726
0.031278
0.058066
0.043715
0.025537
0.0003433
0.014375
0.018202
0.0054459
0.0131
-0.0105
-0.0073105
0.010548
0.022029
0.031278
0.0064026
-0.002208
0.020754
0.052007
0.060617
0.033829
0.016289
-0.013689
0.032872
0.014375
-0.012732
-0.022299
-0.0044404
0.029683
-0.011775
-0.025807
-0.0025269
0.01597
-0.017516
-0.02198
0.052645
0.030321
-0.011775
-0.051958
-0.058017
-0.020386
-0.020386
-0.039202
-0.021343
-0.029953
-0.059612
-0.028359
-0.014327
-0.065671
-0.024851
-0.02804
-0.036969
0.0003433
-0.009224
-0.028678
-0.013689
-0.016559
-0.03091
-0.0082673
2.4388e-05
-0.035694
-0.040796
-0.024851
0.0003433
0.020435
-0.002208
-0.0069916
-0.0105
-0.00093234
0.019159
0.0025757
-0.051639
-0.043985
-0.00029452
-0.023575
-0.021024
-0.01624
-0.030591
-0.0047593
0.013738
0.014694
0.030959
0.053601
0.044353
0.035104
0.067952
0.063487
0.047542
0.011824
0.0032135
0.030002
0.022667
-0.009224
-0.020386
-0.043347
-0.038883
0.00066221
0.018521
0.0131
0.01597
-0.012413
0.014056
0.048499
0.023943
0.049137
0.031278
0.032234
0.039888
0.064125
0.080709
0.037656
-0.00029452
0.03638
0.090276
0.10048
0.035104
0.019478
0.01884
0.03064
0.031596
-0.0012513
-0.034418
-0.067266
-0.080341
-0.078746
-0.05132
-0.06312
-0.11
-0.093416
-0.074601
-0.057061
-0.043347
-0.043028
-0.040796
-0.043985
-0.014008
-0.017197
-0.027721
-0.061206
-0.063758
-0.015602
-0.022618
-0.038245
-0.048131
-0.055466
-0.032186
0.0041702
0.015651
-0.009224
0.034467
0.029364
0.030002
0.074012
0.059342
0.030002
0.031915
0.022986
0.026813
0.014056
0.01023
-0.019429
-0.018153
0.021391
0.04531
0.037975
-0.010181
-0.005716
0.0067215
0.046585
0.063806
0.036061
-0.00029452
-0.011137
0.02171
0.0038513
0.010548
0.015651
0.0079971
0.0089539
0.0064026
0.011824
0.01884
0.016289
0.0099106
-0.010819
0.038612
0.06859
0.063169
0.0025757
-0.0012513
0.041483
0.029683
0.033191
0.034148
-0.0060349
-0.0041214
0.037018
0.022029
-0.023256
0.027132
0.020435
-0.021661
0.013419
-0.0028458
-0.034099
-0.059931
-0.096605
-0.10649
-0.094692
-0.091503
-0.10075
-0.087676
-0.067266
-0.023575
-0.029953
-0.073006
-0.058336
-0.041753
-0.023894
0.0070404
0.0041702
-0.01337
-0.037926
-0.0050782
0.0044891
0.033191
0.020435
-0.017197
-0.0073105
0.0016189
0.008635
0.052007
0.068909
0.055196
0.02171
0.049455
0.056471
0.02777
-0.018153
-0.030272
0.017246
0.0054459
-0.015283
-0.014327
-0.019429
0.0013
0.037656
0.044034
0.055196
0.072098
0.058066
0.056471
0.10144
0.075925
0.041164
-0.0053971
0.01023
0.044672
0.037656
-0.017835
-0.024213
-0.026126
-0.040796
-0.013051
-0.015283
-0.057698
-0.049407
-0.054509
-0.053234
-0.027083
-0.043347
-0.060887
-0.066309
-0.04558
-0.062801
-0.040477
-0.052277
-0.0864
-0.078427
-0.040477
-0.0060349
0.014694
-0.00029452
0.00098112
-0.00093234
0.029683
0.052326
0.028726
-0.020067
-0.033142
0.035423
0.01884
-0.00061343
-0.023894
-0.051001
-0.038245
-0.019748
-0.0063538
-0.0089051
0.043077
0.018202
-0.0082673
0.029683
-0.0012513
-0.028359
-0.028359
-0.023894
0.0038513
0.0095917
0.0013
-0.031229
-0.032823
0.004808
0.050731
0.087406
0.05105
0.048499
0.047861
0.046904
0.059979
0.039888
0.040845
0.035423
0.042758
0.031596
0.037337
0.040845
-0.0034836
0.014375
0.013738
0.020116
0.019478
0.012143
0.025856
0.01884
0.016608
0.0044891
-0.023256
-0.014645
-0.027083
-0.013689
-0.044942
-0.059612
-0.06599
-0.084487
-0.063439
-0.027402
-0.011137
-0.0034836
0.024262
0.011505
-0.0015702
0.032234
0.0131
-0.028359
-0.032186
-0.028678
-0.005716
-0.0085862
-0.0069916
-0.050044
-0.072049
-0.057698
0.008635
0.015013
-0.021343
-0.00093234
0.016289
0.024899
0.046585
-0.0038025
-0.021343
0.0089539
0.032234
-0.012094
-0.0031647
0.015013
-0.025488
-0.0041214
0.017246
0.023624
0.033829
0.031278
0.047223
0.048499
0.062212
0.0057648
0.023305
-0.0044404
-0.016559
0.018521
-0.0095429
-0.01911
-0.01624
-0.050682
-0.021343
-0.0012513
-0.0066727
-0.005716
0.037337
0.048818
0.031278
0.049774
0.032872
0.0070404
-0.02198
-0.0047593
0.015013
-0.0050782
-0.010181
-0.050044
-0.062163
-0.051958
-0.030272
-0.03091
-0.057061
-0.021343
-0.01911
-0.0089051
0.019159
-0.0085862
-0.024213
-0.020386
-0.014645
-0.011137
-0.0015702
0.0019378
-0.021024
-0.023894
-0.015283
0.0070404
0.0054459
-0.017516
0.0044891
0.011824
0.038294
0.040207
0.0028946
-0.04271
-0.058655
-0.027721
-0.052915
-0.070136
-0.04845
-0.059293
-0.053552
-0.030272
-0.0047593
2.4388e-05
0.025218
0.036061
0.034148
0.05105
0.052007
0.051369
0.041164
0.045629
0.061893
0.03925
0.014694
0.023943
-0.012094
-0.0041214
0.029045
0.022986
-0.002208
0.012143
0.0057648
-0.0012513
0.029364
0.014694
0.0067215
-0.002208
0.0064026
0.0089539
0.0013
-0.00061343
-0.023894
-0.021024
-0.0085862
0.0067215
0.06572
0.034148
0.020435
0.022667
0.039569
0.04531
-0.0105
-0.050044
-0.00093234
0.044353
0.012781
0.0076782
-0.0025269
-0.044942
-0.0047593
0.0044891
0.00066221
-0.01337
-0.0063538
0.011824
-0.0098618
-0.0018891
-0.009224
-0.035375
-0.084806
-0.094373
-0.073963
-0.072687
-0.068222
-0.080341
-0.10681
-0.083211
-0.031548
-0.023575
-0.029315
0.01597
0.010867
-0.0034836
0.016289
0.032234
0.048499
0.022986
0.0067215
0.0079971
0.014694
0.011824
-0.016559
-0.021343
-0.009224
0.028407
0.035104
0.0025757
0.015651
0.029364
0.033191
0.028088
-0.0034836
-0.0089051
-0.010181
0.022348
0.019478
0.0064026
-0.0050782
-0.037607
-0.02198
-0.03378
-0.015283
0.018202
0.037018
0.033829
0.015013
0.042121
0.030002
0.011505
-0.0073105
-0.032823
0.058066
0.058385
0.029683
-0.0034836
-0.023575
0.00066221
0.041483
0.034467
-0.0038025
0.036699
0.055196
0.037975
0.051369
0.023943
-0.005716
-0.023575
-0.027721
-0.022937
-0.036969
-0.045261
-0.064714
-0.066628
-0.055147
-0.029953
-0.028996
-0.011137
0.01023
0.00066221
-0.012094
0.0013
-0.031548
-0.060887
-0.060887
-0.026445
-0.058974
-0.022618
-0.021661
-0.055466
-0.041753
-0.01911
-0.022299
-0.028996
-0.027402
-0.020067
-0.014964
0.023624
0.023943
0.023624
-0.02198
-0.037288
0.0073593
0.012143
-0.012094
-0.026445
-0.048769
-0.014645
0.015651
0.012143
-0.01337
0.012781
0.0035324
0.0038513
0.041164
0.047223
0.02458
-0.0079484
-0.032823
-0.0034836
0.0003433
0.008635
-0.0095429
-0.0041214
0.024899
0.055515
0.073055
0.033829
0.046904
0.053601
0.046904
0.055515
0.010867
-0.015921
-0.0073105
0.0089539
-0.0060349
-0.019429
-0.016878
-0.021024
-0.016559
-0.020067
-0.011456
0.028088
0.038294
0.052645
0.049774
0.062531
0.083898
0.069228
0.0089539
0.0089539
0.027132
-0.0034836
0.0044891
-0.0095429
-0.067585
-0.061844
-0.032504
-0.042391
-0.042072
-0.017197
-0.035375
-0.034737
-0.018791
-0.029953
-0.042072
-0.053871
-0.063439
-0.037288
-0.01624
-0.022299
-0.061525
-0.068222
-0.04845
-0.02198
-0.024851
-0.042072
-0.0034836
0.012143
0.022986
0.035742
0.012143
-0.029315
-0.018153
0.011505
-0.005716
-0.0034836
0.004808
-0.017197
-0.0066727
-0.0025269
-0.0034836
0.0099106
-0.01624
0.0003433
-0.0018891
0.04531
0.060617
0.021072
-0.017516
-0.021024
0.040526
0.019797
-0.0073105
-0.0015702
-0.0050782
0.010548
0.023943
0.023943
0.016289
0.058066
0.038931
-0.0041214
0.022029
0.0054459
-0.029634
-0.052596
-0.064714
-0.046855
-0.029315
-0.030591
-0.058655
-0.049407
-0.021024
0.038294
0.026813
0.008316
0.028088
0.046904
0.037656
0.040526
0.035742
0.026494
0.0089539
-0.0034836
-0.020705
-0.018791
-0.00061343
-0.015921
-0.033461
-0.044942
-0.042072
-0.014008
-0.013051
0.0041702
-0.012094
0.016608
0.046266
0.025856
-0.015602
-0.036969
-0.012413
-0.029315
-0.051639
-0.052277
-0.06599
-0.046855
-0.034099
-0.034099
-0.040477
-0.0095429
-0.021343
-0.026126
0.01597
0.015013
-0.0025269
-0.028359
-0.029634
-0.0012513
-0.0076295
-0.018791
-0.032504
-0.041753
-0.012413
0.03638
0.039569
0.0051269
0.029364
0.01884
0.03064
0.064444
0.047861
0.035423
0.034467
0.080709
0.076882
0.082622
0.080071
0.044353
0.037975
0.026494
0.032872
0.059023
0.048499
0.051369
0.057109
0.038612
0.025218
0.035423
-0.024851
-0.066628
-0.038883
-0.02804
-0.041115
-0.030591
-0.053234
-0.043347
-0.033461
-0.039202
-0.05132
-0.028359
-0.0041214
-0.0082673
0.011186
0.023305
0.01884
-0.015283
-0.066309
-0.042391
-0.037607
-0.023575
-0.014008
-0.055785
-0.042072
0.01884
0.031915
-0.021343
-0.014008
-0.01911
-0.028359
-0.0025269
-0.017516
-0.044942
-0.04558
-0.029634
-0.02804
-0.009224
-0.0098618
-0.048769
-0.03665
-0.029315
-0.010181
0.016608
-0.012732
0.0054459
0.026813
0.049455
0.044034
-0.0073105
-0.042072
-0.038245
-0.0012513
-0.027083
-0.032186
-0.034737
-0.052277
-0.03091
-0.0105
-0.010181
-0.01337
0.015332
0.016927
0.016608
0.053601
0.033829
0.013419
-0.012094
-0.022937
0.004808
-0.00093234
-0.013689
-0.012732
-0.038883
-0.03091
0.038931
0.053282
0.023943
0.061255
0.050731
0.064125
0.086449
0.047861
0.056153
0.059661
0.074968
0.044353
0.05392
0.04531
0.047861
0.008316
-0.014008
0.029364
0.041164
-0.019429
-0.040158
0.071141
0.15119
0.10973
0.059342
0.027451
0.00098112
0.059661
0.053601
0.069866
0.067952
0.047542
0.044991
0.023305
0.028407
0.0079971
0.028726
0.008316
-0.040796
-0.020386
-0.041753
-0.072049
-0.10681
-0.12084
-0.086081
-0.085443
-0.1033
-0.12945
-0.15273
-0.12818
-0.086081
-0.072049
-0.097881
-0.055147
-0.06599
-0.073006
-0.064395
-0.083849
-0.084806
-0.078746
-0.057698
-0.052915
-0.043347
-0.039202
-0.074601
-0.077471
-0.050363
-0.012094
-0.0028458
-0.032823
-0.033461
-0.015921
0.0095917
0.05392
0.016608
-0.014964
-0.029634
-0.0053971
-0.020067
-0.024213
-0.02517
-0.024851
0.014375
0.015651
0.016927
0.028726
0.041483
0.05105
0.042439
0.081984
0.071141
0.05105
0.029364
0.026175
0.058704
0.047223
0.026494
-0.0012513
-0.014645
0.014375
0.045629
0.053601
0.046266
0.062212
0.017564
0.0079971
0.015651
-0.009224
-0.02517
-0.028996
-0.019429
0.00098112
-0.0038025
-0.0060349
-0.058017
-0.082573
-0.053871
-0.0044404
-0.012094
-0.045261
-0.035694
-0.018791
0.00098112
0.019797
-0.002208
-0.037926
-0.045899
-0.011137
-0.015921
-0.010819
-0.011456
-0.015602
-0.00029452
0.017564
0.029045
0.054558
0.064125
0.082941
0.056471
0.069866
0.069228
0.051369
0.030002
-0.0085862
0.008635
0.0073593
0.0067215
-0.0018891
-0.032186
-0.026126
-0.0041214
-0.0031647
-0.019748
0.014375
-0.011456
-0.02804
0.0073593
-0.0044404
-0.018153
-0.048131
-0.051639
-0.032186
-0.04271
-0.055785
-0.080022
-0.075238
-0.072049
-0.028678
0.01884
0.012143
0.0079971
-0.0012513
0.0079971
0.026494
-0.005716
-0.031229
-0.018791
0.010867
0.00066221
-0.0034836
-0.005716
-0.031548
-0.0089051
-0.027721
-0.028678
0.015332
0.01597
0.0051269
-0.0028458
0.027451
0.040845
0.022986
-0.017197
-0.028678
0.0025757
0.0016189
-0.0095429
-0.0047593
-0.034737
-0.020705
0.02171
0.037337
0.04531
0.062531
0.040526
0.0073593
0.059342
0.046266
0.047223
0.0057648
-0.015283
-0.0082673
-0.023575
-0.040158
-0.06312
-0.073963
-0.052277
0.0041702
0.004808
-0.023894
-0.012732
-0.012413
-0.019429
0.020435
-0.00093234
-0.0069916
-0.015283
0.02171
0.041164
0.030959
0.0003433
-0.021024
-0.033461
-0.024851
-0.012413
0.00098112
0.019159
0.018202
0.0079971
0.025218
0.0095917
-0.010819
-0.055785
-0.083849
-0.049088
-0.035694
-0.057698
-0.065352
-0.085443
-0.082573
-0.052596
-0.038883
-0.048769
0.017246
-0.00093234
-0.02517
0.014694
-0.0015702
-0.01624
-0.016878
-0.018791
-0.01624
0.008635
0.02777
-0.0053971
-0.03091
-0.02198
0.020116
0.023943
0.013419
0.027451
0.043077
0.033829
0.044353
0.028407
0.011824
0.0028946
0.014375
0.0025757
0.022986
0.039569
-0.009224
-0.033142
-0.0053971
0.016608
0.032234
0.037337
0.044353
0.051688
0.090276
0.12057
0.076563
0.026494
0.025856
0.084536
0.071141
0.026813
0.029045
-0.014008
-0.013689
0.004808
-0.011775
-0.054509
-0.04558
-0.060887
-0.059612
-0.028996
-0.033461
-0.06312
-0.10585
-0.12499
-0.088633
-0.065352
-0.057061
-0.058974
-0.064077
-0.019748
0.023943
0.025537
-0.0089051
0.010548
0.0076782
0.021391
0.071141
0.046585
0.0070404
0.01023
0.0019378
-0.035694
-0.06025
-0.048769
-0.055147
-0.046536
-0.043028
-0.019748
-0.00093234
-0.02198
-0.027721
-0.024213
-0.0066727
0.04818
0.060617
0.016608
0.014694
0.06285
0.040207
0.037018
0.024899
-0.026126
0.0073593
0.039888
0.022986
0.020116
0.043077
0.037656
0.0019378
0.0076782
0.010548
-0.0095429
-0.029634
-0.030591
0.016289
0.026175
0.0054459
-0.038883
-0.026126
-0.002208
0.038294
0.012462
-0.026126
0.012781
0.018521
0.019797
0.023305
-0.009224
-0.01624
-0.021343
-0.017835
-0.045261
-0.032186
-0.015283
-0.048769
-0.042072
-0.039839
-0.023575
-0.012732
-0.037926
-0.037607
-0.038245
-0.014964
-0.0069916
-0.028996
-0.069817
-0.061525
0.0041702
-0.022618
-0.037607
-0.038564
-0.06599
-0.017516
0.019159
0.014375
0.016608
0.03064
0.013419
0.0099106
0.03925
0.037018
0.020435
2.4388e-05
-0.015283
0.0044891
-0.00061343
0.0025757
0.034148
0.062531
0.10909
0.13588
0.13205
0.081984
0.10495
0.10016
0.11164
0.18053
0.12599
0.044034
0.0089539
0.042121
0.025856
-0.00093234
-0.016878
-0.082254
-0.097243
-0.098838
-0.071093
-0.059612
-0.092141
-0.084168
-0.075557
-0.067585
-0.052915
-0.082892
-0.10585
-0.11606
-0.061206
-0.064714
-0.042391
-0.048769
-0.082573
-0.056423
-0.07173
-0.072049
-0.050363
-0.028996
-0.023256
-0.016878
0.032234
0.013738
-0.02517
-0.051958
-0.032504
-0.002208
-0.0034836
-0.01337
-0.025488
-0.045899
-0.036331
0.004808
0.0073593
0.01597
0.060936
0.040207
0.015013
0.047861
0.030002
-0.0098618
-0.033142
-0.024532
2.4388e-05
0.0131
0.0070404
-0.027721
-0.021024
0.0044891
0.042758
0.063806
0.035104
0.023943
0.028088
0.039888
0.066995
0.043077
0.021391
0.0099106
0.025218
0.034786
0.04818
0.037337
-0.017197
-0.0031647
0.0038513
0.044353
0.086768
0.12408
0.081665
0.032553
0.057428
0.050093
0.0089539
-0.034418
-0.040796
-0.019748
-0.0060349
-0.033461
-0.098838
-0.1218
-0.075876
-0.066309
-0.067585
-0.093735
-0.065033
-0.056742
-0.031229
0.0016189
-0.018153
-0.019429
-0.021343
-0.030591
-0.022299
-0.020386
-0.012094
-0.017516
-0.021024
-0.020705
0.0076782
0.014056
-0.022618
-0.0105
0.019797
0.042121
0.05392
0.032234
0.01884
0.0025757
0.026494
-0.02198
-0.0038025
0.014694
0.0022568
0.030321
0.019797
0.0041702
0.012462
0.023943
0.031915
0.023624
0.037656
0.037975
0.0013
-0.046855
-0.049088
-0.0105
-0.0044404
-0.027402
-0.042391
-0.064714
-0.04845
-0.0098618
-0.005716
-0.013689
0.025218
0.012143
0.00098112
0.044672
0.015651
0.0038513
-0.01337
-0.013051
-0.011456
-0.02198
-0.015921
-0.021661
-0.044942
-0.043028
-0.0038025
0.0089539
-0.024213
0.00098112
0.0060837
0.026494
0.038612
0.037018
0.016289
0.02171
0.064763
0.042121
0.018202
0.015651
-0.019429
-0.019748
-0.0034836
-0.00061343
0.00098112
-0.011775
-0.027721
-0.032504
0.0051269
0.0035324
-0.039202
-0.08927
-0.099476
-0.067903
-0.075238
-0.068541
-0.073006
-0.078109
-0.042391
-0.0095429
-0.0047593
-0.015921
0.028088
0.0073593
-0.0038025
0.040845
0.045629
0.038931
0.024262
0.03064
0.054239
0.042439
0.020754
-0.0069916
-0.016878
-0.0034836
0.037337
0.034786
0.00098112
0.021072
0.024899
0.026813
0.040207
0.036699
0.0038513
-0.0066727
0.010548
-0.0012513
-0.0031647
-0.00029452
-0.022618
-0.0044404
0.0016189
0.010867
0.041802
0.03064
0.0099106
0.022986
0.049774
0.05105
0.044672
2.4388e-05
0.0025757
0.025218
-0.030591
-0.039839
-0.024851
-0.041434
-0.054509
-0.026445
-0.033142
-0.04845
-0.002208
-0.026764
-0.063439
-0.041434
-0.041434
-0.06025
-0.063439
-0.061844
-0.029315
-0.033142
-0.047812
-0.065352
-0.061206
-0.044623
-0.0053971
0.0131
-0.017516
2.4388e-05
-0.0066727
-0.0031647
0.035104
0.01884
0.0038513
-0.00093234
0.0073593
-0.020386
-0.009224
-0.0060349
-0.03665
-0.020705
-0.005716
0.0131
0.023305
0.015332
0.020754
0.066995
0.078157
0.074012
0.047223
0.0070404
-0.0073105
0.039888
0.039569
0.03064
0.026494
-0.014645
-0.0063538
0.010867
0.0064026
-0.023894
0.01023
-0.0031647
-0.0079484
0.033829
0.01597
-0.041434
-0.056104
-0.032504
-0.0079484
-0.020705
-0.025488
-0.042391
-0.050363
-0.026126
0.011824
0.034786
0.0003433
0.031596
0.016289
-0.0069916
0.027132
0.012143
0.022667
0.014694
0.031915
0.022667
0.008316
0.0073593
-0.049726
-0.019429
0.029045
0.026813
0.008635
-0.00093234
0.013738
-0.0044404
0.0054459
0.00098112
-0.022618
-0.066309
-0.066309
-0.031229
-0.048131
-0.055785
-0.064077
-0.097881
-0.082892
-0.056104
-0.049088
-0.031548
0.00098112
0.0131
0.01023
0.019478
0.017564
0.013738
-0.0098618
-0.024851
-0.0028458
0.0089539
0.027132
-0.0076295
-0.03091
0.020754
0.033191
-0.0015702
-0.009224
0.030959
0.044672
0.05679
0.068909
0.026813
0.0019378
-0.00061343
0.016608
-0.005716
0.0067215
0.0076782
-0.034418
-0.035056
-0.022618
0.042758
0.066995
0.042439
0.038612
0.026494
0.038294
0.042439
0.015013
0.0028946
-0.015921
0.0067215
0.03638
0.013419
-0.014645
-0.055785
-0.03378
-0.042072
-0.050682
-0.056104
-0.049088
-0.056104
-0.056104
-0.023894
-0.034418
-0.036331
-0.060569
-0.067266
-0.050363
-0.048131
-0.052915
-0.049088
-0.046218
-0.026126
0.036699
0.032234
-0.014008
0.0044891
-0.016878
0.01884
0.058066
0.016289
-0.012094
-0.015921
0.0019378
-0.0012513
-0.020386
-0.019748
-0.031229
-0.00029452
0.0089539
0.025537
0.03925
0.017246
0.0038513
0.0070404
0.032234
0.043396
0.014694
-0.019429
-0.023575
0.015332
-0.022618
-0.029634
-0.026126
-0.075876
-0.049088
0.0025757
0.0019378
0.008635
0.046904
0.05392
0.02777
0.061574
0.047223
0.0064026
-0.022618
-0.024851
0.00066221
2.4388e-05
-0.0031647
-0.018153
-0.06025
-0.049726
-0.0098618
-0.0050782
-0.036331
0.00066221
-0.00061343
-0.0079484
0.0013
-0.0095429
-0.0073105
-0.0098618
-0.0034836
0.0003433
-0.0098618
-0.013689
-0.038245
-0.050682
-0.031229
0.0092728
0.02171
-0.016878
-0.020067
-0.035375
0.0022568
0.023305
0.0028946
-0.013689
-0.01911
-0.012732
-0.02198
-0.017516
0.0064026
-0.017516
0.023624
0.035423
0.035104
0.045947
0.049455
0.044034
0.049455
0.11419
0.10112
0.068271
0.0028946
-0.027721
0.03925
0.031915
-0.0012513
0.0054459
-0.013051
-0.016878
0.0019378
0.012143
-0.022299
0.027132
0.008635
-0.015921
0.022029
0.0025757
-0.017835
-0.043666
-0.031548
-0.0095429
-0.04271
-0.058655
-0.084168
-0.095649
-0.093735
-0.046855
-0.044304
-0.045899
-0.041434
-0.055147
-0.036331
-0.0076295
-0.026764
-0.055147
-0.051639
-0.0044404
-0.0089051
0.0003433
0.0044891
-0.028359
-0.0041214
0.011505
0.035742
0.036061
0.037337
0.047542
0.041483
0.042439
0.041164
0.0051269
-0.026764
-0.014008
0.014694
0.0073593
-0.0060349
-0.026445
-0.038564
-0.020067
0.0054459
0.0092728
-0.015283
0.033829
0.011824
-0.0028458
0.047542
0.041164
0.026175
0.018521
0.028407
0.041164
0.0089539
-0.011775
-0.041115
-0.027402
-0.010819
-0.0034836
0.012143
-0.0076295
-0.00029452
0.0044891
0.0025757
0.0099106
-0.036012
-0.038564
-0.040158
-0.033142
-0.034737
0.0070404
-0.002208
-0.038245
-0.039202
-0.011775
0.0079971
0.022667
0.026813
0.0038513
-0.017197
0.008635
0.012781
-0.0041214
-0.047493
-0.043028
0.0092728
-0.027721
-0.023256
-0.031867
-0.054828
-0.035694
0.0003433
0.033191
0.026813
0.047223
0.028726
0.037018
0.074012
0.040845
0.018202
0.010548
0.028726
0.041802
0.037975
0.014056
-0.036969
-0.059612
-0.011775
0.028726
0.022667
0.00098112
0.0095917
-0.0034836
0.0019378
0.015332
-0.0047593
-0.019429
-0.035056
-0.036012
-0.055466
-0.069498
-0.075876
-0.085125
-0.078746
-0.061525
-0.058336
-0.036969
-0.043028
-0.042391
-0.048769
-0.014645
0.0092728
0.0028946
-0.019748
-0.026764
0.010548
0.004808
-0.0076295
0.0003433
-0.01337
0.0028946
0.021072
0.028088
-0.0015702
0.040526
0.053601
0.031915
0.043715
0.026494
0.0064026
-0.005716
0.0057648
0.042121
0.038612
0.032234
0.024899
0.01023
0.03064
0.075925
0.070185
0.044353
0.064763
0.064125
0.075606
0.097611
0.049774
0.027451
0.022348
0.038294
0.027132
-0.00093234
-0.010819
-0.014008
-0.028996
-0.047174
-0.02517
0.0044891
-0.017197
-0.0050782
-0.018153
0.022986
0.0089539
-0.04558
-0.093097
-0.09246
-0.050682
-0.049088
-0.062163
-0.071093
-0.10394
-0.080979
-0.058017
-0.046855
-0.047493
-0.036331
-0.050363
-0.041434
0.010548
0.023943
0.014694
-0.011456
-0.026445
0.0057648
0.0067215
0.008635
-0.016559
-0.045899
-0.017835
0.022029
0.010548
-0.031548
0.00098112
0.0051269
-0.0018891
0.015651
-0.011137
-0.013689
-0.029953
-0.012732
0.016289
0.012781
0.022029
-0.02804
0.0022568
0.06285
0.064763
0.066677
0.03351
0.049774
0.064444
0.092189
0.082941
0.02458
0.0073593
0.0064026
0.013419
0.020435
0.008316
-0.015283
-0.054828
-0.051958
-0.014645
0.0044891
-0.0079484
0.013419
0.0089539
-0.0047593
0.027451
0.013419
0.0016189
0.0028946
-0.0015702
0.023943
0.02171
0.02171
-0.0060349
-0.032504
-0.041115
-0.0041214
0.017246
-0.016559
0.00066221
-0.0095429
-0.015283
-0.0031647
-0.022618
-0.058017
-0.084487
-0.074601
-0.076514
-0.070136
-0.062801
-0.079384
-0.065352
-0.047174
-0.019748
0.0070404
-0.02804
-0.035375
-0.028678
-0.0050782
0.013419
-0.0073105
-0.043028
-0.047493
-0.018791
-0.017516
0.0013
0.0038513
-0.043985
-0.031229
-0.01624
-0.014327
-0.020067
0.016927
0.023624
0.038294
0.066995
0.060936
0.058704
0.019797
-0.031548
0.011186
0.037018
0.031596
0.033829
0.030002
0.057428
0.078157
0.06285
0.031915
0.054239
0.052326
0.066995
0.089319
0.049774
0.044353
0.049455
0.038612
0.031915
0.033829
0.026175
-0.014645
-0.025488
-0.036969
-0.010181
0.02777
0.0064026
-0.016559
0.0028946
0.024899
0.014694
-0.051639
-0.095968
-0.096924
-0.043028
-0.028359
-0.036012
-0.03665
-0.08353
-0.067585
-0.071411
-0.078427
-0.054828
-0.024532
0.008316
-0.002208
0.015651
2.4388e-05
-0.014964
-0.040477
-0.059293
-0.030272
-0.032186
-0.018472
-0.042072
-0.048131
-0.013051
0.0044891
0.0070404
-0.012094
-0.00029452
-0.029953
-0.02198
0.023624
0.020754
-0.00061343
-0.016878
-0.021343
-0.011456
-0.012094
-0.033142
-0.055466
-0.021024
0.0089539
0.026813
0.028407
-0.022937
-0.015921
0.0013
0.030959
0.041164
0.0099106
-0.031229
-0.012732
0.020754
-0.0050782
-0.021661
-0.0073105
-0.051001
-0.038883
-0.022618
-0.009224
0.018202
0.036061
0.01884
0.017246
0.061255
0.069547
0.087406
0.10176
0.060617
0.077201
0.081665
0.071779
0.045947
0.0041702
0.018202
0.085173
0.089957
0.034786
0.061893
0.019478
-0.011775
-0.009224
-0.039202
-0.056742
-0.058655
-0.056742
-0.032186
-0.033142
-0.05132
-0.08066
-0.075876
-0.074919
-0.044942
-0.03378
-0.070136
-0.049726
-0.028359
-0.03665
-0.0098618
-0.022618
-0.060569
-0.083849
-0.061206
-0.041434
-0.011137
-0.014964
-0.056742
-0.040477
-0.012413
0.0032135
0.019478
0.013738
0.017564
0.0054459
0.022029
0.0057648
-0.022937
-0.060569
-0.06312
-0.014645
-0.0079484
-0.017197
-0.034418
-0.035056
-0.0050782
0.0076782
0.029364
0.075287
0.17511
0.14991
0.10431
0.13142
0.08039
0.048818
0.016289
0.047223
0.090914
0.071779
0.040207
-0.020386
-0.051958
-0.062482
-0.054828
-0.047493
-0.063758
-0.043666
-0.039202
-0.03091
0.0025757
-0.021024
-0.049407
-0.058336
-0.016878
-0.033142
-0.017197
-0.030591
-0.06599
-0.032823
-0.04271
-0.041753
-0.038883
-0.03091
0.0032135
0.011824
0.019159
0.032553
-0.0044404
-0.03665
-0.04558
0.014056
0.02171
0.0099106
-0.016878
-0.029634
-0.00061343
0.0079971
0.0003433
-0.031548
-0.010819
0.0051269
0.0016189
0.03064
0.00066221
-0.024532
-0.033142
-0.026126
-0.0050782
-0.0076295
-0.021661
-0.052915
-0.051001
-0.040158
0.020754
0.038612
0.012781
0.035742
0.012462
0.011186
0.052326
0.008316
-0.042391
-0.017197
-0.0098618
-0.0073105
0.020435
0.017246
-0.023894
-0.018153
0.021072
0.02777
0.029364
0.0044891
0.012143
0.016289
0.028407
0.037975
0.022348
-0.013689
-0.01337
0.030002
-0.0044404
-0.025488
-0.012094
-0.032504
-0.03378
0.012143
0.034467
0.012781
0.027451
0.0095917
-0.0095429
0.018202
-0.0018891
0.0028946
-0.005716
-0.035694
-0.051001
-0.01911
-0.0050782
-0.059293
-0.063439
-0.030591
-0.00029452
-0.0076295
-0.042391
-0.01911
0.0013
0.0044891
0.039888
0.023943
0.0044891
-0.0076295
0.0044891
-0.038245
-0.031548
-0.034418
-0.051639
-0.041434
-0.049407
-0.018472
0.014694
-0.0098618
-0.01624
-0.04271
-0.024532
2.4388e-05
-0.017835
-0.036012
-0.040796
-0.0095429
-0.01624
-0.0089051
-0.010819
-0.031867
-0.024851
-0.0063538
0.022986
0.0089539
0.041802
0.034148
0.014375
0.044353
0.028726
-0.0085862
0.0003433
-0.0089051
0.0076782
-0.0073105
-0.0041214
-0.040158
-0.057698
-0.045899
-0.0038025
-0.0105
-0.038245
-0.0079484
-0.0038025
0.0041702
0.031596
0.014694
-0.018472
-0.022299
0.0003433
0.019478
0.049774
0.047861
0.029045
0.049455
0.040845
0.041802
0.067314
0.058704
0.070503
0.10558
0.11802
0.11132
0.07752
0.030002
0.035742
0.050093
0.019478
-0.0034836
-0.037288
-0.022937
-0.0076295
-0.021024
-0.045261
-0.040158
-0.0066727
-0.025807
-0.061206
-0.053871
-0.069498
-0.063758
-0.10426
-0.11
-0.06312
-0.053552
-0.047493
-0.063758
-0.080979
-0.055466
-0.0060349
0.0013
-0.027083
0.0041702
0.017246
0.021072
0.049455
0.0099106
-0.0038025
-0.020067
-0.012413
-0.020386
-0.011456
-0.024851
-0.055785
-0.024851
-0.014645
-0.005716
2.4388e-05
-0.021661
0.0032135
0.0131
0.037337
0.049137
0.022986
-0.012094
-0.012094
0.0051269
-0.010181
-0.0034836
-0.0076295
-0.03091
-0.012094
-0.0050782
0.00098112
-0.02198
-0.024851
-0.01624
0.013419
0.042121
0.016608
-0.0050782
-0.029634
-0.038883
0.012781
0.025218
0.0089539
-0.0060349
-0.03091
0.0019378
0.055196
0.034786
-0.0085862
0.022986
0.047861
0.065082
0.071779
0.041483
0.014694
0.013738
0.03638
0.05105
0.0076782
-0.0073105
-0.037288
-0.022299
0.0016189
0.046266
0.039569
0.0079971
-0.002208
0.03925
0.028407
0.044353
0.008316
-0.061206
-0.072368
-0.031548
-0.061844
-0.06312
-0.045261
-0.075238
-0.070455
-0.059612
-0.06599
-0.066309
-0.046218
-0.039839
-0.052277
0.00098112
0.0079971
-0.014964
-0.033142
-0.031867
0.0089539
2.4388e-05
-0.018472
-0.028359
-0.046218
-0.026126
-0.0015702
0.011824
0.0022568
0.035742
0.026494
0.031596
0.062212
0.042121
0.019797
0.012462
0.026494
0.026813
0.04531
0.040845
-0.0047593
-0.031229
-0.0012513
0.039888
0.01884
-0.010181
-0.0098618
-0.01911
-0.017835
0.0013
-0.02198
-0.032504
-0.042072
-0.024213
-0.035375
-0.012413
-0.009224
0.0028946
0.010548
0.0054459
0.02458
0.041802
0.05105
0.05679
0.040845
0.081346
0.039888
0.025537
-0.0012513
-0.02517
0.00098112
0.00066221
-0.002208
-0.020386
-0.066309
-0.055785
-0.014327
-0.011775
-0.040477
-0.01911
-0.020386
-0.014964
0.019159
0.0032135
-0.023894
-0.048131
-0.054828
-0.02804
-0.032186
-0.0089051
-0.022299
-0.034099
-0.015602
0.022348
-0.002208
-0.020067
-0.0050782
-0.0041214
0.033829
0.07146
0.055196
0.029364
-0.0053971
-0.010819
-0.037288
-0.042072
-0.035056
-0.062482
-0.041115
-0.029634
-0.0098618
-0.010181
0.0035324
0.0067215
-0.00061343
0.034148
0.0051269
-0.018791
-0.050363
-0.044942
-0.0012513
0.013738
0.012781
0.015013
-0.010819
-0.0031647
0.008635
0.0022568
-0.0050782
0.015332
0.0092728
0.0067215
0.028726
0.029364
0.014694
-0.011137
-0.019748
-0.012413
0.0019378
0.0003433
-0.043028
-0.049088
-0.022937
0.014375
0.02171
-0.014645
0.0019378
0.015013
0.032553
0.063487
0.037337
-0.00061343
0.0022568
0.03925
0.034148
0.028726
0.026494
0.012781
0.030002
0.030321
0.050412
0.060936
0.037975
0.0025757
-0.023894
0.063487
0.032553
-0.024213
-0.050682
-0.080979
-0.041115
-0.076833
-0.090227
-0.090227
-0.10043
-0.072687
-0.054828
-0.052596
-0.065352
-0.040477
-0.040477
-0.046536
-0.011456
-0.03091
-0.014645
-0.028996
-0.029315
0.0079971
-0.0066727
-0.014327
-0.01337
-0.0031647
0.010548
0.049774
0.032234
0.023943
0.073374
0.07433
0.044034
0.044672
0.034467
0.0044891
-0.012094
0.012143
-0.0105
-0.0050782
0.0060837
-0.051958
-0.032823
-0.041115
-0.039839
-0.032504
-0.01624
0.0016189
0.0044891
0.047861
0.05105
0.012143
-0.044942
-0.072049
-0.016559
-0.017197
0.0054459
0.0051269
-0.035694
-0.021024
0.013738
0.018521
0.0019378
0.026494
0.01884
0.021072
0.054877
0.047542
0.021072
0.0019378
0.0032135
0.022986
0.014694
-0.0085862
-0.043028
-0.055785
-0.024851
0.02171
0.011505
-0.027083
-0.016559
-0.012413
-0.0073105
0.013738
-0.018791
-0.037288
-0.043028
-0.03665
-0.05419
-0.046218
-0.019748
-0.052277
-0.044623
-0.029953
-0.013051
-0.0076295
-0.026445
-0.047812
-0.023256
0.0079971
0.021391
-0.011456
-0.058655
-0.047493
0.0095917
0.00098112
-0.014645
-0.024851
-0.070136
0.00098112
0.03351
0.023624
0.025218
0.047542
0.05392
0.044353
0.072098
0.053282
0.074968
0.049455
0.010548
0.020435
0.034148
0.037018
0.014375
-0.020386
-0.017516
0.0064026
0.023943
0.01597
0.035423
0.012781
0.0067215
0.071141
0.043077
-0.022937
-0.039839
-0.052915
-0.075238
-0.073963
-0.053871
-0.063439
-0.078427
-0.059612
-0.020067
-0.0047593
-0.048131
-0.062801
-0.046855
-0.00029452
0.027132
0.020754
0.0013
0.020754
0.071779
0.047223
0.052007
0.046266
0.0035324
0.015013
0.022029
0.030321
0.022667
0.044353
0.034786
-0.0089051
0.0131
-0.00029452
-0.009224
-0.015602
-0.045899
-0.038564
-0.035694
-0.010819
-0.017835
-0.0098618
0.016608
0.046904
0.052007
-0.0095429
0.0051269
0.023624
0.018202
0.020754
0.020435
0.0016189
-0.025807
-0.022299
-0.031548
-0.050044
-0.089908
-0.10553
-0.093097
-0.077152
-0.038883
-0.019748
-0.048131
-0.041434
-0.019748
-0.0085862
0.004808
-0.018153
-0.057379
-0.04845
0.0003433
-0.010819
-0.0063538
-0.014964
-0.041434
-0.024532
-0.011775
0.0067215
0.015651
0.033829
0.025218
0.028407
0.087406
0.032553
0.059023
0.08039
0.050093
0.061255
0.061893
0.062531
0.04818
0.0070404
0.052326
0.09187
0.079752
0.028407
0.054877
0.040207
-0.0031647
0.012781
-0.0031647
-0.024851
-0.058336
-0.050044
-0.032186
-0.029953
-0.056104
-0.075238
-0.058336
-0.028678
-0.0025269
0.015332
2.4388e-05
0.028407
0.042121
0.028088
0.055515
0.022348
-0.047812
-0.076195
-0.01624
-0.012413
-0.025488
-0.046855
-0.057698
-0.06599
-0.087038
-0.067266
-0.063758
-0.049088
-0.039839
-0.043985
0.0028946
0.013738
-0.0028458
-0.031867
-0.030272
0.0057648
-0.0031647
-0.028996
-0.03091
-0.041753
-0.031229
0.004808
0.0022568
-0.027083
0.0060837
0.017883
0.014056
0.02777
-0.0041214
-0.026126
-0.031867
-0.024851
-0.0073105
0.014375
0.0092728
-0.020705
-0.032186
-0.024851
0.017564
0.040526
0.026813
0.028726
0.03925
0.029683
0.044034
0.0073593
-0.026445
-0.033142
2.4388e-05
-0.0082673
-0.002208
-0.0098618
-0.018153
-0.005716
0.025856
0.023624
0.052963
0.074968
0.094422
0.075287
0.097611
0.10399
0.057109
0.034148
0.07752
0.089319
0.037656
0.023943
0.022029
-0.034418
-0.035056
-0.032823
-0.034737
-0.056104
-0.012732
-0.02517
-0.067903
-0.038883
-0.040158
-0.065352
-0.094373
-0.062163
-0.033461
-0.031229
-0.03378
-0.052277
-0.060569
-0.058017
-0.027402
-0.016878
-0.065671
-0.044942
-0.02198
0.0079971
0.011186
0.0003433
-0.026126
-0.046218
-0.041434
-0.037607
-0.036969
-0.019429
-0.015602
0.008316
0.022029
0.022348
0.025218
0.018202
0.018202
0.021072
0.058385
0.10271
0.075287
0.027132
0.015651
0.038294
0.0070404
-0.022618
-0.042391
-0.038245
0.019159
0.073693
0.048499
-0.00061343
0.044353
0.03064
0.004808
0.034467
0.046266
0.011824
0.0073593
0.004808
-0.013051
-0.0105
-0.0105
-0.023894
-0.032504
-0.047493
-0.018791
-0.0076295
-0.021661
-0.0012513
-0.039202
-0.052915
-0.022618
-0.028359
-0.042072
-0.051639
-0.01624
-0.025488
-0.029634
-0.048769
-0.067903
-0.052277
-0.045899
-0.022299
-0.0028458
0.0099106
0.0019378
-0.013051
0.01597
0.035104
-0.002208
-0.071093
-0.079703
-0.014964
2.4388e-05
-0.026126
-0.018472
-0.043347
-0.02804
-0.019429
-0.0105
-0.0038025
0.022986
0.0067215
0.0028946
0.040845
0.047542
0.026175
-0.0028458
0.012781
0.038612
0.01884
0.0025757
-0.048769
-0.068541
-0.024532
0.035742
0.032872
2.4388e-05
0.034148
0.023943
0.01023
0.035104
0.012143
-0.0066727
-0.019429
0.0064026
0.0032135
0.0131
0.034148
0.0016189
0.011824
0.0095917
0.0073593
0.0025757
-0.0047593
0.023305
0.047223
0.065082
0.073374
0.050093
0.0038513
-0.017197
0.0041702
-0.012094
-0.027721
-0.031867
-0.021343
-0.01337
0.0073593
0.025218
0.0041702
0.004808
-0.022299
-0.028359
0.011824
0.024262
0.02171
-0.023256
-0.027083
0.013738
-0.005716
-0.0025269
-0.026126
-0.029634
0.0016189
0.034467
0.022986
0.00098112
0.03925
0.043396
0.012462
0.042439
-0.002208
-0.031229
-0.023894
-0.018153
-0.011775
-0.01911
-0.022937
-0.067903
-0.052277
-0.041434
-0.018472
-0.0034836
-0.04558
-0.022937
0.0060837
0.015332
0.020435
-0.0063538
-0.060887
-0.039202
0.0064026
-0.024851
-0.034418
-0.040796
-0.073644
-0.065033
-0.051958
-0.029634
-0.0073105
-0.00029452
-0.032823
-0.038883
-0.014327
-0.033461
-0.051958
-0.084168
-0.070455
-0.027083
-0.015921
-0.026126
-0.02517
-0.036969
-0.031229
0.008635
0.058704
0.046904
0.14034
0.14258
0.12791
0.13652
0.085811
0.027132
0.011505
0.022986
0.044672
0.026175
0.0095917
0.014375
0.0003433
-0.045261
-0.039839
-0.027721
-0.062163
-0.052915
-0.024213
0.022029
0.04531
0.014375
-0.0050782
-0.0047593
0.042439
0.015013
-0.010181
-0.038245
-0.06312
-0.039839
-0.039839
-0.010819
-0.0041214
-0.0018891
0.0028946
-0.013051
0.012143
0.016608
-0.014327
-0.017835
-0.040477
-0.015283
-0.0098618
-0.0085862
-0.016559
-0.04271
-0.05132
0.01884
0.03064
-0.0098618
0.0003433
-0.017197
-0.045899
-0.0050782
-0.0105
-0.03091
-0.038245
-0.028359
-0.039202
-0.049407
-0.0089051
-0.033461
-0.049088
-0.047812
-0.0060349
0.028726
0.0044891
0.023305
0.049774
0.061893
0.069547
0.035742
0.019478
0.017883
0.03064
-0.013689
0.0038513
0.011824
-0.038883
-0.027083
-0.009224
-0.03665
-0.051639
0.028726
0.031596
-0.005716
0.012781
0.025856
0.0057648
0.0022568
0.037337
0.045629
0.027132
0.020754
0.0092728
-0.022937
-0.0060349
0.032553
0.02171
-0.013051
0.028088
0.015651
-0.0095429
0.022029
-0.0050782
-0.038883
-0.053234
-0.03378
-0.03091
-0.046218
-0.050682
-0.065352
-0.070774
-0.056423
-0.021343
-0.024851
-0.048131
-0.032823
-0.031229
-0.010819
0.004808
0.018521
-0.002208
-0.027721
0.029045
0.0131
0.010548
0.038294
0.044034
0.076563
0.065401
0.050731
0.059342
0.05392
0.021391
0.02458
0.074649
0.047542
-0.0069916
-0.040477
-0.045899
-0.012413
-0.040158
-0.068541
-0.056423
-0.074919
-0.05132
-0.023575
-0.023894
-0.03665
-0.014008
-0.0044404
0.0016189
0.011824
-0.035056
-0.045261
-0.041753
-0.03952
-0.031867
-0.038564
-0.023894
-0.049088
-0.06312
-0.049088
-0.014008
-0.01624
-0.019748
0.030959
0.02777
0.0079971
0.072098
0.049137
-0.01337
-0.041115
-0.024213
-0.012094
-0.011137
-0.0063538
-0.0089051
-0.018472
-0.023575
-0.015283
-0.0031647
-0.0031647
0.011824
0.033191
0.076563
0.079752
0.052326
-0.0028458
-0.0015702
0.067314
0.059342
0.029045
0.054239
0.026175
0.012781
0.044034
0.034148
0.0079971
0.03925
0.016927
0.01597
0.027132
-0.0038025
-0.005716
-0.036012
-0.056104
-0.045261
-0.043347
-0.054509
-0.083849
-0.10075
-0.088633
-0.037607
-0.030591
-0.042072
-0.028996
-0.02804
-0.015283
0.015332
-0.014645
-0.035694
-0.047812
-0.020705
-0.040796
0.00098112
0.0070404
-0.041434
-0.034737
-0.044942
-0.03665
0.019797
0.012781
-0.013051
-0.01911
0.008316
0.047542
0.02777
-0.0073105
-0.018472
0.019159
0.016608
0.008316
0.0076782
-0.022299
0.0038513
0.030002
0.017246
-0.013689
0.017564
-0.0050782
-0.005716
0.037656
0.037337
0.015651
-0.013689
-0.021024
0.0028946
0.0025757
0.011186
0.0022568
0.019797
0.037018
0.061255
0.070185
0.042758
0.04818
0.037337
0.04531
0.081665
0.038294
-0.023256
-0.026126
0.026813
-0.0095429
-0.016559
-0.021024
-0.054509
-0.043985
-0.036969
-0.041753
-0.051639
-0.05132
-0.00029452
0.019797
0.037975
0.038294
-0.014327
-0.057698
-0.026445
-0.0060349
-0.0073105
-0.010181
-0.032504
-0.076514
-0.02198
0.010548
0.027132
0.049137
0.028726
0.020435
0.03351
0.051369
0.01884
0.0022568
-0.037288
-0.052596
0.020435
0.022986
-0.019429
-0.058974
-0.08066
-0.057698
-0.034418
-0.041753
-0.11064
-0.089908
-0.052596
-0.035694
-0.0047593
-0.023256
-0.038883
-0.050363
-0.027402
-0.026764
-0.019748
-0.017835
-0.043028
-0.019429
-0.0015702
0.028726
0.030321
0.011186
0.020435
0.019159
0.074968
0.067633
0.0032135
-0.020705
-0.011456
0.032234
-0.0012513
0.0003433
0.020116
-0.016878
-0.010181
0.015651
0.030959
0.048818
0.083898
0.10686
0.085173
0.10813
0.078476
0.030959
0.0019378
0.03638
0.063487
0.026494
0.0003433
-0.053234
-0.048131
-0.009224
0.02171
0.0044891
-0.067266
-0.050363
-0.046218
-0.047174
-0.015283
-0.0060349
-0.014008
-0.035694
-0.017835
-0.026445
-0.042391
-0.070455
-0.080341
-0.090227
-0.066628
-0.022299
-0.023256
-0.066947
-0.054509
-0.051639
-0.019748
0.011824
-0.014645
-0.045899
-0.043347
0.010548
0.0044891
-0.0079484
-0.0105
-0.032186
-0.005716
0.01884
0.039569
0.037337
0.047542
0.052645
0.082941
0.090276
0.040845
0.013419
-0.009224
0.011186
0.07146
0.045947
0.029364
0.011186
0.016289
0.032872
0.061255
0.053601
-0.0018891
-0.0028458
0.0016189
-0.026126
-0.0053971
-0.012094
-0.041434
-0.064077
-0.07173
-0.070136
-0.055147
-0.067266
-0.1218
-0.11191
-0.043985
-0.025807
-0.014964
-0.030591
-0.016878
0.012781
0.028088
0.052007
0.031915
-0.018472
-0.038245
0.015332
0.0099106
-0.021024
-0.0085862
-0.019429
-0.023256
-0.021024
-0.015283
-0.023894
-0.020386
-0.020705
-0.028996
-0.0018891
0.0060837
2.4388e-05
-0.029634
-0.03378
-0.01911
-0.01624
-0.013689
-0.031229
-0.04558
-0.013689
0.038612
0.047542
0.024262
0.068271
0.045947
0.02458
0.10813
0.091552
0.070822
0.062531
0.043715
0.052645
0.022986
-0.023894
-0.011775
0.018521
0.050412
0.070822
0.031915
0.015651
0.013738
0.014694
0.02171
0.017564
-0.011137
-0.029634
-0.06599
-0.049407
-0.0041214
-0.0028458
-0.017835
-0.067266
-0.070455
-0.058655
-0.061206
-0.041753
-0.023575
-0.0089051
-0.050682
-0.014645
-0.0015702
-0.0098618
-0.052915
-0.058336
-0.035056
-0.01911
-0.043028
-0.051001
-0.06599
-0.045261
0.0044891
0.022029
-0.00093234
0.028407
0.027132
0.0079971
0.015651
0.0095917
-0.0041214
-0.0079484
-0.0105
-0.0082673
-0.015602
-0.0105
-0.060569
-0.055785
-0.023894
0.0013
-0.0047593
-0.026764
-0.0041214
0.015651
0.018202
0.047542
0.011186
-0.0060349
0.0076782
0.05105
0.023943
0.0032135
0.01597
-0.037926
-0.038883
-0.018791
0.023305
0.026175
-0.020067
-0.012413
0.0131
0.019478
-0.0031647
-0.028996
-0.072368
-0.064077
-0.01624
-0.0076295
-0.0105
-0.0082673
-0.038245
-0.01337
0.055196
0.063806
0.032234
0.08039
0.054877
0.056153
0.072417
0.032872
0.032553
0.027451
0.037337
0.046585
0.066677
0.037975
2.4388e-05
-0.046855
-0.082892
-0.014327
0.01597
0.0044891
0.013419
-0.0095429
-0.018153
0.0044891
-0.032504
-0.055785
-0.042072
-0.027721
-0.056742
-0.046218
-0.020067
-0.072049
-0.067585
-0.064714
-0.036331
-0.0073105
-0.014964
-0.0085862
-0.0076295
0.0028946
0.0032135
-0.0050782
-0.051639
-0.054828
-0.0098618
-0.0018891
0.0060837
0.0041702
-0.039202
-0.016878
0.0035324
0.0003433
-0.014964
0.024262
0.028407
0.012781
0.028726
0.0131
0.0079971
-0.02517
-0.04558
-0.022618
-0.015921
-0.03091
-0.059293
-0.062482
-0.058655
0.0032135
0.027451
-0.01911
-0.0060349
0.00066221
-0.0015702
0.021072
0.026494
0.045947
0.046904
0.025856
0.0003433
0.048818
0.052963
-0.0041214
0.029045
0.047223
0.066995
0.065401
0.039888
0.028726
0.0060837
0.013738
0.04818
0.03064
-0.029634
-0.042391
-0.026445
-0.060569
-0.037607
-0.050682
-0.073006
-0.059612
-0.039839
-0.022937
-0.020386
0.0067215
2.4388e-05
-0.019429
0.0073593
0.0044891
0.024899
0.038612
0.033829
0.049455
0.036699
0.013419
-0.020705
-0.029953
-0.031229
0.025856
0.056471
-0.023256
-0.0105
-0.027721
-0.046855
-0.022937
-0.045261
-0.076833
-0.088314
-0.065033
-0.055785
-0.046855
-0.041753
-0.054828
-0.050363
-0.040796
-0.034418
-0.0044404
0.024899
0.036699
0.059023
0.044672
0.038931
0.017883
-0.039839
-0.064077
-0.031548
-0.054828
-0.032186
-0.029634
-0.04558
-0.02517
-0.017516
-0.029953
-0.052915
0.0064026
0.0057648
0.032872
0.065401
0.053282
0.030002
0.0035324
-0.0105
0.021072
0.022029
0.01884
-0.012094
-0.033142
-0.023575
0.03064
0.028407
-0.04558
-0.0038025
0.015332
-0.0018891
0.021072
0.0089539
0.0057648
0.0131
0.008635
0.030959
0.049137
0.052007
0.034148
0.023624
0.029045
0.030959
0.0099106
0.00098112
0.0019378
-0.0034836
-0.012094
0.004808
-0.025488
-0.050682
-0.090546
-0.044942
-0.076195
-0.086081
-0.074919
-0.082892
-0.034099
0.022029
0.019478
0.023943
0.076563
0.04818
0.02458
0.060617
0.0064026
0.0028946
-0.022299
-0.055466
-0.014327
-0.0044404
-0.024213
-0.066628
-0.10904
-0.10075
-0.058017
-0.017516
-0.05132
-0.022299
-0.03378
-0.043347
-0.0034836
-0.012413
-0.028359
-0.027402
-0.017516
-0.024213
-0.026126
-0.009224
-0.042391
-0.052915
-0.037926
0.0064026
0.041483
0.062212
0.07146
0.080709
0.093784
0.10399
0.097611
0.067952
0.034148
0.066358
0.023943
0.045947
0.02777
-0.014645
0.025856
0.015651
0.0038513
-0.014008
0.022348
0.0041702
-0.005716
0.045947
0.049137
0.026175
-0.0041214
-0.0069916
0.031596
-0.0028458
-0.030272
-0.042391
0.0013
0.024262
0.03064
0.0089539
-0.021661
0.019797
0.038612
0.015332
0.030959
-0.012094
-0.037926
-0.055466
-0.04845
-0.036331
-0.047812
-0.076195
-0.090546
-0.084168
-0.066628
-0.051639
-0.056742
-0.086081
-0.083849
-0.064077
-0.022618
0.0079971
-0.026445
-0.040158
-0.03665
-0.019748
-0.046855
-0.033142
-0.029315
-0.06312
-0.052277
-0.041753
-0.009224
2.4388e-05
0.018202
0.028726
0.012143
0.069866
0.056471
0.022667
-0.005716
-0.0089051
0.050731
0.037656
0.020116
0.019797
0.0028946
-0.018472
-0.01337
-0.0047593
-0.062163
-0.045899
-0.017197
-0.015283
0.0060837
-0.0085862
-0.019429
-0.038564
-0.026764
0.023624
0.008635
0.0079971
-0.0015702
0.0057648
0.023305
0.062212
0.053601
0.046585
0.07433
0.068909
0.064763
0.05392
0.025218
-0.0089051
-0.019429
-0.014327
-0.044304
-0.01624
-0.015283
-0.044623
-0.035694
-0.022299
-0.013689
-0.0063538
0.0016189
0.0070404
-0.0073105
0.0089539
0.024262
0.026175
-0.014327
-0.0089051
0.040207
0.015013
-0.021024
-0.036331
-0.06599
-0.027402
0.004808
-0.0066727
-0.032186
-0.0012513
0.008316
-0.005716
0.008316
-0.002208
-0.0095429
-0.052596
-0.064395
-0.037926
-0.026764
-0.028359
-0.040158
-0.049407
-0.030272
-0.016559
-0.024532
-0.047174
-0.041434
-0.037607
-0.013689
-0.0076295
-0.038245
-0.066309
-0.050363
-0.034099
-0.054828
-0.035694
-0.025488
-0.052915
-0.0034836
0.0016189
0.041164
0.069547
0.069547
0.077201
0.074968
0.10271
0.10718
0.074012
0.029045
0.055196
0.092189
0.065082
0.03351
0.0092728
-0.055147
-0.057698
-0.01337
-0.0015702
-0.03952
-0.0079484
-0.0089051
-0.048769
-0.02804
-0.051639
-0.067903
-0.081935
-0.073325
-0.051001
-0.041753
-0.045899
-0.080979
-0.087357
-0.058655
0.013738
0.050093
0.0092728
0.014694
0.010548
0.030002
0.05392
0.044672
0.0028946
0.013738
0.022986
-0.0031647
0.0051269
0.0019378
-0.042072
-0.043028
-0.032504
-0.01911
-0.010819
-0.039202
-0.038245
-0.0098618
0.032553
0.028726
0.015013
-0.02804
-0.023894
0.014056
-0.0082673
-0.0095429
0.0044891
-0.017516
0.023624
0.038294
0.044034
0.013419
0.004808
-0.035056
0.013738
0.06859
0.066677
0.044353
0.0060837
0.018202
0.022029
-0.009224
-0.035694
-0.036012
-0.0034836
0.022667
0.041164
0.048499
0.016289
0.043396
0.045947
0.020435
0.041164
0.0019378
-0.026445
-0.0044404
0.012781
-0.032823
-0.015921
-0.009224
-0.058017
-0.067903
-0.057698
-0.047812
-0.026764
-0.031229
-0.03952
-0.038883
-0.00061343
0.0025757
-0.022299
-0.068541
-0.077152
-0.033461
-0.034418
-0.039839
-0.043985
-0.075557
-0.052277
-0.041753
-0.056742
-0.080022
-0.026764
-0.012094
-0.022937
0.0013
-0.0053971
-0.044623
-0.083211
-0.058655
-0.032504
-0.044304
-0.043347
-0.049088
-0.056742
-0.026126
0.0089539
0.028088
2.4388e-05
0.027451
0.010548
0.032553
0.073374
0.051688
0.05392
0.066358
0.075287
0.10144
0.079433
0.099524
0.085492
0.06572
0.076244
0.075925
0.059342
0.032872
0.064125
0.074968
0.069866
0.036061
-0.024213
-0.052915
-0.05419
-0.015921
-0.06312
-0.068541
-0.059612
-0.10522
-0.080341
-0.057698
-0.044304
-0.054828
-0.0060349
0.016927
-0.0095429
0.0044891
0.011186
0.0035324
-0.050682
-0.067903
-0.014964
-0.010181
-0.022618
-0.041434
-0.047174
-0.010181
0.028726
-0.00029452
-0.023894
0.018521
0.01023
0.011505
0.046585
0.023305
-0.012413
-0.026764
-0.016878
-0.012094
0.014694
-0.0047593
-0.036969
-0.050363
-0.023575
0.020116
0.029364
0.033829
0.051369
0.02458
0.014056
0.032234
0.0070404
0.0013
-0.014645
0.029364
-0.012413
-0.018791
0.0057648
-0.023575
-0.021343
-0.011775
-0.019429
-0.022937
-0.014964
0.0003433
-0.0012513
0.044034
0.037018
-0.0018891
-0.027721
-0.0069916
0.021391
0.0003433
-0.017835
0.0057648
-0.04271
-0.037926
-0.0060349
0.032234
0.017883
0.025218
0.00098112
0.012781
0.04818
0.020116
-0.020386
-0.0066727
-0.0031647
-0.011137
-0.0047593
-0.019429
-0.065671
-0.033461
-0.00061343
-0.00061343
-0.00029452
-0.030272
-0.019748
-0.0066727
0.004808
0.035104
-0.022618
-0.054509
-0.020386
0.016927
-0.0105
-0.029953
-0.029315
-0.069179
-0.069498
-0.054828
-0.015921
-0.0044404
-0.012094
-0.0044404
-0.012413
0.0044891
0.00098112
2.4388e-05
-0.04271
-0.047174
-0.012094
-0.021024
-0.002208
-0.010819
-0.014008
0.010867
0.029364
0.038294
0.022986
0.060936
0.029683
0.020116
0.052007
0.03064
0.01023
-0.035694
-0.026126
0.0044891
0.025218
0.0070404
-0.025807
-0.043985
-0.027402
0.031915
0.051688
0.035423
0.059661
0.064444
0.10399
0.089638
0.023943
-0.032823
-0.037288
0.004808
-0.015602
-0.027721
-0.055147
-0.099794
-0.080341
-0.060569
-0.074919
-0.10649
-0.13519
-0.11957
-0.11542
-0.06025
-0.04558
-0.067903
-0.099157
-0.093097
-0.030272
-0.016878
-0.061525
-0.098519
-0.087038
-0.049407
-0.024213
-0.014008
-0.017197
0.011186
-0.00093234
-0.0047593
0.022029
0.008635
-0.009224
-0.024532
-0.021343
0.014375
0.010548
0.0051269
-0.027721
-0.027083
-0.0028458
0.037975
0.036061
0.035104
0.047861
0.044991
0.049137
0.066995
0.049455
0.028726
0.038294
0.054558
0.018521
0.030959
0.085492
0.049137
0.061893
0.058704
0.056153
0.048499
0.041483
0.058704
0.062531
0.087087
0.075925
0.03351
-0.017516
-0.022618
0.015651
-0.039839
-0.045261
-0.021024
-0.063439
-0.065671
-0.041753
-0.014964
-0.027083
-0.025807
-0.014645
-0.014645
0.012462
-0.020067
-0.046855
-0.075238
-0.08353
-0.06025
-0.056742
-0.027083
-0.046536
-0.074919
-0.034099
0.031596
0.022029
-0.018472
0.022348
0.046904
0.061255
0.051688
0.028726
0.034148
0.049455
0.072417
0.040845
0.035104
0.022348
-0.015921
-0.029315
-0.005716
0.0044891
0.012143
0.0076782
0.065401
0.05105
0.06572
0.05105
0.0044891
-0.029315
-0.020705
0.020116
0.027132
0.014694
-0.0038025
-0.023575
-0.017516
-0.027721
-0.011775
-0.018472
-0.0050782
-0.0079484
-0.018472
0.0038513
0.0025757
-0.018153
-0.054828
-0.069179
-0.041115
-0.046855
-0.070774
-0.10968
-0.094054
-0.089908
-0.07779
-0.079703
-0.099476
-0.073325
-0.071093
-0.063439
-0.014964
-0.013689
-0.029953
-0.038245
-0.021661
-0.009224
0.008635
0.017883
0.0044891
0.035104
0.037656
0.048818
0.069866
0.034148
0.044353
0.072098
0.099524
0.11515
0.082303
0.037975
0.035104
0.067314
0.046585
0.042121
0.026175
-0.037926
0.035423
0.052007
0.037656
0.036699
0.059342
0.022986
0.016289
0.049137
0.051369
0.04531
-0.037288
-0.043347
0.0076782
0.032872
0.013419
-0.011456
-0.048131
-0.012094
0.0016189
-0.023894
-0.044304
-0.0069916
-0.015921
-0.04271
-0.03378
-0.069817
-0.087676
-0.090865
-0.080341
-0.080341
-0.069179
-0.073325
-0.096286
-0.075876
-0.043028
-0.026764
-0.017197
-0.0028458
0.0013
0.010548
0.035104
0.049774
0.011824
-0.022618
-0.041434
0.039888
0.039888
0.0019378
-0.009224
-0.067585
-0.037288
-0.0066727
-0.0034836
0.0019378
0.022348
0.013419
0.015651
0.054239
0.03351
0.011505
-0.021343
-0.0025269
0.028407
0.037337
0.037656
0.029045
-0.012094
-0.0098618
0.014056
0.022667
0.0054459
0.039888
0.017246
0.0038513
0.013419
0.008316
0.0035324
-0.02517
-0.043666
-0.046855
-0.017835
-0.02804
-0.065033
-0.038883
-0.038245
-0.020386
-0.019429
-0.04845
-0.025488
-0.022299
0.010867
0.028726
0.0022568
-0.011775
-0.028359
0.021391
-0.019429
-0.025488
-0.01337
-0.046536
-0.023575
-0.025488
-0.036331
-0.0069916
0.020116
-0.0038025
-0.012094
0.023305
-0.018153
-0.036331
-0.038564
-0.028996
0.035104
0.02458
0.0099106
-0.014964
-0.025488
0.037656
0.068909
0.057428
0.019159
0.034148
0.052007
0.045947
0.080071
0.026175
-0.024213
-0.04845
-0.035375
0.004808
2.4388e-05
-0.036969
-0.050682
-0.046855
-0.038564
-0.012094
-0.002208
-0.019429
-0.0018891
-0.014645
-0.0025269
2.4388e-05
-0.026445
-0.058336
-0.049407
-0.027083
-0.014645
0.0054459
-0.013689
-0.079384
-0.043347
-0.012094
-0.0038025
0.015651
0.030002
0.028088
0.004808
0.032872
0.053282
0.026813
-0.012094
-0.039202
-0.021024
-0.024213
-0.050044
-0.047493
-0.069817
-0.064077
-0.037288
-0.01624
0.0019378
0.024899
-0.0076295
0.0028946
0.024262
-0.0038025
-0.011456
-0.021343
-0.0082673
0.0051269
2.4388e-05
0.0064026
-0.0105
-0.032186
0.015332
0.037018
0.012143
-0.024851
-0.0031647
0.0073593
0.024899
0.041802
0.0099106
-0.0069916
-0.014008
-0.0066727
-0.029634
-0.026445
-0.019748
-0.04558
-0.020386
-0.014327
-0.00093234
0.0070404
-0.0034836
0.0028946
0.0089539
0.063169
0.075287
0.037337
-0.0044404
0.018202
0.083898
0.063806
0.021391
0.0016189
-0.011137
0.0028946
-0.0044404
-0.015921
0.051688
0.092508
0.032234
-0.0069916
0.025537
-0.0079484
-0.019748
-0.026126
-0.021024
-0.0095429
-0.043666
-0.039202
-0.056423
-0.067266
-0.073963
-0.038883
-0.034418
-0.03952
-0.01337
-0.037926
-0.051958
-0.017197
-0.020067
-0.040477
-0.030272
-0.017835
-0.01337
0.028088
0.028726
-0.014327
0.0016189
0.014694
0.025856
0.048818
0.039569
0.037656
2.4388e-05
0.020116
0.020116
-0.0050782
-0.065671
-0.075238
-0.036012
-0.06312
-0.054828
-0.067266
-0.087357
-0.073325
-0.058974
-0.046218
-0.045899
-0.015921
-0.022618
-0.012094
0.029364
0.037018
0.022029
-0.01911
-0.034737
-0.018472
-0.012094
-0.028996
-0.056742
-0.036969
-0.015602
0.0044891
0.023305
-0.0015702
-0.0012513
-0.0018891
0.0073593
0.027132
0.013738
-0.022299
-0.01911
-0.0066727
-0.0095429
-0.00093234
0.035742
0.021391
0.075606
0.080071
0.081028
0.089957
0.052645
0.091552
0.090914
0.10813
0.087725
0.03925
0.015651
0.0044891
0.064763
0.017246
-0.009224
-0.051639
-0.075876
-0.057698
-0.047493
-0.051958
-0.06599
-0.036331
-0.028359
-0.020705
0.0079971
-0.0069916
-0.026764
-0.047174
-0.047493
-0.020067
-0.034737
-0.040477
-0.052277
-0.045899
-0.038883
-0.023256
-0.032186
-0.03378
0.01597
-0.0041214
-0.02198
0.011824
-0.005716
-0.019748
-0.030591
-0.014964
-0.016878
-0.024851
-0.035694
-0.035375
0.0089539
0.043077
0.051369
0.033829
2.4388e-05
-0.0079484
0.008635
0.033829
0.042439
0.0022568
-0.036331
-0.017835
0.0067215
-0.021024
-0.026445
2.4388e-05
-0.047174
-0.041753
-0.027083
-0.010819
0.025537
0.03925
0.040526
0.028407
0.040207
0.013419
-0.035694
-0.032823
-0.019748
0.0038513
-0.015921
-0.028996
-0.059293
-0.093416
-0.066628
-0.039839
-0.031548
-0.035375
0.0079971
0.0025757
-0.0031647
0.017883
0.019797
0.0064026
-0.017516
-0.010819
0.0025757
0.0076782
-0.015921
-0.044623
-0.03091
0.00098112
0.011824
0.03351
0.03064
0.0051269
0.0016189
-0.0041214
-0.025488
-0.029634
-0.028996
-0.030591
-0.0076295
-0.031548
-0.02517
-0.010819
-0.047493
-0.043666
-0.015921
0.0019378
0.0003433
0.030959
0.032872
0.048499
0.063487
0.054877
0.025856
-0.017197
-0.033461
0.008316
0.022986
0.032553
-0.0069916
-0.069498
-0.047812
0.0044891
0.0099106
-0.015602
0.034467
0.07146
0.07752
0.096973
0.088681
0.07433
0.06859
0.066995
0.082303
0.061255
0.024899
0.0003433
0.004808
-0.017197
-0.014008
-0.024851
-0.058974
-0.040158
-0.046218
-0.056423
-0.086081
-0.10904
-0.10107
-0.09246
-0.06886
-0.068541
-0.041753
-0.038564
-0.06025
-0.047174
-0.049088
-0.043985
-0.033461
-0.031548
-0.029953
-0.0047593
0.033191
0.013738
-0.011137
-0.064395
-0.086081
-0.040796
-0.02517
0.015332
0.0016189
-0.016559
0.023624
0.047861
0.040207
0.019478
0.038931
0.029045
0.022029
0.056471
0.046266
0.023624
-0.020705
-0.0060349
0.0041702
-0.0041214
-0.0069916
-0.037288
-0.046855
-0.029315
0.045947
0.048499
0.023624
0.030959
0.031278
0.043715
0.050731
0.033829
0.081346
0.084536
0.051688
0.022029
0.023943
0.028726
0.022348
0.044672
0.03064
0.061255
0.044991
0.01597
0.035742
0.040526
0.032553
0.015332
0.0025757
-0.030591
-0.037607
-0.005716
-0.026126
-0.025488
-0.02198
-0.061206
-0.039839
-0.019429
-0.0085862
-0.025488
0.0041702
-0.015921
-0.033461
-0.011775
-0.0073105
-0.0060349
-0.056742
-0.080979
-0.052277
-0.058017
-0.052915
-0.074601
-0.099157
-0.075876
-0.032186
-0.027402
-0.020067
0.0016189
-0.011137
-0.014964
-0.012413
-0.058017
-0.065033
-0.081935
-0.041115
-0.047812
-0.042072
-0.02517
-0.056742
-0.062482
-0.06599
-0.048131
-0.040158
-0.037607
-0.01337
-0.012413
0.03064
0.06859
0.022348
-0.0044404
-0.02517
-0.0028458
-0.0038025
-0.0085862
-0.00061343
-0.016559
-0.015602
0.015651
0.064125
0.048818
0.044991
0.022348
0.01023
0.054558
0.044034
0.034148
0.02171
0.01884
0.033191
0.028088
0.014375
-0.0095429
-0.017516
0.0038513
0.046266
0.046585
0.063806
0.083898
0.074649
0.072736
0.090276
0.084854
0.073055
0.060298
0.063806
0.066677
0.083579
0.090276
0.036061
0.01884
0.01597
0.030959
0.0099106
-0.0095429
0.0044891
-0.023575
-0.018791
-0.026126
-0.073006
-0.10075
-0.12052
-0.084168
-0.10139
-0.10394
-0.099794
-0.12052
-0.10298
-0.090865
-0.058655
-0.042072
-0.0079484
-0.022937
-0.051001
-0.029634
-0.03952
-0.056423
-0.076195
-0.066628
-0.027083
-0.037607
-0.03378
-0.053234
-0.070455
-0.057379
-0.023256
-0.022618
-0.038883
0.0070404
0.011505
0.027132
0.071779
0.038931
0.026813
0.012462
0.014375
0.037337
0.02777
0.008316
-0.01624
-0.023575
0.015332
0.062531
0.079114
0.034786
0.008316
0.0003433
0.02171
0.036699
-0.015921
-0.04558
-0.03378
0.037018
0.026813
0.034786
0.029364
-0.014964
0.020435
0.03638
0.049774
0.05679
0.052645
0.07433
0.10526
0.12249
0.069547
0.029683
-0.042072
-0.061206
-0.018791
-0.027083
-0.04271
-0.040477
-0.07779
-0.057698
-0.037607
-0.014645
-0.038883
-0.01624
-0.034099
-0.031548
0.043715
0.03925
0.0035324
-0.036012
-0.026764
-0.020067
-0.05132
-0.055785
-0.073325
-0.06312
-0.047493
-0.01911
-0.040796
-0.074919
-0.038245
-0.022299
-0.017516
0.016289
-0.0031647
-0.0089051
-0.0053971
0.020754
0.00066221
0.0051269
0.011824
-0.021661
-0.020067
-0.0047593
0.0067215
0.054558
0.064125
0.03925
-0.0076295
0.008635
0.027132
0.02171
-0.033461
-0.044942
-0.0069916
-0.01624
-0.018791
-0.039839
-0.087357
-0.080022
-0.038564
-0.031229
-0.051639
-0.0069916
-0.023575
-0.030591
0.016608
-0.0034836
-0.0060349
-0.0060349
0.016927
0.034148
0.042758
0.034786
0.0067215
-0.026126
-0.0105
0.05105
0.052007
0.051369
0.04531
0.0022568
0.011824
0.0019378
-0.030591
-0.067585
-0.056104
-0.031229
-0.05132
-0.051958
-0.039839
-0.051958
-0.050682
-0.023256
0.0131
0.026813
0.020116
0.04531
0.054877
0.14577
0.15884
0.12185
0.096973
0.074649
0.10495
0.090276
0.082941
0.048818
0.015651
0.022667
0.058385
0.012462
-0.021661
0.0016189
-0.048131
-0.068541
-0.043666
-0.064714
-0.075876
-0.079065
-0.078109
-0.054828
-0.062482
-0.069498
-0.073006
-0.074919
-0.048131
-0.013051
-0.019748
-0.059612
-0.047174
-0.0018891
0.0032135
0.029045
0.0067215
-0.036331
-0.072368
-0.039202
-0.039202
-0.01624
-0.03665
-0.072368
-0.050682
0.030959
0.03638
0.021391
0.0044891
-0.0034836
0.010867
0.0028946
2.4388e-05
0.037018
-0.00061343
-0.005716
0.03064
0.0073593
-0.0095429
0.0073593
-0.01911
0.0099106
0.013419
0.008316
0.0095917
0.041483
0.016608
-0.01624
0.052645
0.037337
-0.013689
-0.050044
-0.049088
-0.0060349
-0.020067
-0.035694
-0.041434
-0.064077
-0.052915
-0.0085862
-0.0053971
-0.023575
0.0051269
0.019159
0.022348
0.046266
0.02458
0.0016189
-0.0076295
0.0089539
0.011505
0.049137
0.060617
0.020754
0.016608
0.029683
0.042121
0.050093
0.042121
0.080071
0.05679
0.061255
0.058704
0.034467
-0.037288
-0.038883
0.022029
-0.019429
-0.040477
-0.01624
-0.048769
-0.035694
-0.0034836
-0.015283
-0.050044
0.019159
0.059979
0.014056
0.034467
-0.024532
-0.028678
-0.043028
-0.064714
-0.034737
-0.051001
-0.067903
-0.09533
-0.096286
-0.072049
-0.05419
-0.061206
-0.072049
-0.043028
-0.031229
-0.034737
0.011186
0.0016189
-0.0073105
-0.01911
-0.021024
-0.043985
-0.029953
-0.022618
-0.049407
-0.052915
-0.035375
-0.014327
-0.0025269
-0.0105
-0.012413
-0.0105
0.013419
0.041164
0.028407
0.0095917
0.00066221
0.034786
0.03351
0.038294
0.032553
0.0070404
0.03351
0.044672
0.037656
0.031278
0.048818
0.043715
0.040207
0.081665
0.07146
0.048499
0.01597
0.0089539
0.046904
0.049455
0.026494
-0.0066727
-0.0066727
-0.002208
0.022986
0.026813
-0.0025269
0.014375
0.004808
0.0051269
0.042121
0.073374
0.038294
0.0054459
0.01597
0.013738
0.014375
0.0038513
-0.047493
0.0013
0.042121
0.029683
0.025856
-0.0069916
-0.039839
-0.055785
-0.03378
-0.023256
-0.065352
-0.072687
-0.08066
-0.073006
-0.10841
-0.10075
-0.096286
-0.11797
-0.091822
-0.085762
-0.058017
-0.02804
-0.027721
-0.038564
-0.041434
-0.014008
-0.024851
-0.022299
-0.050044
-0.055466
-0.0041214
-0.0098618
-0.020067
-0.04271
-0.067266
-0.045899
-0.0069916
0.00066221
-0.0066727
0.03638
0.036699
0.016927
0.040845
0.031596
0.04818
0.076882
0.077838
0.079752
0.056153
0.072417
0.052645
0.023305
0.042758
0.077201
0.091552
0.069547
0.032872
0.035104
0.042758
0.034148
0.043715
0.040207
0.017564
0.043077
0.019478
0.0095917
-0.0044404
-0.021343
0.015651
0.040526
0.035104
0.030321
0.036699
-0.0060349
-0.046855
-0.018472
-0.020705
-0.065352
-0.10904
-0.11415
-0.073963
-0.078746
-0.090227
-0.10235
-0.11096
-0.090227
-0.057698
-0.055466
-0.072049
-0.024851
-0.027083
-0.02804
0.0076782
-0.0066727
-0.0044404
-0.012094
-0.0082673
-0.0098618
0.013419
0.014056
-0.033142
-0.036331
-0.011775
0.026494
0.016608
-0.010819
0.010548
0.032553
0.040207
0.029683
-0.0105
-0.032186
-0.056104
-0.04558
-0.03952
-0.0066727
0.00098112
-0.035056
-0.023575
-0.013051
0.0051269
0.0025757
-0.014964
0.016927
0.02171
0.044034
0.023943
0.019478
-0.022299
-0.040158
2.4388e-05
-0.0028458
0.019478
0.026813
-0.0015702
0.024899
0.063487
0.08613
0.081984
0.12982
0.12727
0.14577
0.15565
0.12408
0.08326
0.051369
0.023305
0.047861
0.066039
0.041483
-0.035056
-0.081617
-0.072049
-0.053871
-0.056104
-0.11415
-0.0864
-0.064077
-0.063439
-0.032823
-0.053552
-0.11032
-0.11893
-0.075238
-0.06599
-0.05419
-0.052596
-0.085762
-0.072687
-0.053552
-0.026126
-0.022618
0.0025757
0.024899
0.0064026
0.019159
0.032872
0.020435
-0.014327
-0.023256
0.0099106
-0.0069916
0.012143
0.0028946
-0.043985
-0.028996
-0.0050782
0.0054459
-0.013051
0.029045
0.037337
0.017564
0.032553
0.0057648
-0.014008
-0.036012
0.008316
0.029045
0.014375
-0.017197
-0.051639
-0.053552
-0.036969
-0.021343
-0.018791
-0.03378
0.019797
-0.0076295
0.0032135
0.031915
0.010867
0.0003433
-0.0079484
-0.002208
-0.005716
0.0073593
0.031596
0.031278
0.027451
0.037975
0.049137
0.072736
0.066039
0.066358
0.051688
0.092508
0.10909
0.06859
0.021391
2.4388e-05
0.047542
0.0041702
-0.024851
0.0079971
-0.060887
-0.034737
-0.031229
-0.023894
-0.032823
-0.034099
-0.034099
-0.042072
-0.014645
-0.041434
-0.04845
-0.080341
-0.080979
-0.043028
-0.042391
-0.049407
-0.042072
-0.066628
-0.049088
-0.005716
-0.018472
-0.034099
-0.0073105
-0.0038025
0.0041702
0.022667
-0.0028458
-0.017516
-0.019748
-0.0028458
-0.02517
-0.034099
-0.028359
-0.037926
-0.032823
-0.012732
0.0028946
0.018521
0.021072
0.025856
0.013419
0.028407
0.059023
0.046266
-0.0012513
2.4388e-05
0.048499
0.028726
0.016289
-0.0038025
-0.038564
-0.023894
0.029683
0.029364
0.017883
0.035742
0.01884
0.028726
0.044034
0.048499
0.033829
-0.01337
-0.0095429
0.022029
-0.01337
-0.036331
-0.019748
-0.031867
0.0089539
2.4388e-05
-0.024532
0.0060837
0.038931
-0.016878
0.014056
0.073055
0.028088
-0.0018891
-0.01624
-0.0015702
-0.015283
-0.023894
-0.00061343
-0.016559
-0.040796
-0.014008
-0.0034836
-0.016559
-0.056742
-0.031229
-0.02198
-0.0018891
0.0051269
-0.0098618
0.008316
0.015651
0.0028946
0.008635
-0.00029452
-0.023256
-0.073325
-0.040158
-0.0060349
-0.048769
-0.03952
0.019159
0.030002
-0.026764
-0.040796
-0.056104
-0.070774
-0.09246
-0.080979
-0.022299
-0.013051
-0.0105
-0.03378
-0.051958
-0.029953
-0.009224
0.0073593
0.0067215
0.032872
-0.0025269
-0.022299
0.028407
0.0035324
-0.015602
-0.032186
-0.023575
-0.014008
-0.029953
-0.031867
-0.049726
-0.042391
-0.025488
0.012143
0.039569
0.0131
0.015332
0.025856
0.039569
0.04531
0.030002
-0.016878
0.017883
0.045629
0.016289
0.02171
0.038931
0.0131
0.00066221
0.011824
0.03638
0.058704
0.079433
0.083898
0.069866
0.099843
0.078795
0.011186
-0.005716
0.022348
0.033829
-0.021024
-0.014008
0.0028946
-0.049407
-0.068222
-0.016878
-0.019748
-0.028678
-0.0015702
-0.014008
-0.02804
-0.011775
-0.025807
-0.032504
-0.053871
-0.055466
-0.032186
-0.034737
-0.027721
-0.052915
-0.059931
-0.037607
-0.0028458
0.0019378
-0.046855
-0.016878
-0.0044404
0.0019378
0.015013
-0.020067
-0.029634
-0.034099
-0.012413
-0.0082673
-0.002208
-0.010819
-0.031867
-0.034099
-0.014327
0.020754
-0.00061343
0.008316
0.017883
0.026494
0.064125
0.043715
0.01884
-0.01624
-0.0098618
0.035423
0.0070404
0.0044891
0.0041702
-0.037607
-0.02198
0.061574
0.043715
0.020754
0.078795
0.052645
0.042439
0.075606
0.017246
-0.0015702
-0.020386
-0.011775
0.012462
2.4388e-05
-0.034099
-0.080979
-0.095968
-0.066309
-0.025488
-0.014327
-0.032186
-0.023894
-0.0015702
0.0070404
0.022667
0.0079971
-0.012413
-0.0098618
0.015651
-0.0082673
0.0038513
-0.0041214
-0.022299
0.036699
0.034786
0.022348
0.016927
-0.0025269
2.4388e-05
-0.0050782
0.0073593
0.026494
0.02171
-0.036969
-0.044304
-0.01337
-0.013051
-0.010819
-0.020705
-0.059931
-0.015921
-0.0018891
-0.0034836
-0.026126
0.017564
0.011505
-0.0069916
0.018202
-0.00029452
-0.013051
-0.026126
-0.032504
-0.019429
-0.03952
-0.054509
-0.088952
-0.11159
-0.07779
-0.037288
-0.015283
0.0016189
0.004808
-0.0063538
-0.014327
0.0035324
-0.010181
-0.032186
-0.067266
-0.037607
-0.020705
-0.017835
-0.034737
-0.059931
-0.052277
-0.033142
0.0054459
0.011824
-0.017197
0.0019378
0.018521
0.037337
0.058704
0.040526
-0.0060349
-0.02804
0.026494
0.030321
0.015332
0.012781
-0.024851
-0.014645
0.00098112
0.029683
0.017246
0.037018
0.062212
0.039569
0.078157
0.083579
0.047861
-0.0041214
0.02458
0.073055
0.069866
0.023943
-0.018472
-0.027721
2.4388e-05
0.018521
2.4388e-05
-0.060887
-0.022937
-0.023575
-0.058336
-0.049726
-0.053552
-0.076195
-0.087357
-0.064395
-0.059293
-0.061206
-0.056742
-0.089589
-0.072687
-0.044304
-0.0034836
0.0035324
0.021072
0.059342
0.066039
0.056471
0.060936
0.033829
-0.012413
-0.044623
0.0013
0.013419
0.0067215
-0.026445
-0.062482
-0.022937
-0.0041214
-0.02804
-0.058655
-0.045261
-0.032823
-0.019748
0.0131
0.00066221
-0.014008
-0.051639
-0.046855
0.017883
0.039888
0.019159
-0.016559
-0.048131
-0.048131
-0.01624
0.030959
0.063169
0.13779
0.090276
0.067952
0.13046
0.094422
0.067633
0.051688
0.036699
0.037656
0.015332
0.010548
0.008635
0.046585
-0.012094
-0.016559
-0.031229
-0.049407
-0.034418
-0.038245
-0.056423
-0.035694
-0.041434
-0.065352
-0.076833
-0.044942
-0.049407
-0.017516
-0.030272
-0.062163
-0.050363
-0.044942
-0.018791
0.00098112
0.0025757
-0.0066727
0.020754
0.072098
0.03638
-0.01911
-0.052915
-0.050363
-0.016878
-0.0076295
0.0095917
0.0025757
-0.029634
-0.024851
0.018521
0.017564
-0.027721
0.01023
0.022986
0.01023
-0.0015702
-0.011456
-0.0085862
-0.02198
-0.01624
-0.0076295
-0.012094
-0.061844
-0.084168
-0.094373
-0.075876
-0.026764
-0.0098618
-0.045899
-0.032186
-0.027402
-0.014008
0.016289
-0.012094
-0.04271
-0.046536
-0.032504
-0.036012
-0.022937
-0.016878
-0.035694
-0.0034836
0.0131
0.030002
0.031278
0.0089539
0.021072
0.023305
0.07146
0.072736
0.066358
0.004808
0.018202
0.058385
0.041483
0.012781
0.012462
0.0089539
0.014375
0.05105
0.082303
0.062212
0.097611
0.082941
0.044034
0.066995
0.065401
0.055515
0.035423
0.018521
0.024899
0.027132
0.030002
-0.029953
-0.023894
-0.020386
-0.009224
0.0003433
-0.034418
-0.016878
-0.0050782
0.028726
0.037975
-0.013689
-0.037926
-0.020705
-0.012094
-0.03378
-0.036012
-0.01911
-0.0050782
0.00098112
0.0035324
0.0028946
0.0038513
-0.029634
-0.00061343
0.022667
0.037656
0.025856
-0.019429
-0.044623
-0.036012
-0.03091
-0.039839
-0.012094
-0.027721
-0.078746
-0.056104
-0.032504
-0.010819
-0.011137
-0.0038025
-0.0085862
-0.0063538
0.016927
-0.0063538
0.004808
0.014375
0.016289
0.011505
-0.027402
0.0019378
0.0035324
-0.044623
-0.04845
-0.023894
-0.038564
-0.050044
-0.014327
-0.005716
-0.0098618
0.018202
0.022029
0.0019378
-0.031229
-0.025807
-0.045899
-0.032504
-0.022299
-0.0028458
0.035104
0.056153
0.034148
0.026494
0.049137
0.039888
0.008635
0.03925
0.030959
-0.0050782
-0.036331
-0.046218
-0.021024
-0.044623
-0.069817
-0.079065
-0.08927
-0.094692
-0.085762
-0.048131
-0.043347
-0.024532
-0.028996
-0.029634
0.040526
0.079114
0.05392
0.028407
0.037018
0.07146
0.06285
0.051688
0.050731
0.0041702
0.0067215
0.024899
0.031915
0.017246
0.020116
0.0028946
0.0028946
0.01023
-0.038883
-0.064714
-0.079065
-0.051639
-0.033142
-0.03665
-0.056423
-0.095011
-0.064077
-0.012732
2.4388e-05
-0.0047593
-0.0069916
-0.0044404
-0.01911
0.0035324
0.027132
0.027451
-0.0031647
-0.020705
0.008316
-0.0031647
0.0041702
-0.0015702
-0.023894
0.0003433
0.0035324
0.059661
0.052963
0.030959
0.018202
0.017564
0.064763
0.02458
0.0025757
-0.021343
0.022029
0.073693
0.033829
0.011824
-0.014327
-0.032186
-0.019429
0.025537
0.028726
0.0067215
0.00098112
0.034148
0.060936
0.050731
0.023305
0.038612
0.049774
0.038294
0.0073593
-0.002208
-0.0082673
-0.047174
-0.038564
-0.017197
0.047223
0.0025757
-0.071093
-0.032504
-0.017835
-0.040158
-0.035375
-0.093416
-0.11159
-0.11446
-0.082254
-0.087357
-0.06599
-0.082892
-0.10458
-0.080341
-0.06025
-0.036012
-0.04271
-0.020705
0.004808
-0.01337
0.013419
0.020435
0.0032135
-0.043985
-0.034737
-0.0015702
-0.011775
-0.050363
-0.05132
-0.063439
-0.040477
-0.012094
-0.0082673
-0.013051
0.020435
-0.0076295
-0.0073105
0.028726
-0.010819
-0.009224
-0.010819
0.018521
0.050412
0.022348
0.0092728
-0.009224
-0.0105
-0.0034836
0.033191
0.019478
0.010548
0.073055
0.097611
0.1075
0.11164
0.069866
0.047542
0.050412
0.07146
0.05392
0.036699
0.049137
-0.0063538
0.025218
0.049137
0.036699
-0.0044404
-0.010819
-0.017516
-0.011456
-0.0012513
-0.06025
-0.08066
-0.10553
-0.11957
-0.088952
-0.093097
-0.085125
-0.079703
-0.11542
-0.085762
-0.047493
-0.053552
-0.062163
-0.019748
-0.0085862
0.0041702
0.047223
0.041483
0.028088
0.0067215
-0.018791
-0.00061343
-0.011775
-0.0085862
-0.027721
-0.023575
-0.0025269
0.025537
0.029683
-0.03091
-0.0038025
-0.0066727
0.0067215
0.028088
0.0067215
-0.015921
-0.028359
-0.013689
-0.034099
-0.020705
-0.00029452
-0.013051
-0.018153
-0.015921
-0.005716
-0.0079484
-0.016559
0.011505
0.028726
0.052963
0.046904
0.010548
0.0035324
-0.012732
0.028726
0.034786
0.097611
0.11005
0.03638
0.030959
0.040207
0.059979
0.030959
0.064125
0.068271
0.063487
0.085173
0.068271
0.040526
-0.031548
-0.065033
-0.027083
0.011824
0.0092728
-0.036331
-0.072687
-0.037288
-0.0038025
-0.015921
-0.036012
-0.017197
-0.053552
-0.035056
-0.011137
-0.026126
-0.054509
-0.065352
-0.053552
-0.079065
-0.075238
-0.065033
-0.084487
-0.054828
-0.021024
0.0032135
0.0060837
-0.017516
-0.012413
-0.0028458
0.037975
0.039888
-0.0066727
-0.046536
-0.071093
-0.026764
0.0032135
-0.00029452
-0.030272
-0.056423
-0.040158
-0.041115
-0.038883
-0.04845
0.008635
0.028407
0.037018
0.11164
0.069866
0.028726
-0.0095429
-0.011137
0.033191
0.028726
0.0028946
0.0032135
-0.0015702
0.0057648
0.021072
0.013738
-0.02517
0.014694
2.4388e-05
0.023305
0.06859
0.025537
-0.015921
-0.02198
-0.023575
-0.019748
0.0032135
0.032872
0.008635
-0.017516
0.030002
0.09506
0.12185
0.057747
0.02458
0.024262
0.071779
0.051369
0.0092728
-0.022618
-0.03952
0.008316
-0.0044404
0.0051269
-0.023894
-0.067585
-0.075238
-0.064395
-0.051639
-0.029953
-0.014008
0.004808
0.0028946
0.013738
-0.01624
-0.057061
-0.084168
-0.066628
-0.039839
-0.055147
-0.053234
-0.052596
-0.067585
-0.078746
-0.052915
-0.023575
-0.048131
-0.031229
-0.014645
0.0044891
0.044672
0.031596
0.040845
0.013419
0.015013
0.048499
0.050412
0.023624
-0.024213
-0.011775
-0.00061343
0.0028946
0.019797
-0.013051
-0.00029452
0.013738
0.04531
0.031278
-0.02517
-0.054828
-0.051639
-0.018791
-0.043666
-0.040477
-0.032823
-0.059931
-0.04271
-0.033142
-0.011137
-0.016878
-0.015283
-0.0031647
-0.018472
2.4388e-05
-0.00093234
-0.0018891
-0.040477
-0.045261
-0.0047593
0.0067215
0.028726
0.015651
0.008635
0.01884
0.012143
0.020754
0.035423
0.044034
0.03638
0.041164
0.04531
-0.0050782
0.0032135
0.0035324
-0.024213
-0.040158
-0.045261
-0.010819
-0.036331
-0.047812
-0.019429
0.01884
0.031278
0.0092728
0.026175
0.030959
0.03351
0.059023
0.052326
0.03064
0.017564
0.038294
-0.0076295
-0.022299
-0.0050782
0.0041702
0.0032135
-0.023894
-0.024213
-0.027083
-0.029953
0.0013
-0.015283
0.010867
0.018521
-0.0050782
-0.095649
-0.075876
-0.022299
-0.031548
-0.022937
-0.019429
0.011186
0.035104
0.016927
0.0038513
-0.0089051
0.023305
0.013419
0.054239
0.09187
0.053282
0.0041702
-0.0066727
-0.009224
-0.01624
-0.0082673
0.029683
-0.013051
-0.034737
-0.041434
0.0019378
0.0131
0.0051269
0.008635
0.022029
0.015651
0.008635
-0.0063538
-0.027083
-0.036012
-0.027083
-0.053234
-0.044623
-0.026764
-0.053234
-0.052277
-0.031548
-0.013051
0.020116
0.00098112
-0.009224
0.0089539
0.047861
0.030321
0.010548
0.013419
-0.00061343
-0.0073105
-0.015921
-0.0105
0.0025757
-0.024532
-0.005716
0.0070404
-0.0095429
-0.046218
-0.010181
-0.0060349
-0.011456
-0.0038025
-0.022299
-0.044623
-0.04558
-0.061844
-0.063439
-0.06312
-0.043985
-0.067585
-0.060887
-0.031867
0.020435
0.028726
0.017883
0.02171
0.017564
0.03064
0.061255
0.038612
0.016608
0.04818
0.046266
0.040207
0.038294
0.025537
0.0041702
-0.00093234
0.014056
0.025218
0.018202
0.0028946
0.020116
0.026494
0.031596
0.028088
-0.026126
-0.050682
-0.071093
-0.036969
-0.041115
-0.055466
-0.066628
-0.081935
-0.059931
-0.053234
-0.027721
-0.04845
-0.0066727
0.00066221
-0.029315
-0.0085862
-0.015283
-0.020386
-0.047174
-0.053871
-0.023256
-0.021024
-0.011456
-0.03665
-0.055466
-0.03091
0.022348
0.026175
0.010867
0.040845
0.035742
0.030321
0.090595
0.092189
0.059661
0.032553
0.031596
0.017883
0.01597
0.021072
-0.014327
0.0003433
0.041483
0.11419
0.12791
0.072098
0.050093
0.030321
0.035742
0.05679
0.03925
0.039569
0.049774
0.03351
-0.039202
-0.049088
-0.00093234
-0.059293
-0.081617
-0.082573
-0.091822
-0.11351
-0.10075
-0.092141
-0.092141
-0.053552
-0.071411
-0.088952
-0.10617
-0.10043
-0.075876
-0.069179
-0.032504
-0.053234
-0.065033
-0.041753
0.0044891
0.030959
0.0025757
0.045947
0.035104
0.0038513
0.052963
0.07752
0.03351
0.01597
0.017883
-0.023575
-0.056104
-0.014645
-0.03091
-0.014645
-0.002208
0.023943
0.031915
0.0099106
0.011824
0.014694
0.064125
0.057428
0.02777
0.034786
0.02171
0.056153
0.025218
0.059342
0.050093
0.023624
0.012143
-0.0044404
0.015332
0.019159
0.041483
0.031915
-0.0034836
0.036061
0.017883
-0.0047593
-0.045899
-0.071411
-0.046218
-0.047812
-0.045899
-0.044304
-0.068541
-0.026764
-0.0015702
-0.014645
-0.027083
-0.0069916
-0.009224
-0.0018891
0.013419
-0.024213
-0.029953
-0.0079484
0.011505
-0.0038025
-0.017835
-0.0050782
-0.041115
-0.044942
-0.018153
0.030321
0.051369
0.01884
0.060617
0.062531
0.075925
0.077201
0.042758
0.024899
0.013419
-0.0076295
-0.028359
-0.0076295
0.004808
-0.040477
-0.036331
-0.023575
-0.014327
-0.013689
-0.020386
-0.012732
-0.0034836
0.046585
0.062212
0.016608
-0.029953
-0.020386
0.0019378
-0.035375
-0.059612
-0.082573
-0.094373
-0.067585
-0.042072
-0.054828
-0.088633
-0.053871
-0.048769
-0.06025
-0.049088
-0.04845
-0.035056
-0.022299
-0.021661
0.0060837
0.031915
0.042439
0.0064026
0.0060837
0.012143
0.052007
0.06859
0.021391
0.030959
0.026175
0.030321
0.038612
0.024899
0.004808
-0.012413
-0.0034836
-0.040158
-0.010819
-0.0044404
-0.032823
-0.0015702
0.050412
0.11037
0.096016
0.082622
0.10048
0.11611
0.10048
0.094741
0.071779
0.012462
2.4388e-05
0.033191
0.072736
0.051369
-0.02517
-0.078746
-0.074282
-0.050682
-0.066947
-0.064714
-0.017835
-0.03378
-0.034737
-0.011456
-0.03378
-0.070774
-0.11829
-0.087676
-0.043666
-0.062482
-0.068541
-0.079703
-0.083211
-0.091822
-0.075876
-0.058974
-0.0864
-0.056104
-0.027083
-0.0038025
0.023943
-0.0050782
-0.01624
-0.025488
-0.014645
-0.029315
0.0032135
-0.0047593
-0.038245
-0.019748
-0.0085862
0.0032135
-0.012094
-0.01911
-0.0031647
-0.0041214
0.026813
0.022667
-0.0069916
-0.027721
-0.027083
0.0067215
0.013419
0.027451
0.02777
0.0057648
0.037018
0.05679
0.11834
0.099524
0.12536
0.12504
0.12599
0.20508
0.20923
0.14768
0.073374
0.10495
0.14927
0.10782
0.050093
-0.0073105
-0.031229
0.0038513
0.028088
-0.0038025
-0.042391
-0.032823
-0.081935
-0.12754
-0.10745
-0.10553
-0.11446
-0.11415
-0.093416
-0.1167
-0.11415
-0.11446
-0.15592
-0.13424
-0.11351
-0.077471
-0.063439
-0.063439
-0.052596
-0.03091
0.0032135
-0.010819
-0.038245
-0.049407
-0.047174
-0.017516
-0.024213
-0.0050782
0.0022568
-0.025807
-0.0060349
0.019159
0.023624
0.01023
0.022348
0.01884
0.008635
0.044353
0.036061
0.029364
0.0044891
0.0057648
0.028088
0.029683
0.03351
0.027451
-0.00029452
0.0073593
0.039888
0.025218
-0.0085862
0.026813
0.019159
0.025537
0.054558
0.019159
-0.017835
-0.030591
-0.018153
0.010867
0.022029
0.023943
0.0060837
-0.0066727
-0.002208
0.030959
0.065401
0.048499
0.041802
0.023943
0.05392
0.069866
0.011186
-0.035375
-0.044623
-0.029634
-0.025488
0.0089539
-0.0050782
-0.044304
-0.033142
-0.051001
-0.021024
0.0099106
0.037975
0.034148
0.028407
0.067952
0.054877
0.0019378
-0.041434
-0.024851
-0.0085862
-0.038564
-0.02517
-0.046218
-0.074919
-0.072049
-0.07173
-0.058336
-0.069498
-0.032186
-0.026126
-0.0063538
0.014375
-0.0015702
-0.01911
-0.035056
0.0044891
0.02171
-0.00029452
-0.01624
-0.048769
-0.029953
0.017246
0.032872
0.046585
0.034148
0.0070404
-0.015921
-0.0012513
0.037975
-0.00093234
-0.032504
-0.051001
0.0038513
0.014694
0.025856
0.014375
-0.038883
-0.02804
-0.011775
-0.0082673
-0.013689
0.0092728
0.016927
-0.029634
-0.014964
0.0060837
-0.020705
-0.066309
-0.070774
-0.031867
-0.022937
-0.032186
-0.031229
-0.050044
-0.035694
-0.0034836
0.028726
0.0131
0.042439
0.035104
0.032553
0.055515
0.034148
0.019159
0.0022568
0.0044891
0.0041702
0.0019378
0.0013
-0.027402
-0.02517
-0.0076295
0.016608
0.015651
0.014375
0.055196
0.050093
0.054239
0.087725
0.066039
0.059661
0.084217
0.10112
0.074968
0.069547
0.050412
0.030321
0.02458
-0.015283
-0.011137
0.060936
0.057428
0.010867
-0.037926
-0.0034836
0.0013
-0.04845
-0.086081
-0.078109
-0.032186
-0.04271
-0.066309
-0.10235
-0.089589
-0.05132
-0.043985
-0.043347
-0.0864
-0.056104
-0.039202
-0.057379
-0.031229
-0.051958
-0.06886
-0.087676
-0.063439
-0.039839
-0.038883
-0.046536
-0.072368
-0.046536
-0.0079484
0.02777
0.045947
0.017564
0.023305
0.0038513
0.010548
0.049774
0.022667
0.004808
-0.0044404
0.011824
-0.027083
-0.030272
-0.026764
-0.050682
-0.022299
-0.0050782
0.021072
0.015651
0.00098112
0.032872
0.03638
0.057428
0.050731
0.015013
-0.024851
-0.03378
-0.0069916
-0.00061343
0.028407
0.037337
0.013738
0.041483
0.0057648
-0.030272
-0.0038025
0.057747
0.05392
0.027451
0.041483
0.064763
0.082622
0.03064
0.032872
0.050412
0.022348
-0.0105
-0.035694
-0.055466
-0.012094
-0.00061343
0.0070404
0.011824
0.023943
-0.0050782
-0.015283
0.0073593
-0.036331
-0.078109
-0.10904
-0.069179
-0.053871
-0.03952
-0.042072
-0.08066
-0.077471
-0.054828
-0.025488
-0.027083
-0.040477
-0.016559
-0.0073105
0.014694
0.023943
0.0099106
-0.02804
-0.053871
-0.013689
-0.016878
-0.015283
-0.036012
-0.063439
-0.026445
-0.01337
2.4388e-05
-0.0034836
0.0025757
0.018521
0.022029
0.082622
0.05679
0.033829
0.0067215
0.008635
0.052645
0.050731
0.061893
0.02171
-0.022299
-0.047493
0.023943
0.06285
0.014694
0.033829
0.011505
-0.00029452
0.0076782
-0.012732
-0.0044404
-0.010819
-0.011775
-0.020386
-0.012413
-0.014964
-0.029953
0.0022568
0.044991
0.047223
0.048499
0.034467
0.034786
0.0076782
0.014694
0.046585
0.033829
-0.010819
-0.067266
-0.0063538
-0.0050782
-0.032823
-0.080022
-0.10681
-0.080022
-0.077152
-0.057379
-0.049088
-0.047812
-0.031867
-0.030591
2.4388e-05
-0.0044404
-0.023575
-0.065352
-0.043985
-0.011456
-0.027721
-0.041115
-0.048131
-0.074919
-0.046855
-0.0085862
-0.0012513
-0.009224
0.02458
0.008635
0.0057648
0.042758
0.026494
-0.0025269
0.0076782
0.068909
0.066358
0.034786
0.029045
-0.016559
-0.01624
-0.009224
0.03351
0.051688
0.024899
0.022986
0.0131
0.035104
0.032872
0.0041702
-0.028359
-0.027083
-0.0028458
-0.061206
-0.066309
-0.038245
-0.03952
-0.012413
-0.0038025
-0.0073105
-0.022299
0.020754
0.057428
0.070503
0.14353
0.15342
0.11579
0.058066
0.050412
0.067314
0.059979
0.065401
0.083579
0.024262
-0.022618
0.010548
0.026494
-0.015602
-0.034099
-0.090865
-0.11351
-0.087357
-0.11319
-0.1167
-0.12339
-0.11
-0.091184
-0.074601
-0.075557
-0.1049
-0.10649
-0.080341
-0.03378
-0.039839
-0.044304
0.0028946
0.0051269
0.014694
0.036699
0.03638
0.014375
0.0079971
0.020116
0.0022568
0.015651
0.020435
-0.023894
-0.0089051
0.0051269
0.0079971
0.028407
0.0131
0.011824
0.0016189
0.02171
0.015651
-0.021024
-0.058655
-0.056423
-0.017197
-0.025488
-0.034737
-0.026126
-0.043666
-0.022937
0.0044891
-0.0047593
-0.002208
0.043396
0.012781
0.020754
0.061893
0.087725
0.069866
0.024899
0.019797
0.031278
0.011824
-0.012732
-0.036012
-0.034099
-0.0066727
0.021391
-0.0044404
-0.021024
0.019159
0.008635
0.04531
0.043396
0.023305
0.021072
0.014694
0.064763
0.069866
0.1059
0.083898
-0.002208
-0.0082673
-0.020067
0.022986
0.04531
0.0028946
-0.03091
-0.031548
-0.028359
-0.038883
-0.081298
-0.11351
-0.11861
-0.083849
-0.094054
-0.075557
-0.075557
-0.10649
-0.097881
-0.071411
-0.050044
-0.071411
-0.021024
-0.0028458
-0.018472
0.013738
0.0092728
-0.014327
-0.055466
-0.06025
-0.017516
-0.0034836
-0.00061343
-0.02198
-0.034418
-0.0044404
0.06572
0.061255
0.040207
0.067633
0.073055
0.070185
0.090276
0.072417
0.067633
0.062531
0.12185
0.10877
0.074012
0.049774
0.012781
0.023624
0.035742
0.043077
0.05679
0.019159
0.02171
0.029364
0.082622
0.029683
-0.014645
-0.042072
-0.045899
-0.043028
-0.064714
-0.040796
-0.016878
-0.043985
-0.044623
-0.044942
-0.0079484
-0.036969
-0.02804
-0.03378
-0.065671
-0.019748
-0.02804
-0.058974
-0.091503
-0.089908
-0.048769
-0.058655
-0.081617
-0.084168
-0.10043
-0.086081
-0.039839
-0.020067
-0.039839
-0.012413
-0.017516
-0.013051
0.010867
-0.0073105
-0.014008
-0.005716
0.0073593
-0.016559
-0.019748
-0.019748
-0.038245
-0.018153
-0.0105
0.023943
0.053282
0.041802
0.063806
0.066677
0.094741
0.098568
0.081984
0.072736
0.061893
0.078157
0.073374
0.087406
0.073374
0.064444
0.061574
0.041483
0.02777
0.029683
0.053282
0.023624
-0.0079484
0.0131
0.049137
-0.0073105
-0.093416
-0.081617
-0.036969
-0.046855
-0.063758
-0.10553
-0.11765
-0.1218
-0.075557
-0.074282
-0.070136
-0.030272
-0.043985
-0.060569
-0.042072
-0.032504
-0.028996
-0.089589
-0.048769
-0.014645
-0.03952
-0.043028
-0.040158
0.00098112
0.0079971
0.035104
0.029045
0.0032135
0.02458
0.020435
0.032553
0.066358
0.021072
-0.011137
-0.005716
0.026813
-0.0015702
-0.0012513
-0.012094
-0.036969
-0.014964
-0.0034836
0.01597
0.029683
0.01023
0.0028946
0.015332
0.046585
0.033829
-0.0085862
-0.054509
-0.043985
0.0095917
0.0025757
-0.026764
-0.014008
-0.028996
0.0089539
0.033829
0.035423
0.017246
0.066358
0.073055
0.10112
0.13269
0.11069
0.078476
0.042439
0.008316
0.023305
0.031278
0.013419
-0.029634
-0.060569
-0.080022
-0.031229
-0.044942
-0.10171
-0.06025
-0.052277
-0.070136
-0.04845
-0.070774
-0.079065
-0.070774
-0.027083
-0.026126
-0.016559
-0.026126
-0.06025
-0.052915
-0.032504
-0.014327
-0.0085862
-0.020067
-0.0028458
0.0051269
0.011505
0.0016189
-0.045261
-0.088952
-0.10171
-0.056742
-0.024851
-0.012413
-0.018791
-0.047493
-0.0041214
0.022667
0.026813
0.00066221
0.061574
0.085492
0.14768
0.20094
0.14736
0.10208
0.053601
0.019478
0.016289
0.017564
0.052007
0.059023
-0.018153
-0.020067
0.028088
-0.0047593
-0.065352
-0.071411
-0.066947
-0.054828
-0.022618
-0.032504
-0.03665
-0.034737
-0.0028458
-0.018791
-0.011137
0.0032135
-0.023575
-0.025807
-0.017197
0.022986
0.050731
0.040526
0.012781
0.020116
0.035104
0.036699
0.0057648
-0.035694
-0.043985
0.00066221
-0.04271
-0.061525
-0.036331
-0.06599
-0.051001
-0.03665
-0.026126
-0.01624
0.020116
0.018521
0.0044891
0.09187
0.082622
0.0035324
-0.032504
-0.014327
-0.021661
-0.050044
-0.027721
-0.035694
-0.049407
-0.054828
-0.040158
