0.008635
0.013419
-0.014008
-0.019748
-0.0082673
0.013419
0.026813
0.051688
0.038294
0.004808
-0.0015702
0.0044891
-0.012094
-0.020386
-0.036012
-0.059293
-0.056104
0.0099106
0.0095917
-0.021024
-0.010819
-0.0038025
0.016608
0.038931
0.062212
0.010548
0.00098112
0.020754
0.0070404
-0.0038025
-0.022937
-0.038245
-0.055466
-0.032186
0.0051269
0.0067215
-0.015283
2.4388e-05
0.017246
0.020435
0.052007
0.06859
0.008635
0.0051269
0.035423
0.014375
-0.0015702
-0.019748
-0.041434
-0.046855
0.014375
0.024262
0.0041702
-0.0060349
0.0092728
0.035104
0.039888
0.067952
0.055515
0.020116
0.015332
0.03351
0.013419
-0.00093234
-0.015602
-0.041753
-0.045261
0.017564
0.018202
-0.011775
-0.0060349
0.0044891
0.025537
0.044991
0.063806
0.021391
0.0064026
0.022667
0.0131
-0.0018891
-0.023256
-0.034418
-0.061206
-0.039202
0.015651
0.015651
-0.018153
-0.00093234
0.01023
0.0076782
0.032553
0.056153
-0.0069916
-0.0066727
0.018521
-0.0047593
-0.014964
-0.03091
-0.049407
-0.07173
-0.026126
-0.00061343
-0.0050782
-0.015921
-0.0073105
0.01597
0.01597
0.049455
0.045947
-0.0015702
-0.0076295
0.021072
-0.00061343
-0.019429
-0.037288
-0.064077
-0.073325
-0.0031647
0.0022568
-0.021343
-0.02198
-0.012094
0.01023
0.026175
0.050412
0.017564
-0.0038025
0.0041702
0.0089539
-0.010819
-0.028359
-0.037288
-0.064077
-0.049407
0.0035324
0.0060837
-0.023575
-0.0079484
0.0089539
0.017883
0.037018
0.058066
-0.0034836
-0.00029452
0.028088
0.008316
-0.0034836
-0.023894
-0.046536
-0.060569
-0.02198
0.0057648
-0.0038025
-0.021024
0.0019378
0.018202
0.017564
0.047861
0.055196
0.0044891
-0.0041214
0.020116
2.4388e-05
-0.0105
-0.029634
-0.05419
-0.059293
0.010867
0.014056
-0.014327
-0.022937
-0.009224
0.019159
0.032234
0.060298
0.033829
0.0003433
0.0038513
0.0095917
-0.0018891
-0.016878
-0.029953
-0.053234
-0.049088
0.0032135
0.015013
-0.014964
-0.0050782
0.0054459
0.026175
0.045947
0.071779
0.010548
0.00066221
0.022986
0.0076782
-0.0060349
-0.024213
-0.044942
-0.063439
-0.034737
-0.0028458
-0.0098618
-0.037288
-0.017516
-0.002208
0.0019378
0.028726
0.039569
-0.01911
-0.024851
0.0057648
-0.013689
-0.027721
-0.049088
-0.071411
-0.076195
-0.012094
-0.0034836
-0.023894
-0.029634
-0.015602
0.0064026
0.015332
0.046904
0.034786
2.4388e-05
-0.002208
0.010548
-0.012094
-0.023894
-0.033142
-0.060569
-0.058974
0.0064026
0.010548
-0.023256
-0.014327
-0.00061343
0.019797
0.038294
0.061255
0.012781
0.0022568
0.017883
0.0067215
-0.005716
-0.020705
-0.040477
-0.062482
-0.042391
-0.0053971
-0.002208
-0.026126
-0.012413
0.0051269
0.008316
0.030002
0.047861
-0.013051
-0.013051
0.017564
-0.0044404
-0.020067
-0.041434
-0.064077
-0.073006
-0.015921
0.0022568
-0.017516
-0.031548
-0.014964
0.0089539
0.013419
0.041164
0.035104
-0.0060349
-0.010181
0.011824
-0.0098618
-0.021661
-0.037288
-0.064077
-0.068222
0.0041702
0.0013
-0.027083
-0.021661
-0.010819
0.010548
0.028088
0.050093
0.0060837
-0.0053971
0.0057648
0.0028946
-0.020705
-0.036012
-0.048131
-0.074282
-0.054509
-0.0047593
-0.0095429
-0.040796
-0.021661
-0.0079484
-0.0034836
0.022029
0.044991
-0.020386
-0.023256
0.004808
-0.0098618
-0.021024
-0.041753
-0.066947
-0.075876
-0.028996
-0.0060349
-0.014645
-0.027721
-0.012413
0.0095917
0.010867
0.04531
0.050731
0.0054459
-0.0028458
0.012781
-0.0044404
-0.012094
-0.02517
-0.053871
-0.057061
0.011824
0.0073593
-0.018472
-0.015602
-0.0085862
0.014375
0.024899
0.04531
0.02458
-0.0044404
-0.0028458
-0.011456
-0.027083
-0.045899
-0.055466
-0.082892
-0.06886
-0.019429
-0.018791
-0.049088
-0.031229
-0.016559
-0.0069916
0.017883
0.040526
-0.016878
-0.022937
0.0051269
-0.010819
-0.020705
-0.038564
-0.058974
-0.078746
-0.041434
-0.0105
-0.015921
-0.036012
-0.01911
-0.0015702
-0.0053971
0.024899
0.03925
-0.011137
-0.02198
0.0022568
-0.014645
-0.024851
-0.046218
-0.070774
-0.079065
-0.0089051
-0.0018891
-0.027083
-0.031867
-0.016878
0.0054459
0.022348
0.050731
0.027451
-0.0044404
-0.00029452
0.0064026
-0.0073105
-0.017835
-0.032823
-0.059293
-0.055466
0.0057648
0.0092728
-0.020705
-0.0079484
0.0022568
0.013738
0.035423
0.060617
-0.00029452
-0.011775
0.022348
0.0076782
-0.011456
-0.030272
-0.047493
-0.067585
-0.041115
-0.0044404
-0.0047593
-0.026126
-0.012094
0.0035324
0.0041702
0.035423
0.050731
-0.012094
-0.018472
0.013419
-0.0069916
-0.023894
-0.047493
-0.073325
-0.079065
-0.014327
-0.0025269
-0.025488
-0.036331
-0.024213
-0.0041214
0.0028946
0.031596
0.02777
-0.0063538
-0.018153
-0.0073105
-0.022937
-0.029953
-0.04558
-0.073963
-0.075238
-0.0031647
-0.0034836
-0.038564
-0.030272
-0.012732
0.0038513
0.019797
0.045947
-0.0038025
-0.017197
-0.0038025
-0.011775
-0.023256
-0.038245
-0.063439
-0.086719
-0.065352
-0.022618
-0.017197
-0.048769
-0.032823
-0.019748
-0.015283
0.014694
0.031596
-0.032504
-0.029315
-0.0031647
-0.024851
-0.032504
-0.058974
-0.078746
-0.085443
-0.035694
-0.015283
-0.023575
-0.035694
-0.036331
-0.010181
-0.005716
0.027451
0.020754
-0.020386
-0.024532
-0.0073105
-0.028996
-0.037288
-0.051001
-0.082892
-0.087038
-0.015283
-0.005716
-0.035375
-0.033142
-0.024532
-0.0038025
0.011186
0.041483
0.0038513
-0.012094
-0.0060349
-0.016878
-0.036969
-0.053234
-0.066309
-0.093416
-0.074919
-0.026126
-0.032186
-0.062163
-0.043028
-0.024851
-0.018791
0.0019378
0.026813
-0.039839
-0.039839
-0.010819
-0.023575
-0.034099
-0.06025
-0.080341
-0.090227
-0.046218
-0.019748
-0.03091
-0.045261
-0.028996
-0.0060349
-0.0079484
0.023305
0.034148
-0.01337
-0.021024
0.00098112
-0.023256
-0.032823
-0.051639
-0.070136
-0.076514
-0.0076295
-0.0041214
-0.025807
-0.026445
-0.01624
0.0064026
0.023624
0.047223
0.022348
-0.0041214
-0.0012513
-0.0073105
-0.015602
-0.024213
-0.040158
-0.076195
-0.066628
-0.005716
-0.0044404
-0.040796
-0.029315
-0.012094
2.4388e-05
0.023305
0.044353
-0.018472
-0.026764
2.4388e-05
-0.009224
-0.023575
-0.047812
-0.070136
-0.083211
-0.047493
-0.013689
-0.022937
-0.039202
-0.022937
-0.0079484
-0.0050782
0.031596
0.041164
-0.014008
-0.019429
0.0022568
-0.017197
-0.020705
-0.045261
-0.075557
-0.081298
-0.015283
-0.0095429
-0.037607
-0.041115
-0.026764
-0.0047593
0.0073593
0.032872
0.014056
-0.020386
-0.016878
-0.017516
-0.031229
-0.038564
-0.050363
-0.079703
-0.081617
-0.017835
-0.011456
-0.041434
-0.03091
-0.022937
-0.0069916
0.015332
0.044991
-0.0089051
-0.01624
-0.0041214
-0.010819
-0.023256
-0.039202
-0.055466
-0.076514
-0.05419
-0.012094
-0.009224
-0.034099
-0.01624
0.0019378
0.0016189
0.030002
0.052326
-0.012413
-0.013051
0.01597
-0.0034836
-0.012094
-0.037288
-0.061844
-0.072049
-0.014008
0.00066221
-0.017516
-0.028678
-0.0069916
0.008316
0.010548
0.036699
0.035423
-0.0047593
-0.010181
0.0035324
-0.020386
-0.03378
-0.045899
-0.070774
-0.077152
-0.0105
-0.0082673
-0.042072
-0.037288
-0.024851
-0.005716
0.014056
0.035423
-0.0060349
-0.023894
-0.0089051
-0.013051
-0.023894
-0.03952
-0.051001
-0.081617
-0.066309
-0.018472
-0.010819
-0.040477
-0.023575
-0.010819
-0.0034836
0.020116
0.040845
-0.029315
-0.03091
-0.00061343
-0.019748
-0.030591
-0.060887
-0.084487
-0.087676
-0.04271
-0.021661
-0.032504
-0.047493
-0.032823
-0.011137
-0.0069916
0.028088
0.024262
-0.02198
-0.02804
-0.0053971
-0.022937
-0.03378
-0.052596
-0.076833
-0.083849
-0.010819
-0.0069916
-0.035375
-0.029953
-0.017516
0.0079971
0.021391
0.053282
0.020754
-0.0047593
0.0035324
-0.002208
-0.012094
-0.015921
-0.032823
-0.06886
-0.06025
-0.0041214
-0.00093234
-0.033461
-0.022299
-0.011137
-0.0015702
0.019478
0.041802
-0.022299
-0.030591
-0.0034836
-0.026126
-0.038883
-0.062482
-0.080022
-0.097562
-0.055466
-0.026764
-0.032823
-0.055785
-0.037607
-0.020067
-0.022299
0.014694
0.02458
-0.029634
-0.038883
-0.011775
-0.027721
-0.040158
-0.065352
-0.084487
-0.09246
-0.02198
-0.01624
-0.043985
-0.043028
-0.031229
-0.0089051
0.0054459
0.034148
0.008316
-0.022618
-0.015921
-0.013051
-0.035056
-0.051639
-0.059612
-0.085762
-0.080979
-0.020386
-0.018791
-0.050682
-0.037288
-0.025807
-0.011775
0.016289
0.042758
-0.017835
-0.024851
2.4388e-05
-0.010819
-0.022299
-0.040477
-0.058974
-0.074919
-0.047493
-0.011456
-0.015283
-0.036331
-0.021024
-0.0018891
-0.0018891
0.028407
0.038294
-0.019748
-0.022937
0.0032135
-0.020386
-0.035375
-0.053234
-0.073325
-0.082573
-0.019748
-0.0066727
-0.025807
-0.031867
-0.01911
0.0019378
0.010867
0.040207
0.029683
-0.0012513
-0.0012513
0.0076782
-0.01337
-0.034418
-0.044304
-0.075557
-0.075238
-0.0047593
-0.0041214
-0.03952
-0.035375
-0.028359
-0.014008
0.011824
0.037656
-0.01624
-0.032823
-0.014327
-0.020705
-0.036331
-0.057698
-0.067903
-0.091822
-0.070136
-0.025807
-0.022299
-0.051958
-0.033461
-0.0085862
-0.0069916
0.01884
0.035742
-0.023894
-0.023575
0.0044891
-0.014008
-0.027083
-0.046218
-0.067585
-0.076514
-0.024213
-0.0076295
-0.02198
-0.031548
-0.014964
0.0057648
0.0041702
0.035104
0.030002
-0.0085862
-0.014327
0.0032135
-0.015602
-0.031867
-0.047493
-0.071093
-0.081298
-0.009224
-0.0050782
-0.035694
-0.031867
-0.019748
0.004808
0.022667
0.050093
0.0060837
-0.015921
-0.0041214
-0.0098618
-0.026126
-0.043347
-0.055466
-0.08066
-0.065671
-0.020705
-0.020067
-0.052596
-0.034099
-0.01624
-0.011137
0.013738
0.037337
-0.027402
-0.028359
0.00066221
-0.018472
-0.029634
-0.047812
-0.071093
-0.084168
-0.041753
-0.015921
-0.022937
-0.043985
-0.033142
-0.0073105
-0.0066727
0.024899
0.029045
-0.021343
-0.02804
-0.0047593
-0.026445
-0.038245
-0.052915
-0.082254
-0.09246
-0.014645
-0.011775
-0.038245
-0.034418
-0.025488
2.4388e-05
0.011186
0.035742
0.010548
-0.017197
-0.012094
-0.0095429
-0.024532
-0.03378
-0.051639
-0.07779
-0.068222
-0.010819
-0.012413
-0.038564
-0.018791
-0.0082673
-0.00061343
0.025218
0.051369
-0.010181
-0.014645
0.0092728
-0.0034836
-0.01624
-0.036969
-0.057698
-0.06886
-0.035056
-0.0041214
-0.011456
-0.025807
-0.0073105
0.0044891
0.0035324
0.042121
0.049774
-0.0060349
-0.01337
0.011505
-0.012094
-0.023575
-0.051958
-0.070774
-0.076195
-0.011456
-0.010181
-0.035694
-0.038883
-0.032504
-0.0060349
0.01023
0.038612
0.0070404
-0.019748
-0.019429
-0.013051
-0.030591
-0.043347
-0.056742
-0.088314
-0.08066
-0.014008
-0.012413
-0.046218
-0.034418
-0.021024
-0.0050782
0.016289
0.044991
-0.014327
-0.022618
0.00098112
-0.0105
-0.022937
-0.047174
-0.06599
-0.086081
-0.061525
-0.022299
-0.020705
-0.046855
-0.028359
-0.014327
-0.01624
0.016608
0.030002
-0.028678
-0.029315
-0.00093234
-0.022937
-0.032823
-0.053871
-0.076833
-0.079065
-0.018791
-0.0105
-0.028678
-0.035694
-0.020705
0.0028946
0.014694
0.034786
0.026813
-0.017835
-0.015283
-0.00093234
-0.020705
-0.037607
-0.055147
-0.084168
-0.08066
-0.010819
-0.011456
-0.043028
-0.03665
-0.022937
-0.0015702
0.01884
0.047542
-0.0031647
-0.027721
-0.0044404
0.0016189
-0.017516
-0.037607
-0.051639
-0.076833
-0.052915
-0.0079484
-0.0044404
-0.03091
-0.013689
0.0028946
0.0095917
0.038931
0.05679
-0.0085862
-0.0085862
0.017883
-0.002208
-0.015921
-0.041115
-0.063439
-0.075876
-0.027721
-0.0018891
-0.021661
-0.038245
-0.022937
-0.0041214
0.0016189
0.035104
0.028726
-0.012732
-0.015921
-0.0012513
-0.020386
-0.027721
-0.044942
-0.070455
-0.074919
-0.010819
-0.0066727
-0.033461
-0.031867
-0.015921
0.0013
0.013419
0.041164
0.00066221
-0.022299
-0.01337
-0.011775
-0.034737
-0.055147
-0.066309
-0.088314
-0.077152
-0.026126
-0.022299
-0.052596
-0.039202
-0.021024
-0.017835
0.011505
0.039888
-0.022299
-0.02804
-0.00093234
-0.014008
-0.027721
-0.04845
-0.070136
-0.082254
-0.039202
-0.012094
-0.020067
-0.03378
-0.018791
-0.0018891
0.00066221
0.032872
0.041483
-0.0044404
-0.012094
0.011824
-0.0098618
-0.024851
-0.046536
-0.069179
-0.07173
2.4388e-05
0.0022568
-0.028359
-0.034737
-0.02198
0.0035324
0.022029
0.050731
0.017246
-0.014008
-0.005716
-0.0028458
-0.015602
-0.027083
-0.039839
-0.065352
-0.057379
0.0032135
0.0099106
-0.023575
-0.012094
-0.0015702
0.012781
0.040526
0.06572
-0.0034836
-0.011775
0.008316
-0.0034836
-0.013689
-0.038883
-0.06025
-0.089589
-0.052596
-0.0079484
-0.011775
-0.038883
-0.032823
-0.0095429
-0.00029452
0.029683
0.040207
-0.013689
-0.020386
-0.0025269
-0.022618
-0.031229
-0.041753
-0.072687
-0.082892
-0.020386
-0.015921
-0.036331
-0.033142
-0.02198
-0.00061343
0.010548
0.038612
0.021072
-0.015921
-0.014964
-0.0012513
-0.014964
-0.029315
-0.047174
-0.07779
-0.073963
-0.0089051
-0.0069916
-0.042072
-0.030272
-0.012413
-0.00029452
0.017564
0.046904
-0.011775
-0.019748
-0.0018891
-0.002208
-0.012732
-0.038245
-0.059293
-0.077152
-0.04271
-0.0025269
-0.0041214
-0.025807
-0.011137
0.0076782
-0.00061343
0.033191
0.05679
-0.0105
-0.019748
0.008635
-0.014964
-0.02517
-0.048131
-0.084168
-0.089908
-0.025488
-0.015921
-0.035694
-0.047174
-0.030272
-0.011775
-0.0041214
0.029045
0.022986
-0.018153
-0.021343
-0.0038025
-0.025807
-0.037926
-0.052915
-0.079065
-0.080022
-0.0095429
-0.0060349
-0.034418
-0.033142
-0.023894
0.0016189
0.024262
0.047223
-0.0015702
-0.014008
-0.0028458
-0.010819
-0.023256
-0.039839
-0.052596
-0.07779
-0.059612
-0.015602
-0.005716
-0.038564
-0.02198
-0.0069916
-0.0047593
0.029683
0.054558
-0.012094
-0.0085862
0.019478
-0.0047593
-0.018791
-0.038883
-0.060569
-0.07173
-0.01624
0.0067215
-0.017835
-0.036331
-0.017835
0.0022568
0.0054459
0.034786
0.031596
-0.012413
-0.014645
-0.0025269
-0.028359
-0.038564
-0.055466
-0.079703
-0.082254
-0.011456
-0.015602
-0.043347
-0.032186
-0.021661
-0.005716
0.0092728
0.036699
0.0025757
-0.018791
-0.0063538
-0.0079484
-0.026126
-0.042072
-0.056423
-0.08353
-0.066628
-0.012094
-0.011775
-0.041434
-0.02517
-0.0076295
0.0003433
0.022986
0.046904
-0.018153
-0.020386
0.008635
-0.0050782
-0.02198
-0.050044
-0.073325
-0.079703
-0.037926
-0.015921
-0.024532
-0.035375
-0.018791
-0.0047593
-0.01337
0.028726
0.040526
-0.013051
-0.023575
2.4388e-05
-0.023894
-0.031229
-0.050363
-0.077152
-0.083849
-0.01337
-0.005716
-0.032186
-0.03378
-0.021343
0.0025757
0.019159
0.044353
0.014375
-0.013689
0.0022568
0.0022568
-0.018153
-0.035056
-0.044942
-0.073006
-0.064714
-0.0044404
-0.0060349
-0.042391
-0.026445
-0.014645
-0.0018891
0.023624
0.04818
-0.014645
-0.022299
0.0003433
-0.0105
-0.023894
-0.043347
-0.059931
-0.078746
-0.041115
-0.0095429
-0.0098618
-0.03091
-0.012732
0.0022568
0.0032135
0.040207
0.05105
-0.0066727
-0.010181
0.0131
-0.0076295
-0.022618
-0.039839
-0.069179
-0.073963
-0.0073105
0.0013
-0.026764
-0.038883
-0.023256
0.0032135
0.012781
0.038294
0.014375
-0.0076295
-0.0047593
-0.00029452
-0.024213
-0.043028
-0.050682
-0.075238
-0.071411
-0.0085862
-0.0034836
-0.031229
-0.017516
-0.0076295
0.0051269
0.022348
0.052645
-0.0012513
-0.012413
0.0073593
-0.00093234
-0.017835
-0.040158
-0.057698
-0.075557
-0.051001
-0.012413
-0.010819
-0.036331
-0.021024
-0.005716
-0.00061343
0.031596
0.055196
-0.012413
-0.015283
0.010548
-0.012094
-0.019429
-0.038245
-0.06599
-0.079065
-0.020705
-0.0076295
-0.023256
-0.032504
-0.01624
0.0067215
0.011505
0.030959
0.022348
-0.0085862
-0.0098618
0.00098112
-0.02517
-0.036331
-0.047493
-0.074601
-0.08066
-0.014327
-0.0082673
-0.038883
-0.03091
-0.017197
0.0019378
0.018202
0.044034
-0.0047593
-0.020067
-0.0038025
-0.0063538
-0.023894
-0.041753
-0.057379
-0.080341
-0.063439
-0.012094
-0.0079484
-0.036331
-0.023256
-0.0085862
-0.0012513
0.032553
0.048818
-0.012413
-0.010819
0.016289
-0.0012513
-0.010819
-0.03952
-0.060569
-0.077152
-0.021661
2.4388e-05
-0.020067
-0.034418
-0.011137
0.0095917
0.01023
0.037018
0.041802
-0.0015702
-0.0066727
0.014694
-0.00029452
-0.01624
-0.031548
-0.061206
-0.061844
0.012143
0.017564
-0.011775
-0.016878
-0.012094
0.017246
0.039569
0.052326
0.012781
-0.016878
-0.0050782
-0.002208
-0.022937
-0.04845
-0.054828
-0.081298
-0.076833
-0.029953
-0.02198
-0.057061
-0.041115
-0.021024
-0.0085862
0.0131
0.036699
-0.026764
-0.033142
-0.0031647
-0.018153
-0.023256
-0.051958
-0.073325
-0.075238
-0.031867
0.0035324
-0.005716
-0.025488
-0.0098618
0.01597
0.020116
0.058385
0.063169
0.013738
0.0076782
0.034786
0.013738
0.0028946
-0.016559
-0.043985
-0.050363
0.02171
0.026175
-0.00061343
-0.00029452
0.010548
0.031596
0.047223
0.074649
0.048818
0.020754
0.026175
0.022348
0.00066221
-0.01337
-0.022618
-0.051639
-0.046218
0.0070404
0.011186
-0.024213
-0.011137
0.0076782
0.017564
0.040526
0.068909
0.0035324
-0.0038025
0.018202
0.0051269
-0.0063538
-0.027083
-0.047174
-0.066309
-0.043028
-0.0076295
2.4388e-05
-0.024213
-0.019748
2.4388e-05
-0.00029452
0.032553
0.045629
-0.0105
-0.011456
0.019159
-0.0025269
-0.017835
-0.040477
-0.053552
-0.057698
0.0076782
0.015651
-0.0047593
-0.0098618
0.0028946
0.025856
0.032872
0.052007
0.037337
-0.002208
-0.019748
-0.0034836
-0.021661
-0.050682
-0.070136
-0.10011
-0.096605
-0.035694
-0.03378
-0.060569
-0.047174
-0.036331
-0.023256
0.00098112
0.03351
-0.013689
-0.015283
0.0089539
0.0013
-0.0105
-0.024851
-0.041434
-0.061206
-0.036012
0.0057648
-0.0050782
-0.033142
-0.012732
0.0013
-0.0044404
0.018202
0.024899
-0.030591
-0.048131
-0.024851
-0.055785
-0.080022
-0.10968
-0.11989
-0.11797
-0.059612
-0.033142
-0.046218
-0.06886
-0.052915
-0.027721
-0.0025269
0.040207
0.043077
0.0089539
0.01023
0.031278
0.017246
0.00098112
-0.01624
-0.043985
-0.04271
0.035104
0.039569
0.00066221
0.0054459
0.012781
0.038294
0.056153
0.08326
0.032234
0.014694
0.031915
0.025218
0.0060837
-0.0105
-0.027721
-0.053871
-0.037607
0.0095917
0.0131
-0.017516
-0.0050782
0.0099106
0.015332
0.044353
0.065401
-0.0015702
-0.0060349
0.022029
0.0028946
-0.009224
-0.033461
-0.059293
-0.070455
-0.020386
0.0019378
-0.0105
-0.02517
-0.011775
0.011505
0.012781
0.042121
0.047223
0.0013
-0.0034836
0.016289
-0.0076295
-0.017516
-0.034418
-0.061844
-0.068222
0.0038513
0.013419
-0.02198
-0.021024
-0.0060349
0.016289
0.035423
0.059979
0.023305
-0.00029452
0.012143
0.012462
-0.0050782
-0.023894
-0.037288
-0.065033
-0.05132
0.0041702
0.014056
-0.015283
-0.0069916
0.0073593
0.022029
0.050093
0.076882
0.0079971
0.0013
0.028726
0.015013
0.0016189
-0.02198
-0.039202
-0.055147
-0.015921
0.0041702
-0.011137
-0.022937
-0.010819
0.011824
0.016608
0.050093
0.04818
-0.0060349
-0.014008
0.01597
-0.010819
-0.019748
-0.037926
-0.066309
-0.074601
-0.0034836
0.00098112
-0.024851
-0.028678
-0.016878
0.0054459
0.01884
0.048818
0.023305
-0.005716
-0.00061343
0.0057648
-0.014008
-0.029634
-0.042391
-0.073006
-0.067903
-0.0050782
0.0028946
-0.029315
-0.020067
-0.0089051
0.0070404
0.034786
0.056471
-0.0031647
-0.011456
0.011186
-0.00029452
-0.014964
-0.03665
-0.051639
-0.068541
-0.039202
-0.0060349
-0.0095429
-0.037288
-0.014964
0.0079971
0.0025757
0.03638
0.052645
-0.010181
-0.018153
0.01023
-0.0076295
-0.021343
-0.043028
-0.069817
-0.074601
-0.010819
-0.0025269
-0.026764
-0.029634
-0.012732
0.0131
0.021072
0.046585
0.030002
0.0044891
0.00098112
0.008635
-0.014008
-0.022937
-0.036969
-0.06599
-0.066628
-0.0028458
0.0019378
-0.027402
-0.020386
-0.0082673
0.0131
0.030321
0.059023
0.0057648
-0.0015702
0.019797
0.014694
-0.0041214
-0.022618
-0.037607
-0.058974
-0.029634
0.0057648
0.01023
-0.01337
-0.0028458
0.0044891
0.010867
0.047861
0.070822
0.0019378
-0.010819
0.018521
-0.0031647
-0.018472
-0.037288
-0.058974
-0.070455
-0.019429
-0.005716
-0.017197
-0.02517
-0.013689
0.0070404
0.0099106
0.039569
0.037018
0.0019378
-0.0066727
0.01023
-0.0044404
-0.021661
-0.043985
-0.078427
-0.076195
0.0057648
0.0092728
-0.02517
-0.026445
-0.015602
0.0070404
0.026813
0.055515
0.012143
-0.0025269
0.0067215
0.0057648
-0.018153
-0.037607
-0.049088
-0.071411
-0.054828
-0.0079484
0.00098112
-0.032504
-0.017197
-0.0028458
-0.0028458
0.031915
0.056471
-0.009224
-0.014964
0.011505
-0.0034836
-0.013051
-0.036012
-0.064714
-0.075557
-0.022937
0.0028946
-0.010181
-0.02517
-0.012094
0.014694
0.021391
0.050731
0.049137
0.011824
0.01023
0.033829
0.0099106
-0.0034836
-0.014645
-0.047493
-0.052915
0.017883
0.02458
0.0032135
0.00098112
0.0076782
0.02458
0.037337
0.064444
0.028088
0.0079971
0.017246
0.018202
-0.0034836
-0.026126
-0.046855
-0.076195
-0.063758
-0.005716
0.0032135
-0.028996
-0.01911
-0.0095429
-0.00061343
0.02777
0.055196
-0.010181
-0.01337
0.011186
-0.0073105
-0.018472
-0.048131
-0.066309
-0.077471
-0.036331
-0.0098618
-0.01624
-0.035694
-0.020386
-0.0028458
-0.00029452
0.03351
0.041802
-0.0089051
-0.012732
0.014694
-0.009224
-0.02198
-0.039839
-0.066947
-0.072049
-0.0031647
0.0060837
-0.023256
-0.024851
-0.01624
0.011824
0.030959
0.056471
0.031915
-0.00061343
2.4388e-05
0.0079971
-0.01337
-0.026126
-0.03665
-0.065033
-0.06312
0.0022568
0.0064026
-0.027083
-0.014008
-0.0018891
0.0067215
0.026494
0.058704
0.0019378
-0.0073105
0.010867
0.00066221
-0.014964
-0.035375
-0.058655
-0.078109
-0.048131
-0.012094
-0.013689
-0.034099
-0.018791
-0.002208
-0.0031647
0.032872
0.047542
-0.011456
-0.015283
0.017564
-0.002208
-0.015921
-0.038245
-0.066628
-0.07173
0.0022568
0.012143
-0.0089051
-0.016878
-0.0076295
0.018202
0.028726
0.059979
0.041164
0.0019378
-0.0015702
0.0079971
-0.0085862
-0.019429
-0.03378
-0.068222
-0.07173
-0.0034836
0.0016189
-0.032823
-0.025488
-0.009224
0.0054459
0.030002
0.059979
0.00066221
-0.0095429
0.012781
0.0038513
-0.013689
-0.032186
-0.049407
-0.072368
-0.051958
-0.0069916
-0.010181
-0.032823
-0.014327
0.0028946
0.0044891
0.031596
0.052645
-0.010181
-0.013689
0.014375
-0.0089051
-0.020386
-0.040796
-0.06599
-0.073963
-0.018791
-0.00061343
-0.017835
-0.027721
-0.013051
0.011186
0.015332
0.044353
0.044034
0.0060837
0.004808
0.019797
-0.0031647
-0.014964
-0.032823
-0.055466
-0.05419
0.018202
0.015332
-0.026126
-0.022299
0.0092728
0.035423
0.046904
0.065082
0.022348
0.0092728
0.025218
0.015013
2.4388e-05
-0.017516
-0.033142
-0.06312
-0.04558
0.004808
0.0095917
-0.026126
-0.012413
0.00066221
0.0041702
0.035423
0.055196
-0.014964
-0.022299
0.0076782
-0.0089051
-0.02198
-0.045261
-0.075557
-0.088314
-0.039839
-0.011456
-0.02198
-0.038883
-0.026445
-0.0034836
-0.0015702
0.031278
0.040526
-0.005716
-0.014008
0.008635
-0.017516
-0.02517
-0.040158
-0.067903
-0.073644
-0.0015702
0.0016189
-0.027083
-0.024532
-0.013051
0.01023
0.028088
0.055196
0.02458
-0.0034836
0.0057648
0.008635
-0.010181
-0.019748
-0.029315
-0.062482
-0.049726
0.0095917
0.0131
-0.021343
-0.0038025
0.012781
0.025856
0.052645
0.07752
0.0032135
-0.00061343
0.02458
0.0070404
-0.0085862
-0.03091
-0.050044
-0.067266
-0.029953
-0.0041214
-0.014327
-0.033461
-0.020386
0.0032135
0.0016189
0.035742
0.044353
-0.0060349
-0.010819
0.0131
-0.0085862
-0.019429
-0.037926
-0.064395
-0.073325
-0.00093234
0.0076782
-0.018153
-0.021024
-0.009224
0.013419
0.01884
0.053282
0.039888
0.0051269
0.0073593
0.008635
-0.013689
-0.025807
-0.039202
-0.070136
-0.058017
0.0041702
0.0054459
-0.029953
-0.015921
-0.0060349
0.0041702
0.027132
0.064763
-0.00061343
-0.012094
0.0089539
0.0032135
-0.012094
-0.041753
-0.062801
-0.077152
-0.041115
-0.0047593
-0.0073105
-0.033142
-0.017197
0.0019378
0.0038513
0.036699
0.046585
-0.010181
-0.015283
0.013419
-0.0063538
-0.023894
-0.042391
-0.066628
-0.07779
-0.012094
-0.00061343
-0.019429
-0.027721
-0.013689
0.014694
0.031278
0.060936
0.047542
0.016608
0.0131
0.024899
0.0076782
-0.010181
-0.021024
-0.050363
-0.049407
0.024262
0.027451
-0.01337
-0.013689
2.4388e-05
0.023943
0.042121
0.059023
0.0038513
-0.0060349
0.016289
0.0060837
-0.011456
-0.035694
-0.053552
-0.072049
-0.051639
-0.009224
0.00066221
-0.026445
-0.010819
0.0032135
0.00098112
0.029045
0.052645
-0.0031647
-0.0095429
0.015651
-0.0047593
-0.018472
-0.043028
-0.069498
-0.078109
-0.023894
-0.012094
-0.023894
-0.032186
-0.015921
0.0060837
0.011824
0.036061
0.034467
-0.0034836
-0.0044404
0.015651
-0.0095429
-0.026126
-0.03665
-0.065352
-0.072368
-0.0044404
0.0051269
-0.020067
-0.015283
-0.0031647
0.014375
0.030959
0.061893
0.018521
0.0025757
0.022348
0.018202
-0.00061343
-0.014327
-0.029953
-0.054828
-0.038883
0.014375
0.020754
-0.0098618
0.0032135
0.019797
0.028407
0.056471
0.07752
0.0092728
0.0016189
0.028726
0.01597
0.0073593
-0.014645
-0.048769
-0.070774
-0.020067
0.010867
0.0060837
-0.01337
-0.00061343
0.022986
0.023624
0.060617
0.061893
0.013419
0.0067215
0.034148
0.0131
0.00066221
-0.02198
-0.051958
-0.057698
0.015651
0.020754
-0.0047593
-0.0089051
0.0076782
0.032872
0.044353
0.067952
0.034148
0.013738
0.022667
0.023624
0.0057648
-0.013689
-0.028678
-0.058655
-0.053552
0.0025757
0.0089539
-0.028678
-0.017516
-0.0031647
2.4388e-05
0.020435
0.045947
-0.01911
-0.023575
0.00098112
-0.012094
-0.02804
-0.050682
-0.072368
-0.089908
-0.050682
-0.017516
-0.018472
-0.040158
-0.02804
-0.0044404
0.0022568
0.032872
0.044353
-0.009224
-0.014645
0.008635
-0.012413
-0.023575
-0.044942
-0.069817
-0.078109
-0.012094
0.0019378
-0.024532
-0.034737
-0.022299
-0.0012513
0.017246
0.051369
0.030321
-0.010181
-0.005716
0.0044891
-0.015921
-0.03091
-0.03952
-0.070455
-0.060569
-0.0018891
0.0016189
-0.032504
-0.017197
-0.0041214
0.0092728
0.031596
0.053601
-0.0105
-0.012094
0.014694
0.0025757
-0.015921
-0.038564
-0.064077
-0.0864
-0.051958
-0.0089051
-0.012094
-0.032823
-0.018472
-0.00029452
-0.00029452
0.032234
0.049774
-0.0085862
-0.012094
0.020435
-0.0069916
-0.020705
-0.039839
-0.063439
-0.073006
-0.0095429
-0.00061343
-0.012413
-0.019748
-0.0076295
0.014056
0.023305
0.057747
0.047223
0.0079971
0.01023
0.01884
0.0051269
-0.0038025
-0.022299
-0.054828
-0.054828
0.017246
0.018521
-0.013689
-0.0082673
-0.00061343
0.020435
0.047861
0.073693
0.017883
-0.0028458
0.0089539
0.0070404
-0.012732
-0.029634
-0.047812
-0.072368
-0.050363
-0.0069916
-0.0095429
-0.03952
-0.02198
-0.005716
-0.0034836
0.020435
0.044991
-0.016559
-0.019429
0.0064026
-0.013051
-0.027402
-0.053552
-0.078746
-0.082254
-0.021343
0.0013
-0.016878
-0.029315
-0.014645
0.010867
0.018202
0.051688
0.050412
0.0099106
0.0003433
0.017564
2.4388e-05
-0.010181
-0.02517
-0.059293
-0.061525
0.014056
0.011505
-0.029634
-0.022937
-0.0089051
0.012781
0.029364
0.055515
0.0099106
-0.0082673
0.0028946
-0.00093234
-0.018153
-0.036331
-0.053234
-0.08066
-0.062801
-0.010819
-0.0018891
-0.034099
-0.018153
-0.0015702
0.0022568
0.031278
0.061255
-0.0066727
-0.0073105
0.020116
0.0028946
-0.0069916
-0.024851
-0.050363
-0.062163
-0.014964
0.0079971
0.0035324
-0.011137
0.004808
0.025856
0.025218
0.063487
0.059023
0.01023
0.0057648
0.024899
-0.00029452
-0.012094
-0.035056
-0.060569
-0.074282
-0.0041214
0.0013
-0.021661
-0.020705
-0.017197
0.00098112
0.017564
0.058704
0.026813
-0.0053971
0.0032135
0.0038513
-0.01337
-0.031229
-0.04845
-0.074601
-0.058655
-0.0025269
-0.0050782
-0.035056
-0.023256
-0.0082673
0.0019378
0.02458
0.055834
-0.013051
-0.016559
0.01023
-0.0038025
-0.024851
-0.044942
-0.065671
-0.075876
-0.037926
-0.0098618
-0.01624
-0.031548
-0.018153
0.0003433
0.0051269
0.041164
0.049137
-0.0044404
-0.012094
0.017883
-0.0015702
-0.014008
-0.036331
-0.063758
-0.071411
-0.00061343
0.0022568
-0.02198
-0.020386
-0.0095429
0.013419
0.024899
0.054877
0.030002
-0.0025269
0.0013
0.0054459
-0.012413
-0.023256
-0.035375
-0.064077
-0.065352
-0.002208
0.008316
-0.02517
-0.016878
-0.0012513
0.014056
0.037018
0.06572
0.004808
-0.0015702
0.015013
0.0038513
-0.011775
-0.036331
-0.055147
-0.075557
-0.043985
-0.009224
-0.009224
-0.036969
-0.018791
-0.002208
0.0035324
0.037018
0.05392
-0.0044404
-0.016878
0.012143
-0.0012513
-0.0098618
-0.036331
-0.062163
-0.072049
-0.011775
-0.00061343
-0.014964
-0.028678
-0.01624
-0.0012513
0.0054459
0.04531
0.027132
-0.017835
-0.016878
-0.0047593
-0.026764
-0.041115
-0.048131
-0.076833
-0.073325
-0.0098618
-0.005716
-0.03665
-0.025807
-0.0082673
0.014694
0.032234
0.067314
0.013419
0.0003433
0.02171
0.011505
-0.0082673
-0.026445
-0.043666
-0.064077
-0.044623
2.4388e-05
0.0013
-0.024532
-0.016878
0.0025757
0.0044891
0.037337
0.060298
-0.011775
-0.019748
0.010548
-0.011137
-0.018472
-0.043028
-0.061525
-0.071411
-0.020386
-0.014327
-0.027083
-0.036331
-0.017835
-0.00061343
-0.00061343
0.028726
0.017246
-0.029315
-0.040158
-0.021343
-0.044942
-0.056742
-0.075238
-0.11383
-0.10426
-0.028678
-0.027083
-0.056742
-0.046218
-0.023575
0.0092728
0.032872
0.074649
0.028726
0.012143
0.028088
0.035104
0.031278
0.020116
0.0016189
-0.029953
-0.011137
0.046266
0.052963
0.020435
0.032553
0.049455
0.055515
0.08039
0.099524
0.03638
0.030002
0.054558
0.03351
0.020435
-0.0031647
-0.034418
-0.053234
-0.0038025
0.018202
0.0079971
-0.012732
-0.0015702
0.020116
0.02458
0.058385
0.059661
0.011505
0.0044891
0.027132
0.00098112
-0.009224
-0.024851
-0.054828
-0.059612
0.021072
0.028088
-0.0012513
-0.00029452
0.010548
0.037337
0.053601
0.074012
0.045947
0.016608
0.026175
0.028726
0.0041702
-0.024532
-0.03952
-0.071093
-0.058974
0.0070404
-0.0073105
-0.040477
-0.03665
-0.025807
-0.020386
0.0073593
0.031596
-0.051958
-0.049407
-0.028359
-0.046855
-0.063439
-0.091822
-0.12403
-0.14667
-0.10522
-0.066947
-0.078109
-0.094054
-0.081298
-0.065352
-0.058336
-0.024532
-0.015921
-0.050363
-0.044304
-0.0050782
-0.038564
-0.048769
-0.065671
-0.08927
-0.089908
-0.0012513
0.020435
0.0089539
0.010867
0.012143
0.032553
0.055834
0.098568
0.085811
0.055196
0.066358
0.074649
0.049774
0.03638
0.017564
-0.0066727
-0.0018891
0.068271
0.069866
0.039888
0.046266
0.055834
0.064763
0.093784
0.12791
0.06285
0.052645
0.073374
0.061255
0.037018
0.01884
-0.00093234
-0.029634
-0.0047593
0.041164
0.037018
0.008316
0.023624
0.039888
0.035742
0.072098
0.078157
0.015013
0.016289
0.037975
0.0051269
-0.012094
-0.039839
-0.080341
-0.1033
-0.04845
-0.059612
-0.09533
-0.11957
-0.10171
-0.1049
-0.13487
-0.10936
-0.11383
-0.16613
-0.18494
-0.18749
-0.19611
-0.19611
-0.18973
-0.22002
-0.21843
-0.17314
-0.15369
-0.18718
-0.14189
-0.11446
-0.080022
-0.050363
-0.017516
-0.06312
-0.075238
-0.040477
-0.017835
-0.024851
-0.019748
-0.012413
-0.018791
0.033191
0.091233
0.11451
0.087725
0.11037
0.15278
0.18021
0.21816
0.2408
0.17702
0.18308
0.20859
0.18595
0.16937
0.13684
0.10303
0.099524
0.13971
0.15119
0.1429
0.11993
0.12918
0.14481
0.1413
0.17064
0.15757
0.11738
0.10782
0.1126
0.074649
0.064763
0.04531
0.012462
0.00098112
0.066358
0.062531
0.02777
0.033829
0.039888
0.058385
0.069866
0.092508
0.046266
0.022029
0.033829
0.024899
0.0073593
-0.0050782
-0.03091
-0.06312
-0.050044
-0.0015702
0.0028946
-0.035694
-0.021661
-0.00093234
0.01023
0.036699
0.060617
-0.005716
-0.009224
0.020754
0.0073593
-0.012413
-0.046855
-0.075557
-0.094054
-0.036331
-0.027083
-0.036969
-0.059612
-0.051958
-0.036969
-0.023575
-0.005716
-0.0044404
-0.034737
-0.038564
-0.020386
-0.04558
-0.044623
-0.047812
-0.08066
-0.0864
-0.020705
-0.01911
-0.044942
-0.036012
-0.026126
-0.0069916
0.0041702
0.0131
-0.035375
-0.060887
-0.050682
-0.080341
-0.089908
-0.10872
-0.12626
-0.14986
-0.12882
-0.047812
-0.054509
-0.097243
-0.062801
-0.032823
-0.026445
0.011824
0.055196
0.0028946
0.0003433
0.026175
-0.0050782
-0.02517
-0.032504
-0.041434
-0.061844
-0.041753
0.0041702
0.0070404
-0.022937
-0.021024
-0.0038025
-0.010181
0.037975
0.052007
-0.0018891
-0.017835
0.023305
0.014694
-0.015921
-0.04558
-0.078746
-0.081617
-0.0018891
0.013419
-0.0028458
-0.0079484
0.0079971
0.041483
0.084536
0.13173
0.11005
0.091552
0.088362
0.10845
0.084854
0.097292
0.093784
0.068271
0.065401
0.11993
0.1177
0.076563
0.086449
0.10495
0.10909
0.11101
0.12185
0.042758
0.040845
0.050412
0.012781
-0.013689
-0.041115
-0.093097
-0.11255
-0.097243
-0.058655
-0.055147
-0.076833
-0.079065
-0.058017
-0.073325
-0.044942
-0.005716
-0.047174
-0.043666
-0.023575
-0.059293
-0.076514
-0.062801
-0.10043
-0.088314
-0.06025
-0.062801
-0.07779
-0.076833
-0.054509
-0.050044
-0.030591
0.011186
0.038294
-0.00029452
-0.0082673
-0.0105
-0.031867
-0.011456
0.0064026
-0.0034836
-0.009224
0.069228
0.08039
0.05679
0.053601
0.083579
0.075606
0.09506
0.13365
0.074012
0.035742
0.056153
0.048818
0.041164
0.039888
0.0076782
-0.046536
-0.032823
0.034786
0.054558
0.032872
0.055834
0.081346
0.081984
0.10303
0.14353
0.081984
0.074968
0.10622
0.087725
0.066995
0.046904
0.0025757
-0.023894
0.0013
0.03638
0.0095917
-0.012732
-0.0098618
0.01023
0.0044891
0.026175
0.023943
-0.020067
-0.036969
2.4388e-05
-0.027402
-0.055785
-0.084487
-0.11446
-0.10617
-0.056423
-0.053234
-0.080341
-0.081617
-0.079065
-0.058336
-0.094692
-0.056742
-0.098519
-0.11606
-0.10904
-0.10011
-0.1202
-0.13806
-0.13647
-0.18335
-0.1505
-0.068222
-0.043985
-0.05419
-0.012413
-0.010181
-0.0031647
0.049455
0.085811
0.028726
0.03638
0.064444
0.035104
0.038612
0.015332
-0.02198
-0.031867
0.019478
0.055834
0.025537
-0.0041214
0.010548
0.061574
0.083579
0.11515
0.091233
0.056471
0.064763
0.088681
0.092508
0.094422
0.069547
0.039888
0.033191
0.1177
0.11069
0.081346
0.078157
0.089638
0.099205
0.10495
0.11292
0.058066
0.01597
0.014694
0.025218
-0.01624
-0.059931
-0.10713
-0.14604
-0.13392
-0.082254
-0.072687
-0.12052
-0.13009
-0.097562
-0.11096
-0.056104
-0.031548
-0.13583
-0.1167
-0.075238
-0.11925
-0.14317
-0.15847
-0.17984
-0.2162
-0.15178
-0.12212
-0.12339
-0.14636
-0.10936
-0.06312
-0.073325
0.0038513
0.043396
0.0131
0.026494
0.09187
0.084854
0.10335
0.098249
0.091233
0.09793
0.17287
0.19073
0.18148
0.18117
0.17734
0.18914
0.20763
0.23474
0.20349
0.16331
0.15087
0.15087
0.13716
0.10048
0.069866
0.017246
0.024899
0.075287
0.069228
0.014694
0.0079971
0.020754
0.0060837
0.022029
0.068271
-0.049088
-0.091184
-0.057061
-0.071411
-0.084806
-0.12945
-0.17729
-0.22289
-0.20631
-0.1741
-0.19419
-0.19898
-0.16517
-0.12052
-0.15815
-0.15401
-0.10872
-0.13838
-0.15528
-0.12307
-0.10649
-0.096605
-0.096924
-0.10266
-0.10171
-0.014008
0.011186
0.029045
0.028088
0.055196
0.090276
0.14194
0.16713
0.16139
0.12695
0.13939
0.16171
0.14321
0.13556
0.12185
0.08613
0.07752
0.14481
0.14353
0.10622
0.097611
0.10718
0.1311
0.14832
0.15725
0.10208
0.076882
0.089
0.081028
0.060617
0.041164
0.02777
0.0060837
-0.015283
-0.0012513
0.016289
0.013738
0.038612
0.028407
0.015013
0.035742
0.050412
-0.016878
-0.043985
-0.031229
-0.064395
-0.091184
-0.12499
-0.16964
-0.19196
-0.14349
-0.11765
-0.16645
-0.19993
-0.20153
-0.13487
-0.10681
-0.081617
-0.10617
-0.14827
-0.11638
-0.076195
-0.085762
-0.097881
-0.10872
-0.12307
-0.091503
-0.0095429
-0.016878
-0.077152
-0.097562
-0.080341
-0.049088
-0.027083
-0.012413
-0.058974
-0.086719
-0.058017
-0.077471
-0.11638
-0.091503
-0.088314
-0.094054
-0.046855
0.027132
0.032553
0.011505
0.022986
0.079433
0.12472
0.15533
0.18499
0.11419
0.11419
0.13078
0.10016
0.069866
0.03351
0.008635
-0.010819
0.011824
0.012781
-0.00061343
0.008635
0.019159
0.015332
-0.00029452
0.056153
0.064444
0.01597
0.020435
0.045947
0.02458
0.0028946
0.011186
-0.016559
-0.026764
0.030959
0.026813
-0.013051
-0.027083
-0.022618
0.004808
0.01884
0.03638
-0.022299
-0.056104
-0.052596
-0.041115
-0.053234
-0.068222
-0.094692
-0.10458
-0.076833
-0.023256
-0.02517
-0.050044
-0.0076295
0.021072
0.029045
0.056471
0.067314
-0.0098618
-0.010181
-0.00029452
-0.019748
-0.049407
-0.080979
-0.12403
-0.14476
-0.11351
-0.082892
-0.086719
-0.092141
-0.084487
-0.065352
-0.060569
-0.014964
0.017564
-0.01911
-0.017197
0.026494
0.028088
0.011505
-0.0069916
-0.036969
-0.050363
0.026175
0.045629
0.017246
-0.0095429
-0.0047593
0.008635
0.0131
0.040207
0.015013
-0.014008
0.0022568
0.034148
0.004808
-0.024213
-0.040477
-0.030591
-0.016559
0.058704
0.066039
0.023943
0.059023
0.083898
0.091233
0.1177
0.1464
0.052963
0.036061
0.075287
0.047542
0.026813
-0.0038025
-0.03952
-0.085762
-0.06599
-0.030591
-0.027721
-0.033461
-0.041753
-0.053234
-0.024851
0.01023
0.032872
-0.032823
-0.055785
-0.012732
-0.024213
-0.032504
-0.044942
-0.075238
-0.087357
-0.0105
0.0038513
-0.018153
-0.023575
-0.021024
-0.020386
-0.025488
0.011505
-0.00061343
-0.037288
-0.041434
-0.021024
-0.025807
-0.065671
-0.099794
-0.10107
-0.11032
-0.01337
-0.016878
-0.020705
-0.010819
-0.014645
0.022348
0.049774
0.08613
0.020754
0.0057648
0.020754
0.024262
0.0038513
-0.01337
-0.035056
-0.059293
-0.043028
-0.0012513
-0.00093234
-0.047174
-0.032504
-0.014008
-0.0060349
0.055196
0.08039
-0.019748
-0.049407
-0.0034836
-0.0050782
-0.04271
-0.095011
-0.12658
-0.12435
-0.063439
-0.067903
-0.096286
-0.11287
-0.09533
-0.076833
-0.069179
-0.040477
-0.022937
-0.061206
-0.081935
-0.056423
-0.051958
-0.059293
-0.086081
-0.092778
-0.090546
-0.0031647
0.011186
-0.0073105
0.011186
0.025537
0.054877
0.088681
0.10813
0.049774
0.047542
0.062212
0.051688
0.029045
0.023624
0.0028946
-0.034418
-0.020386
0.033829
0.040845
0.016608
0.017564
0.033829
0.037975
0.06572
0.096016
0.051369
0.032553
0.056471
0.047223
0.039888
0.008316
-0.013689
-0.016559
0.030959
0.03638
0.0095917
-0.013689
0.012781
0.029683
0.023305
0.051688
0.040207
-0.019429
-0.054509
-0.033142
-0.030591
-0.048769
-0.064714
-0.10872
-0.11702
-0.051958
-0.058655
-0.074282
-0.073644
-0.055785
-0.027083
0.016608
0.049455
0.011186
-0.014327
-0.014964
-0.0044404
-0.017197
-0.052915
-0.057698
-0.099794
-0.087676
-0.014008
-0.0073105
-0.060887
-0.040477
-0.042391
-0.043347
0.0022568
0.032872
-0.025488
-0.039202
-0.0095429
-0.010819
-0.018153
-0.039839
-0.054509
-0.055466
-0.014645
0.028407
0.025856
0.0013
0.019478
0.038931
0.040526
0.081665
0.086768
0.02458
0.0092728
0.029683
-0.00093234
-0.012094
-0.047174
-0.092141
-0.066309
0.026175
0.017246
-0.046536
-0.053234
-0.022299
0.0060837
0.030321
0.067952
0.046585
0.020754
0.029683
0.035104
0.031278
0.023305
-0.0079484
-0.043666
-0.042072
0.022986
0.027132
0.0057648
0.014694
0.004808
0.0076782
0.037975
0.071779
-0.0012513
-0.02804
-0.030272
-0.0069916
-0.034418
-0.06025
-0.080979
-0.1033
-0.073963
-0.029634
-0.022299
-0.04558
-0.02517
-0.0044404
0.0028946
0.03351
0.05105
-0.017516
-0.03091
-0.00061343
-0.012094
-0.024213
-0.04558
-0.097881
-0.13519
-0.077152
-0.030272
-0.046218
-0.060887
-0.055466
-0.0063538
-0.0031647
0.017246
0.015332
-0.012732
0.032872
0.044034
0.018202
0.012462
0.0025757
-0.029953
-0.0018891
0.058385
0.05392
0.0073593
0.022029
0.010867
0.021391
0.023624
0.024262
-0.03091
-0.038883
0.00066221
-0.034418
-0.077471
-0.10681
-0.083849
-0.10904
-0.088952
-0.041115
-0.03665
-0.061525
-0.018791
0.0076782
0.022348
0.052963
0.081028
0.019797
0.01884
0.048499
0.028088
0.01023
-0.0085862
-0.04271
-0.053234
0.0019378
0.02171
0.015332
0.0025757
0.0022568
0.017246
0.034467
0.059661
0.054239
0.02171
-0.0050782
0.015651
0.0051269
-0.017835
-0.027721
-0.053234
-0.058017
0.01023
0.0067215
-0.032823
-0.020386
-0.0076295
0.0070404
0.02171
0.048818
-0.0060349
-0.027083
-0.030272
-0.030591
-0.031867
-0.063439
-0.093735
-0.1202
-0.084806
-0.036331
-0.051639
-0.090227
-0.067585
-0.036969
-0.029315
0.018202
0.058066
-0.012413
-0.026764
0.0057648
0.0057648
-0.012732
-0.0069916
-0.061525
-0.095649
-0.040796
-0.027083
-0.02804
-0.027083
0.0064026
0.0003433
-0.0012513
0.016608
0.013738
-0.019748
-0.020386
-0.0012513
-0.020705
-0.027721
-0.023256
-0.051001
-0.047812
0.028407
0.031278
-0.00061343
0.0013
0.026813
0.045947
0.062212
0.083898
0.050731
0.032872
0.020435
0.012462
-0.0073105
-0.012732
-0.021024
-0.058017
-0.058336
0.01023
0.019478
-0.0076295
0.0032135
0.030321
0.047542
0.077838
0.11547
0.051688
0.042439
0.058066
0.03351
0.0028946
-0.0015702
-0.019429
-0.055466
-0.023575
-0.0098618
-0.029953
-0.045899
-0.04558
-0.016559
0.0022568
0.047861
0.03064
-0.036969
-0.055785
-0.002208
-0.018472
-0.040477
-0.053871
-0.077471
-0.082892
-0.01911
-0.02198
-0.053552
-0.060569
-0.049088
-0.018153
0.00066221
0.015332
-0.012094
-0.036969
-0.027721
-0.021024
-0.055147
-0.06599
-0.06025
-0.093097
-0.088952
-0.026126
-0.009224
-0.043028
-0.029634
-0.014008
-0.0073105
0.0051269
0.05392
-0.012094
-0.021024
0.0044891
-0.0044404
-0.022618
-0.051639
-0.095649
-0.077152
-0.013689
-0.0066727
-0.011456
-0.033142
0.004808
0.01884
0.025856
0.061893
0.070503
-0.0069916
0.015651
0.060298
0.032234
0.016289
-0.017197
-0.052915
-0.052915
0.0092728
0.018202
-0.00029452
-0.018472
-0.0069916
0.013738
0.0092728
0.037656
0.025218
-0.019748
-0.013051
-0.00061343
-0.021024
-0.039839
-0.061844
-0.081617
-0.090227
-0.015283
-0.013689
-0.030272
-0.017835
-0.0015702
0.027451
0.058385
0.11675
0.063169
0.029045
0.03925
0.022348
0.029683
0.020754
-0.0050782
-0.048131
-0.034099
0.024262
0.0035324
-0.055466
-0.009224
0.023305
-0.00061343
0.013419
0.010548
-0.062801
-0.044942
-0.0085862
-0.040158
-0.01911
-0.04845
-0.097881
-0.093416
-0.052915
-0.025488
-0.029634
-0.032504
-0.018153
0.0092728
0.03064
0.043077
0.031278
-0.009224
-0.0098618
-0.00061343
-0.032186
-0.04271
-0.062163
-0.095968
-0.096605
-0.021343
-0.026764
-0.051958
-0.037926
-0.032186
-0.015283
0.019159
0.058385
0.0089539
-0.0076295
0.02171
0.020116
0.012462
0.0038513
-0.0073105
-0.023894
-0.015283
0.039569
0.04531
0.018202
0.037975
0.055515
0.072417
0.095378
0.11547
0.029045
0.038612
0.079433
0.054239
-0.014327
-0.043028
-0.009224
-0.014645
0.016927
0.01023
-0.029315
-0.018472
-0.026764
-0.0034836
-0.011456
0.030959
0.026175
-0.023256
-0.037607
-0.040158
-0.068541
-0.055785
-0.063758
-0.10235
-0.12467
-0.044942
-0.033461
-0.070455
-0.072687
-0.053234
-0.032186
-0.020386
0.035423
0.0044891
-0.043347
-0.016559
-0.0031647
-0.034099
-0.049407
-0.076195
-0.093416
-0.073006
-0.024851
-0.0025269
-0.019429
-0.014008
0.008635
0.037975
0.054239
0.091552
0.024899
0.023624
0.064763
0.044353
0.034786
0.015651
-0.013051
-0.033461
0.025856
0.082941
0.064444
0.030002
0.049774
0.073055
0.074649
0.10782
0.089319
0.047223
0.058385
0.074649
0.011824
0.0099106
0.0057648
-0.033142
-0.065033
-0.0098618
-0.00029452
-0.026126
-0.041434
-0.04558
-0.028678
-0.016559
0.014056
-0.018153
-0.056104
-0.069498
-0.065352
-0.079703
-0.083849
-0.094373
-0.1218
-0.14253
-0.079065
-0.052596
-0.085125
-0.088314
-0.04845
-0.022937
0.0041702
0.046585
-0.033142
-0.03378
0.014694
0.0070404
0.017883
-0.009224
-0.043347
-0.055785
-0.013689
0.033829
0.017246
0.01023
0.0060837
0.050412
0.075606
0.069547
0.074649
0.037337
0.041802
0.041164
0.014375
0.025218
0.0099106
-0.0073105
-0.036969
0.025856
0.051369
0.014694
0.028088
0.02777
0.044034
0.068271
0.089
0.068271
0.013738
0.02171
0.038612
0.016927
-0.005716
-0.027721
-0.058336
-0.050363
0.019797
0.023305
-0.011775
-0.009224
-0.0060349
0.015651
0.045629
0.084854
0.028726
-0.0041214
0.017246
0.0064026
-0.026445
-0.06312
-0.08353
-0.089908
-0.080022
-0.032186
-0.037288
-0.074282
-0.06312
-0.050682
-0.045261
0.0013
0.008635
-0.070455
-0.06886
-0.03378
-0.053552
-0.061206
-0.081935
-0.0982
-0.11765
-0.051001
-0.029634
-0.067585
-0.061206
-0.014964
0.0067215
-0.010819
0.047542
0.046266
0.014694
0.0131
0.02777
0.013738
0.0070404
-0.024532
-0.034418
-0.016559
0.046904
0.013738
-0.0085862
0.05105
0.073693
0.062531
0.081028
0.1311
0.061893
0.041483
0.04531
0.064763
0.054558
0.031596
0.013738
-0.049726
-0.03378
0.028407
0.026175
-0.023894
-0.01911
-0.00029452
2.4388e-05
0.029683
0.04818
-0.0095429
-0.01911
0.019478
0.0019378
-0.0089051
-0.019748
-0.052277
-0.091822
-0.036012
0.01884
0.014375
-0.015283
-0.035375
-0.020705
0.038612
0.055515
0.008316
-0.047174
-0.058655
-0.032823
-0.058655
-0.068222
-0.086719
-0.13487
-0.13774
-0.064714
-0.073006
-0.097562
-0.087357
-0.074919
-0.042391
-0.027402
0.0089539
0.0019378
0.0076782
-0.021024
-0.042072
-0.038245
-0.030591
-0.055785
-0.076833
-0.071093
-0.0038025
0.02458
-0.022618
-0.023256
0.028088
0.046266
0.062212
0.085173
0.0067215
0.010548
0.059661
0.035742
0.036699
0.012143
-0.011775
-0.045899
-0.01337
0.0095917
0.0022568
-0.0076295
0.011824
0.038931
0.026175
0.036699
0.060617
0.024899
-0.0018891
0.032872
0.0095917
-0.01911
-0.029634
-0.038564
-0.051001
0.025537
0.02171
-0.0063538
-0.0050782
0.0099106
0.029364
0.03638
0.076244
0.046585
0.020754
0.029683
0.034148
0.0051269
-0.020386
-0.038883
-0.074282
-0.084806
-0.015283
-0.0031647
-0.050363
-0.047493
-0.036331
-0.038564
-0.0073105
0.042121
-0.038564
-0.056742
-0.036969
-0.025807
-0.020386
-0.04845
-0.074919
-0.093097
-0.06025
-0.016559
-0.031229
-0.061844
-0.035694
-0.0038025
0.0089539
0.04531
0.067314
-0.022618
-0.050682
2.4388e-05
0.017564
-0.013051
-0.057379
-0.083211
-0.071093
0.016608
0.022667
-0.005716
-0.0079484
0.027132
0.035742
0.041483
0.070185
0.060617
0.0067215
0.055515
0.06572
0.03351
0.020116
0.0022568
-0.028678
-0.02804
0.029045
0.017246
0.0079971
0.025856
0.01884
0.019159
0.042121
0.079752
0.023943
0.016289
0.027451
0.0064026
-0.0085862
-0.032823
-0.049726
-0.064714
-0.033461
0.0016189
0.010548
-0.0082673
0.0019378
0.017246
0.028407
0.074649
0.091233
0.00098112
0.016927
0.05105
2.4388e-05
-0.0063538
-0.025807
-0.057061
-0.062163
-0.013051
0.017564
-0.0041214
-0.03665
-0.027402
-0.016559
0.0089539
0.041164
0.021072
-0.0095429
-0.023256
-0.020386
-0.056423
-0.072687
-0.083211
-0.12818
-0.13041
-0.03665
-0.013051
-0.074282
-0.057698
-0.056104
-0.010819
-0.014645
0.026813
-0.00061343
-0.0060349
0.015332
0.012462
0.012462
0.0016189
-0.056104
-0.08353
-0.045261
0.010548
0.0003433
-0.012094
0.0035324
0.0028946
-0.0053971
0.046585
0.073055
-0.0015702
-0.0012513
0.052645
0.032872
-0.005716
-0.015921
-0.019429
-0.040477
0.01597
0.021072
0.01597
-0.0028458
0.02777
0.053601
0.050412
0.078795
0.072098
0.031596
0.014694
0.04531
0.03064
0.011824
-0.0069916
-0.068222
-0.052277
0.046585
0.034786
-0.017835
-0.018153
0.0092728
0.029045
0.038612
0.055196
0.0070404
-0.029634
-0.010181
0.0013
-0.023575
-0.052915
-0.080341
-0.095968
-0.093097
-0.040796
-0.032823
-0.074282
-0.062482
-0.05419
-0.011137
0.0057648
0.049774
-0.013689
-0.020067
0.023624
0.0051269
-0.010181
-0.03091
-0.044304
-0.042072
-0.0105
0.034148
-0.0047593
-0.0034836
0.019797
0.025856
0.022986
0.036699
0.052645
0.012781
0.0025757
0.0044891
-0.014008
-0.024851
-0.037607
-0.0982
-0.094373
-0.0098618
-0.010181
-0.0066727
-0.017197
-0.014327
0.0028946
0.036699
0.084854
0.048818
-0.0038025
0.017246
0.013738
0.011186
0.0089539
-0.01911
-0.055466
-0.052915
0.0044891
0.012781
-0.0034836
-0.012732
0.0035324
0.025856
0.03638
0.047223
-0.0018891
-0.009224
0.025856
0.01597
-0.009224
-0.033461
-0.053552
-0.077152
-0.048131
-0.0079484
-0.012413
-0.030591
-0.011775
0.0070404
-0.002208
0.023624
0.035742
-0.0095429
-0.0041214
0.028407
-0.010819
-0.009224
-0.03091
-0.059293
-0.052277
0.012781
0.022667
0.0051269
-0.0012513
0.020754
0.050731
0.072417
0.092508
0.065082
0.016289
0.020116
0.025218
-0.005716
-0.043347
-0.050044
-0.038883
-0.076195
-0.0095429
-0.017516
-0.052915
-0.022618
-0.021343
-0.01337
-0.0105
0.055515
-0.00029452
0.0038513
0.036699
0.020116
-0.0063538
-0.02517
-0.037926
-0.049726
-0.023256
0.01884
0.027132
0.00098112
0.02458
0.041483
0.022029
0.051369
0.07433
0.0070404
0.015013
0.022986
0.0016189
-0.0041214
-0.046536
-0.056742
-0.068222
-0.019748
-0.0031647
-0.022937
-0.040158
-0.0085862
0.0035324
0.0041702
0.026175
0.015332
-0.01911
0.0044891
0.01597
-0.0031647
-0.021343
-0.049088
-0.082573
-0.083849
0.0095917
0.0076782
-0.017197
-0.0082673
0.0028946
0.026175
0.047542
0.080071
0.03925
0.024899
0.035104
0.030002
0.0092728
-0.0047593
-0.017197
-0.060887
-0.051639
0.010548
0.004808
-0.011137
0.0092728
0.022029
0.0067215
0.047223
0.069228
0.011505
2.4388e-05
-0.00093234
0.0099106
0.011186
-0.0079484
-0.050682
-0.070774
-0.0060349
0.0054459
-0.0098618
-0.029315
-0.026764
-0.00061343
0.0067215
0.033829
0.030959
-0.02198
-0.0073105
-0.0085862
-0.041434
-0.043985
-0.05132
-0.084806
-0.097562
-0.0031647
0.011824
-0.034418
-0.034737
-0.0098618
0.010548
0.0038513
0.047542
0.0092728
0.0041702
0.008316
0.0067215
-0.011137
-0.025488
-0.045261
-0.060887
-0.035056
0.0060837
0.026813
-0.0044404
0.0032135
0.043396
0.036699
0.046585
0.096335
0.034467
0.032872
0.058385
0.026813
-0.016559
-0.048769
-0.034099
-0.034418
0.0131
0.03925
0.0032135
-0.020067
-0.00093234
0.017246
0.031596
0.054877
0.059979
0.0044891
-0.00061343
0.01597
-0.0069916
-0.026126
-0.045899
-0.085125
-0.081617
-0.0069916
-0.0105
-0.043028
-0.04558
-0.027083
0.0044891
0.025856
0.044672
0.0070404
-0.0069916
0.0025757
-0.0012513
-0.025488
-0.038883
-0.065352
-0.098838
-0.072687
-0.011775
0.00098112
-0.014008
-0.018153
-0.0034836
-0.002208
0.02458
0.092189
0.028407
0.016289
0.021072
0.017246
0.011186
-0.027721
-0.036331
-0.055785
-0.027402
0.0070404
-0.020705
-0.064077
-0.030591
-0.017835
-0.0018891
0.057747
0.056471
-0.015602
-0.010181
0.023624
-0.016878
-0.03665
-0.030272
-0.056742
-0.070455
-0.0012513
0.032234
0.016289
-0.00093234
0.013738
0.026175
0.038612
0.084217
0.051369
0.008635
0.01597
0.033191
0.0070404
-0.012094
-0.023575
-0.056742
-0.071093
-0.014645
-0.0066727
-0.030591
-0.030591
-0.018791
0.0089539
0.021391
0.041483
0.0079971
0.008635
0.022348
0.01597
-0.00061343
-0.018791
-0.034418
-0.037607
-0.015921
0.01597
0.0092728
-0.009224
0.016608
0.017564
-0.00061343
0.032553
0.060298
0.0028946
-0.015602
-0.0041214
-0.016878
-0.023256
-0.047174
-0.10617
-0.10841
-0.033142
-0.024851
-0.040158
-0.039202
-0.022618
-0.013051
-0.018153
0.018521
0.039569
0.014694
-0.0028458
-0.0060349
-0.016878
-0.017197
-0.035375
-0.062163
-0.052596
0.012462
0.021072
-0.01337
0.014375
0.023624
0.033829
0.054877
0.10239
0.054239
0.023624
0.054558
0.035742
0.020435
-0.0034836
-0.023256
-0.024851
-0.028678
0.0038513
0.028407
0.031278
0.044991
0.011186
0.016927
0.051369
0.075925
0.016608
0.0032135
0.039888
0.015013
-0.011456
-0.022299
-0.024532
-0.056742
-0.010181
-0.0044404
-0.01624
-0.027402
-0.020067
-0.0076295
-0.017835
0.020435
0.039888
-0.022618
-0.034737
-0.041434
-0.057698
-0.059931
-0.090865
-0.12977
-0.12499
-0.04845
-0.032504
-0.053234
-0.067903
-0.051639
-0.010181
0.042758
0.064125
0.015651
-0.015921
0.0089539
0.017246
0.012143
-0.012413
-0.032504
-0.059293
-0.061844
0.0067215
0.021391
-0.020067
-0.009224
0.0038513
0.027451
0.052963
0.079752
0.014694
0.0067215
0.033829
0.030321
-0.0073105
-0.020067
-0.032504
-0.043985
0.0067215
0.01597
0.0013
-0.0098618
0.011824
0.034148
0.028407
0.066677
0.081346
0.039888
0.031596
0.057747
0.016927
0.013419
0.0076782
-0.035375
-0.058336
0.0095917
0.012143
-0.020067
-0.022299
-0.011456
0.0067215
0.0076782
0.044034
0.0089539
-0.022299
-0.01624
-0.014645
-0.026764
-0.03665
-0.051639
-0.068222
-0.057061
0.0003433
0.0025757
-0.022618
0.0099106
0.016927
0.027132
0.05679
0.087725
-0.012413
-0.0012513
0.063169
0.028088
-0.0105
-0.031548
-0.043666
-0.057379
-0.035056
-0.021343
-0.021343
-0.023256
-0.027083
0.0028946
0.004808
0.031278
0.031596
-0.020386
-0.031229
-0.0060349
-0.019748
-0.026764
-0.053234
-0.06599
-0.071093
-0.014327
-0.00061343
-0.028678
-0.029634
-0.01337
0.016608
0.044991
0.07433
0.061893
0.056153
0.032553
0.0067215
0.013738
0.0089539
0.0044891
-0.015283
-0.039202
0.015651
0.039888
-0.010819
-0.0044404
-0.0063538
0.020754
0.040526
0.055834
-0.0089051
-0.01624
0.0076782
-0.01911
-0.04271
-0.056742
-0.063439
-0.087038
-0.055466
-0.021343
-0.0025269
-0.026126
-0.0076295
0.017883
0.017246
0.056153
0.082622
0.019159
0.017246
0.061893
0.032553
0.0070404
-0.018153
-0.036969
-0.061206
-0.005716
0.02458
0.010867
-0.010181
-0.0095429
-0.0028458
0.011824
0.067952
0.043396
0.011824
0.0099106
0.018521
0.0013
-0.011456
-0.034099
-0.077152
-0.08066
0.008316
0.011824
-0.0047593
-0.012094
-0.021024
0.0076782
0.026494
0.050412
-0.0050782
-0.026764
0.018202
0.01884
0.0095917
-0.0034836
-0.026764
-0.040477
-0.037607
0.027451
0.031278
-0.0105
0.01023
0.011186
0.04531
0.089
0.079752
0.00098112
0.0028946
0.0095917
-0.014964
-0.026126
-0.043347
-0.079065
-0.088952
-0.033461
-0.0085862
-0.021024
-0.037288
-0.019429
0.0041702
-0.0050782
0.037337
0.047542
0.011824
0.0095917
0.0131
-0.0012513
-0.00061343
-0.010819
-0.062163
-0.059293
0.023624
0.021072
-0.025488
-0.018791
0.0070404
0.035423
0.054877
0.077838
0.032553
-0.0085862
0.0013
0.0044891
0.023624
0.0035324
-0.035056
-0.068222
-0.051639
0.015332
0.029045
-0.010819
-0.005716
0.021072
0.022348
0.039888
0.077201
0.015332
-0.0050782
0.004808
-0.0015702
0.0028946
-0.013689
-0.069498
-0.09246
-0.040796
0.015013
0.028407
-0.011456
-0.020067
-0.0038025
0.0054459
0.064444
0.060936
0.0038513
-0.0012513
0.031278
0.012462
-0.020386
-0.053234
-0.061525
-0.075238
0.013738
0.025537
-0.026445
-0.023575
-0.0069916
0.0073593
0.022667
0.047223
0.016608
-0.0069916
-0.017516
-0.009224
-0.03378
-0.047812
-0.064077
-0.10522
-0.079065
-0.016878
-0.0076295
-0.031548
-0.021024
0.0013
0.0092728
0.042121
0.083898
0.004808
0.008635
0.054558
0.036061
0.012781
-0.0073105
-0.032504
-0.056742
-0.017516
0.019159
0.0089539
-0.017197
0.00098112
0.020116
0.026813
0.055515
0.07433
0.008635
-0.0076295
0.03064
0.0076782
-0.011775
-0.026764
-0.046218
-0.061206
-0.012094
0.0070404
-0.022618
-0.022618
0.013738
0.022348
0.028407
0.052326
0.026175
2.4388e-05
0.0022568
0.0060837
-0.012413
-0.029315
-0.020386
-0.052277
-0.05132
-0.0079484
0.0067215
0.010867
0.01597
0.014375
0.035742
0.061893
0.10112
0.032872
0.03638
0.054239
0.067952
0.048499
0.020116
-0.0038025
-0.03378
-0.03952
-0.0066727
-0.0047593
-0.032823
-0.022618
-0.0073105
0.0035324
0.025537
0.026175
-0.041434
-0.065671
-0.027402
-0.027083
-0.046536
-0.080022
-0.10968
-0.11797
-0.03378
-0.012413
-0.025807
-0.046218
-0.022937
0.0016189
0.0070404
0.028088
0.044991
0.0064026
0.0054459
0.015013
-0.009224
-0.020705
-0.027402
-0.052915
-0.058336
0.012781
0.034467
0.0016189
-0.0079484
0.0057648
0.0079971
0.033191
0.088362
0.03351
0.008635
0.041483
0.034148
0.021391
-0.0015702
-0.024213
-0.038564
-0.0063538
0.046904
0.042439
0.012781
0.028726
0.044991
0.03638
0.064763
0.089957
-0.005716
-0.029953
0.029683
0.0073593
-0.039202
-0.050363
-0.058017
-0.078427
-0.022937
-0.0015702
-0.033142
-0.038245
-0.009224
0.018202
0.030321
0.085492
0.079114
0.023305
0.043077
0.078157
0.053601
0.033829
0.004808
-0.014964
-0.022299
0.051688
0.061893
0.033191
0.027132
0.044991
0.070822
0.044034
0.042758
0.03638
0.008316
0.0131
-0.0095429
-0.044942
-0.061844
-0.086081
-0.092778
-0.086081
-0.027402
-0.033142
-0.065352
-0.045261
-0.02517
-0.020067
0.0044891
0.046585
-0.031548
-0.040477
0.00098112
-0.020067
-0.034418
-0.052915
-0.086081
-0.087676
-0.05419
-0.012732
-0.026445
-0.053552
-0.033142
0.015013
0.0067215
0.043077
0.055834
0.011505
0.017564
0.040207
0.017883
0.0016189
-0.014645
-0.038564
-0.027721
0.043715
0.029045
0.020754
0.032872
0.042121
0.055196
0.068909
0.091233
0.053601
0.021072
0.029364
0.01023
-0.010181
-0.0047593
-0.022299
-0.055466
-0.057061
-0.0012513
0.0079971
-0.036331
-0.014645
0.0099106
0.01884
0.042439
0.06285
0.0044891
0.016289
0.015651
0.023943
0.011505
-0.03091
-0.051958
-0.06599
-0.05132
-0.022618
-0.010819
-0.036331
-0.0089051
0.026813
-0.0050782
0.025218
0.037018
-0.0066727
0.00098112
0.024262
-0.011775
-0.021024
-0.03952
-0.074919
-0.066947
0.0095917
0.018521
-0.010819
-0.020705
-0.0050782
0.033191
0.047542
0.056471
0.047223
0.010867
0.013419
0.01597
0.0067215
-0.013689
-0.019429
-0.057698
-0.055147
-0.0015702
0.012462
-0.029953
-0.029953
0.0131
0.017564
0.026175
0.054877
-0.00061343
-0.0012513
0.01597
-0.0015702
-0.013689
-0.029315
-0.050682
-0.073325
-0.047174
-0.0028458
0.0070404
-0.021661
0.0038513
0.022029
0.025856
0.067952
0.07433
0.008635
0.022348
0.043396
0.035423
0.020754
-0.017516
-0.039202
-0.037926
0.02171
0.011505
0.0092728
0.0035324
0.010867
0.025856
0.022667
0.048818
0.046585
-0.0063538
2.4388e-05
0.028407
-0.0015702
-0.031548
-0.042391
-0.046536
-0.054509
0.010548
0.020435
-0.012094
-0.0041214
0.01597
0.064444
0.072417
0.089638
0.029683
0.022029
0.037656
0.015013
-0.027083
-0.01911
-0.012732
-0.075876
-0.057379
0.01023
-0.017197
-0.068222
-0.022937
0.0079971
0.0073593
0.016608
0.03638
-0.031548
-0.025488
0.015013
-0.00061343
-0.037288
-0.043347
-0.061206
-0.085443
-0.020067
-0.005716
-0.011775
-0.034099
0.0054459
0.028407
0.030002
0.065082
0.061255
0.0092728
0.0028946
0.029045
0.023943
0.0044891
-0.027721
-0.063439
-0.055147
0.0092728
0.01884
-0.01337
-0.016878
-0.00061343
0.01597
0.028407
0.066995
0.026494
-0.0015702
0.004808
0.0073593
-0.0012513
-0.017835
-0.034099
-0.053234
-0.044304
0.011505
0.0131
-0.026764
0.00066221
0.028726
0.023943
0.043396
0.10176
0.032234
0.0025757
0.019797
0.015013
0.0025757
-0.01624
-0.044304
-0.056742
0.0057648
0.032872
0.012781
0.0095917
0.01884
0.040845
0.048818
0.081028
0.088362
0.052645
0.034148
0.029683
-0.0015702
-0.014327
-0.05132
-0.072687
-0.076195
-0.0044404
-0.011775
-0.052277
-0.043666
-0.02517
-0.032186
0.014056
0.055834
0.032872
-0.014645
-0.0044404
0.0079971
-0.0066727
-0.030272
-0.050363
-0.08066
-0.056742
-0.0066727
-0.0082673
-0.035056
-0.013051
0.0003433
0.019159
0.023305
0.039888
-0.0095429
-0.0079484
0.0060837
0.010867
0.013419
-0.014008
-0.055466
-0.066947
-0.040477
-0.0069916
-0.0012513
-0.031229
-0.011456
0.0032135
0.0041702
0.028407
0.057747
-0.0012513
-0.013689
0.012462
-0.0076295
-0.025807
-0.035056
-0.058655
-0.067903
0.011186
0.018521
-0.020386
-0.036331
-0.0085862
0.0054459
0.027132
0.067314
0.053282
0.014694
0.0095917
0.016608
0.0016189
0.0044891
-0.0069916
-0.050044
-0.031867
0.035104
0.032872
0.020116
0.046585
0.023943
0.052963
0.076563
0.12057
0.052963
0.022986
0.059342
0.045629
0.040526
-0.011775
-0.050363
-0.052277
-0.03091
-0.00061343
2.4388e-05
-0.033142
-0.032186
-0.0015702
-0.0069916
0.012143
0.020116
-0.048131
-0.047493
-0.038883
-0.039839
-0.054828
-0.062482
-0.097562
-0.12148
-0.038883
-0.020386
-0.046536
-0.055785
-0.029315
-0.002208
0.0035324
0.032234
0.022029
-0.0041214
0.0057648
0.030959
0.0013
-0.027721
-0.037288
-0.061844
-0.058336
0.0076782
0.026175
-0.0050782
0.011186
0.011505
0.022029
0.05105
0.080071
0.024899
0.008635
0.047223
0.042121
0.0131
-0.011137
-0.017835
-0.034737
-0.009224
0.02777
0.035104
0.037656
0.057109
0.077201
0.078157
0.10463
0.14066
0.083579
0.086449
0.11356
0.077201
0.071141
0.041164
-0.013051
-0.017197
0.042439
0.070822
0.047861
0.013738
0.016289
0.038294
0.047861
0.07752
0.084536
0.015332
0.00066221
0.034786
0.015651
-0.017835
-0.01624
-0.034418
-0.046218
0.018202
0.0064026
-0.026126
-0.028678
-0.015283
0.0131
0.039888
0.046904
-0.013051
-0.025488
-0.0025269
-0.0063538
-0.018791
-0.047174
-0.067585
-0.093416
-0.085762
-0.027083
-0.029315
-0.055466
-0.04271
-0.013689
-0.0031647
0.02171
0.034467
-0.022299
-0.028996
0.0060837
-0.038564
-0.028678
-0.023575
-0.058017
-0.085443
-0.041753
-0.01337
-0.023256
-0.046218
-0.041753
-0.0047593
0.012462
0.037018
0.028088
-0.023256
-0.037288
-0.011775
-0.03378
-0.044304
-0.079703
-0.12116
-0.10968
-0.030591
-0.035694
-0.058017
-0.060569
-0.062163
-0.033461
-0.036331
-0.0050782
-0.040477
-0.05132
-0.052596
-0.057379
-0.071093
-0.078109
-0.083211
-0.11989
-0.096286
-0.027402
-0.025488
-0.063439
-0.051001
-0.031548
-0.014327
0.017246
0.048499
-0.027402
-0.050363
-0.013689
-0.023894
-0.057061
-0.073325
-0.099476
-0.10394
-0.076195
-0.034418
-0.031229
-0.04558
-0.040477
-0.011456
0.0070404
0.03638
0.037975
0.0019378
0.012143
0.03064
-0.0050782
0.0016189
-0.01911
-0.046855
-0.074601
-0.0079484
0.0099106
-0.0038025
-0.024213
-0.020705
0.0044891
0.02171
0.044353
0.032553
-0.00029452
0.024262
0.024262
-0.0085862
-0.026445
-0.018153
-0.026445
-0.046855
-0.0018891
0.017564
0.0028946
0.020435
0.03064
0.037975
0.061893
0.099843
0.025537
0.015651
0.03925
0.0079971
-0.011456
0.0057648
-0.0076295
-0.036969
-0.023894
0.028407
0.034148
-0.0047593
0.010548
0.042121
0.048499
0.073374
0.09187
0.02458
0.018202
0.06285
0.030002
0.0076782
-0.011775
-0.036012
-0.055785
0.0099106
0.036699
0.014694
0.020435
0.016608
0.044353
0.064125
0.087406
0.061574
0.016608
0.058066
0.059979
0.030321
0.016289
-0.009224
-0.03665
-0.029315
0.047542
0.047223
0.012462
0.015013
0.022348
0.051369
0.069866
0.094741
0.031278
0.031278
0.047542
0.0099106
-0.022937
-0.024851
-0.043985
-0.06312
-0.017835
0.012781
-0.0066727
-0.03091
-0.020067
0.0057648
0.012462
0.019478
0.048818
-0.0095429
-0.010819
0.028407
0.014056
-0.012094
-0.047174
-0.081935
-0.083211
-0.00093234
0.021391
-0.0038025
-0.015921
0.0041702
0.010548
0.02458
0.071779
0.070503
0.031596
0.025856
0.045947
0.026175
-0.002208
-0.027721
-0.043985
-0.028996
0.040207
0.03925
-0.005716
0.022667
0.028407
0.039569
0.052645
0.082622
0.029045
0.0067215
0.0089539
0.028726
0.02171
-0.023256
-0.032823
-0.066628
-0.058017
0.0057648
0.0051269
-0.0079484
0.0089539
0.022029
0.03064
0.060617
0.085492
0.041483
0.044034
0.066995
0.053601
0.048818
0.026175
-0.016878
-0.040158
0.010867
0.050412
0.037337
0.03064
0.047223
0.05392
0.058704
0.076882
0.067633
0.0067215
-0.0063538
0.034786
-0.010181
-0.015283
-0.035694
-0.072368
-0.089908
-0.0089051
-0.005716
-0.047493
-0.053552
-0.060569
-0.020386
0.0070404
0.042121
-0.020705
-0.043985
-0.015602
0.00066221
-0.017835
-0.031548
-0.061844
-0.097562
-0.055466
0.0131
0.040526
0.0060837
0.01884
0.031278
0.052007
0.074968
0.10622
0.03638
0.016289
0.027132
0.020435
0.014056
-0.029953
-0.082892
-0.1033
-0.047812
-0.022937
-0.037288
-0.063758
-0.048769
-0.01911
-0.021024
0.0032135
0.03064
-0.0050782
-0.014008
0.016608
-0.018472
-0.026445
-0.041115
-0.065033
-0.059931
0.021391
0.023943
-0.027721
-0.016878
0.0067215
0.019797
0.049455
0.070822
0.030959
0.0038513
0.014375
0.032234
0.012462
-0.009224
-0.031867
-0.062801
-0.03665
0.022348
0.026175
-0.017197
-0.00093234
0.012143
0.038931
0.053601
0.10271
0.046266
0.019159
0.031596
0.026175
0.015013
-0.009224
-0.02517
-0.040158
-0.029315
0.0054459
-0.002208
-0.028678
-0.023894
-0.036331
-0.024532
0.01884
0.028726
-0.046218
-0.068541
-0.049407
-0.079384
-0.068541
-0.084168
-0.11702
-0.13328
-0.076514
-0.068222
-0.068222
-0.077471
-0.029634
-0.0053971
0.014375
0.05392
0.020754
-0.0073105
0.017883
0.012462
-0.021024
0.0032135
-0.019748
-0.055147
-0.061525
0.026813
0.019478
-0.026764
-0.0034836
0.0067215
0.032872
0.047861
0.076244
0.022029
0.018202
0.022348
0.010867
0.0070404
-0.0098618
-0.036331
-0.066309
-0.041753
0.015651
0.017564
-0.028359
-0.002208
0.008316
0.0067215
0.055515
0.078157
0.0079971
-0.0082673
0.030959
0.019797
-0.0085862
-0.027721
-0.031229
-0.038883
0.018202
0.050093
0.012143
-0.010819
0.02171
0.058385
0.043396
0.067633
0.056471
0.010867
0.0073593
0.025537
-0.03378
-0.058974
-0.063758
-0.08353
-0.10872
-0.038245
-0.033142
-0.084806
-0.085125
-0.065033
-0.036012
-0.0025269
0.041483
-0.010181
-0.022937
-0.0082673
-0.0060349
-0.012413
-0.03665
-0.047812
-0.068222
-0.047174
-0.0018891
0.0003433
-0.032823
-0.002208
0.02171
0.010548
0.035104
0.06859
0.0092728
-0.022299
0.0067215
0.016289
0.0099106
-0.046855
-0.065033
-0.074601
-0.042072
-0.0028458
-0.00061343
-0.010181
0.0095917
0.020754
0.020435
0.069866
0.078476
0.035742
0.028407
0.047223
0.038612
0.020435
0.012462
-0.036012
-0.040477
0.052326
0.038294
0.00098112
0.0016189
0.0089539
0.0070404
0.022029
0.068271
0.033829
-0.014008
-0.01337
0.012462
-0.011775
-0.05419
-0.061206
-0.079065
-0.077152
-0.021024
-0.013689
-0.046536
-0.037926
-0.024851
-0.0018891
0.025537
0.057109
-0.021024
-0.030272
-0.0063538
-0.005716
-0.011775
-0.03665
-0.066309
-0.08353
-0.023256
0.02171
0.0044891
-0.012094
0.0070404
0.024899
0.021072
0.043396
0.040845
0.004808
-0.0044404
0.018202
0.0051269
-0.0085862
-0.041753
-0.081617
-0.072368
0.019159
0.022986
-0.01337
-0.023894
-0.0047593
0.019797
0.02777
0.082622
0.062212
0.0095917
0.019797
0.024899
-0.016559
-0.029953
-0.029634
-0.053552
-0.055147
-0.0015702
-0.0079484
-0.050363
-0.029315
0.0019378
0.028088
0.028726
0.036061
-0.0095429
-0.018791
0.0022568
-0.015921
-0.036969
-0.065352
-0.08066
-0.10713
-0.076833
-0.026126
-0.029634
-0.060569
-0.037607
-0.018791
2.4388e-05
0.037337
0.051369
-0.010181
-0.0041214
0.043396
0.018521
-0.0073105
-0.013051
-0.03091
-0.049726
0.017883
0.022986
0.013419
-0.0060349
2.4388e-05
0.02171
0.04531
0.066358
0.035423
-0.0015702
0.0131
0.022348
0.0041702
-0.022618
-0.053552
-0.06312
-0.061525
0.0019378
0.019159
-0.014008
-0.017516
0.0028946
0.027132
0.050731
0.082622
0.030321
0.017564
0.038612
0.033829
0.013738
-0.012094
-0.028996
-0.052915
-0.022937
0.00066221
0.0044891
-0.023256
-0.014008
-0.016878
-0.0031647
0.02458
0.043077
-0.048131
-0.070455
-0.020386
-0.018472
-0.03091
-0.072368
-0.092141
-0.092141
-0.041434
-0.014327
-0.022618
-0.01337
0.0051269
0.029683
0.044034
0.082622
0.078157
0.02458
0.014694
0.030002
0.0044891
-0.0034836
-0.026126
-0.075557
-0.081298
0.0095917
0.008635
-0.030591
-0.049407
-0.053552
-0.011456
0.008316
0.033829
-0.0038025
-0.03378
-0.014008
0.0013
-0.036331
-0.049088
-0.048131
-0.072049
-0.065033
-0.014645
-0.00029452
-0.034099
-0.016878
0.010867
0.017246
0.045629
0.06572
-0.00093234
0.022348
0.05105
0.013419
-0.0082673
-0.036969
-0.056742
-0.064714
-0.010819
-0.0025269
-0.022937
-0.026764
0.0013
0.022029
0.022667
0.037975
0.05105
0.0038513
-0.0044404
0.039888
0.023305
0.016927
-0.0079484
-0.023894
-0.058017
0.0025757
0.013419
0.015013
0.011186
-0.0034836
-0.0018891
0.016927
0.057109
0.011505
-0.023894
0.016289
0.0076782
-0.0044404
-0.020386
-0.03378
-0.055466
-0.029634
0.011505
0.031278
0.013419
0.024899
0.041164
0.062212
0.096654
0.10973
0.019478
0.022029
0.038612
0.021072
0.016927
-0.014327
-0.04558
-0.073006
-0.022937
0.014694
0.013738
-0.0028458
0.0038513
0.0092728
0.029683
0.060936
0.04531
0.0022568
0.0019378
0.014694
-0.014645
-0.018472
-0.03665
-0.06886
-0.086081
-0.0085862
0.0051269
-0.020386
-0.054509
-0.037607
0.0073593
0.032234
0.079114
0.052007
0.0019378
-0.0041214
0.026175
0.0051269
-0.0095429
-0.03091
-0.076833
-0.066947
0.016608
0.020435
-0.028996
-0.036331
0.0067215
0.019478
0.027132
0.037975
-0.0105
-0.0038025
0.022348
-0.0015702
-0.025488
-0.043028
-0.050044
-0.058974
-0.038883
0.013419
0.012462
-0.0095429
0.022986
0.034786
0.029045
0.07146
0.081665
0.033829
0.028407
0.06285
0.024899
0.0064026
-0.011456
-0.046218
-0.067585
0.014056
0.02777
-0.017835
-0.033461
-0.0025269
0.0092728
0.0079971
0.046585
0.029364
-0.014008
-0.027721
-0.012413
-0.044942
-0.052277
-0.053234
-0.057698
-0.080022
-0.0085862
0.014694
-0.010181
-0.0034836
0.0025757
0.036061
0.067633
0.08326
0.046266
0.044353
0.058704
0.040526
0.029045
0.023624
-0.0034836
-0.032186
-0.020705
0.0095917
0.0025757
-0.018791
0.0038513
0.014375
0.011505
0.050093
0.067633
0.014056
0.008635
0.02458
-0.0050782
-0.0018891
-0.047812
-0.089589
-0.072368
0.012462
0.035742
0.004808
-0.012413
-0.0082673
0.017883
0.040526
0.066358
0.060936
0.012462
0.0019378
0.022986
0.0051269
-0.019429
-0.044304
-0.07779
-0.082573
-0.02804
-0.026445
-0.06599
-0.057698
-0.046855
-0.026764
-0.012094
0.024262
-0.037926
-0.064077
-0.030272
-0.034737
-0.054509
-0.055147
-0.072049
-0.096286
-0.065671
0.0035324
2.4388e-05
-0.047493
-0.020386
0.0067215
0.020116
0.067952
0.10526
0.034786
0.036699
0.07752
0.053601
0.02171
0.022348
-0.0095429
-0.029634
0.029683
0.064125
0.062531
0.046904
0.052007
0.072098
0.057747
0.094741
0.10176
0.06859
0.05679
0.060298
0.024899
-0.005716
-0.0069916
-0.026126
-0.04845
0.014694
0.010548
-0.029953
-0.030272
-0.020386
-0.010181
-0.0034836
0.028088
-0.012413
-0.035694
-0.023256
-0.03091
-0.050682
-0.075557
-0.085762
-0.10713
-0.10075
-0.039202
-0.010819
-0.053871
-0.066628
-0.04558
-0.027083
-0.00061343
0.035104
-0.037926
-0.029953
0.0060837
-0.014964
-0.02517
-0.043985
-0.072687
-0.077471
-0.016878
0.034467
0.020435
0.0070404
0.011824
0.047542
0.052963
0.075925
0.081984
0.03925
0.025856
0.047223
0.024899
-0.027721
-0.063758
-0.023575
-0.049088
-0.0015702
-0.0047593
-0.038245
-0.041434
-0.0085862
0.0051269
0.016927
0.048818
0.036699
-0.0018891
0.016289
0.017246
0.0057648
0.008316
0.0089539
-0.044304
-0.029953
0.051688
0.059661
0.021072
0.043077
0.072417
0.091233
0.086768
0.093465
0.030959
0.044991
0.037337
0.031278
0.0073593
-0.035056
-0.080022
-0.097243
-0.078746
-0.051639
-0.041434
-0.063439
-0.051958
-0.044623
-0.049407
-0.002208
0.020435
-0.042072
-0.045899
-0.010819
-0.022299
-0.032186
-0.047174
-0.073963
-0.087038
-0.019748
0.0013
-0.019429
-0.032504
-0.005716
0.0131
0.023624
0.052645
0.030959
0.0032135
-0.0012513
0.01023
-0.017197
-0.036012
-0.042391
-0.06886
-0.048131
0.015651
0.0028946
-0.03378
-0.01624
0.0022568
0.011505
0.06859
0.10463
0.031915
0.0070404
0.040526
0.03064
0.010548
-0.013689
-0.03378
-0.05132
-0.022937
0.013738
0.008635
-0.011456
0.019159
0.026813
0.010548
0.020754
0.023943
-0.0038025
-0.0050782
0.029045
-0.0076295
-0.022299
-0.04558
-0.067585
-0.07173
-0.014645
-0.017197
-0.035056
-0.017197
-0.0031647
0.022348
0.020116
0.046904
0.04531
-0.005716
-0.011137
0.010548
-0.021661
-0.051001
-0.057379
-0.10171
-0.08353
0.00098112
-0.00029452
-0.037288
-0.034099
-0.01911
-0.0044404
0.020435
0.069547
0.022986
0.01023
0.030002
0.031915
0.015332
-0.0053971
-0.020705
-0.050363
-0.02804
0.027132
0.028726
-0.002208
0.027132
0.072417
0.059342
0.073055
0.097292
0.041164
0.045629
0.065401
0.078476
0.059342
-0.0044404
-0.014327
-0.01911
0.00098112
-0.021024
-0.0018891
0.0060837
0.0051269
0.0054459
-0.0015702
0.015651
0.010548
-0.035694
-0.028996
-0.012413
-0.036969
-0.05132
-0.088952
-0.10394
-0.08927
-0.0060349
0.0070404
-0.051001
-0.063439
-0.03091
0.011186
0.025218
0.049455
-0.0018891
-0.034099
-0.01337
-0.015283
-0.035056
-0.053552
-0.064077
-0.10713
-0.0982
-0.018472
-0.015921
-0.04845
-0.03091
-0.018153
-0.0073105
0.030959
0.057428
-0.0105
-0.0041214
0.03064
0.015332
-0.0085862
-0.031867
-0.035694
-0.057061
-0.014964
0.023624
0.024262
0.015013
0.029683
0.044991
0.023305
0.066677
0.13205
0.073374
0.056153
0.067314
0.052963
0.032553
0.01884
-0.023894
-0.01337
0.054558
0.05392
0.011505
0.0079971
0.024899
0.037975
0.05105
0.085492
0.036699
-0.010181
-0.0073105
0.038612
0.026175
-0.019748
-0.037607
-0.052915
-0.058336
0.014375
0.008635
-0.030272
-0.017516
0.0057648
0.0079971
0.027451
0.046585
-0.031229
-0.020067
0.0057648
-0.026126
-0.045261
-0.069498
-0.089908
-0.11096
-0.081617
-0.032823
-0.036331
-0.076833
-0.057379
-0.023575
-0.0018891
-0.0063538
0.017883
-0.024851
-0.021343
-0.011456
-0.03378
-0.050363
-0.068541
-0.090865
-0.10203
-0.02804
-0.0041214
-0.023256
-0.014964
-0.018153
-0.014008
0.020435
0.074649
0.054877
0.0003433
0.0076782
0.039569
0.008316
-0.012413
-0.022937
-0.04845
-0.051958
0.029683
0.047542
-0.0050782
-0.022618
0.0044891
0.03351
0.057109
0.082622
0.03064
0.0073593
0.02777
0.028407
0.017883
-0.015602
-0.031548
-0.044623
-0.022618
0.034148
0.0073593
-0.030272
-0.0031647
0.040845
0.044672
0.070185
0.073693
0.012143
0.0051269
0.013419
-0.015283
-0.028678
-0.056742
-0.084806
-0.09246
-0.036969
-0.01911
-0.042072
-0.059612
-0.034099
-0.014964
-0.027721
0.022667
0.033191
-0.010819
-0.021343
-0.0044404
-0.026445
-0.036331
-0.057061
-0.058655
-0.054509
0.0070404
0.0073593
-0.013051
-0.002208
0.0028946
0.028088
0.034148
0.064444
0.048818
0.022348
0.037018
0.026494
0.0044891
-0.0053971
-0.024532
-0.050363
-0.051958
0.0044891
0.0076782
-0.019748
-0.0050782
0.0057648
0.0070404
0.019478
0.062212
0.0051269
-0.0063538
0.037656
0.008635
-0.026126
-0.054828
-0.065033
-0.078109
-0.023894
0.0032135
-0.018153
-0.034418
-0.013689
0.0028946
0.0025757
0.047542
0.057109
0.01597
0.0089539
0.034467
0.0044891
-0.0073105
-0.012094
-0.038883
-0.036331
0.045947
0.029364
-0.015921
-0.0076295
0.0028946
0.022986
0.044991
0.10144
0.06572
0.024899
0.017246
0.016927
0.014694
0.0013
-0.022299
-0.045899
-0.03091
0.017246
0.023305
0.025218
0.023624
0.035104
0.049137
0.064444
0.078157
0.0003433
-0.0015702
0.022029
0.01597
0.010548
-0.03665
-0.054509
-0.07173
-0.031229
-0.0066727
-0.011456
-0.017835
0.0092728
0.013419
0.012462
0.055515
0.064444
0.028726
0.025856
0.052645
0.032872
0.015651
-0.017835
-0.047812
-0.049088
0.022348
0.024899
0.0067215
-0.00029452
-0.002208
0.0076782
0.029683
0.064125
0.049455
0.024262
0.029045
0.0076782
-0.012094
-0.0041214
-0.040477
-0.063758
-0.042391
0.011824
0.010548
-0.024213
-0.0031647
0.019159
0.019797
0.048499
0.084217
0.016608
-0.0053971
0.028726
0.024899
0.019797
-0.0041214
-0.034418
-0.02804
0.0003433
0.042758
0.046585
0.0079971
0.021072
0.028726
-0.0066727
0.04818
0.099205
0.022029
0.01023
0.023943
0.011824
-0.012094
-0.042072
-0.078427
-0.068222
0.0057648
0.0013
-0.021024
-0.024851
-0.012094
-0.0028458
0.0038513
0.049455
0.037018
-0.011137
-0.0028458
-0.015283
-0.055785
-0.055147
-0.039202
-0.079065
-0.081617
-0.0098618
-0.014008
-0.025488
-0.0060349
-0.0015702
0.022348
0.040845
0.066358
0.016289
0.0092728
0.037656
0.03638
0.02171
-0.010819
-0.028678
-0.037288
-0.017835
0.025218
0.032553
0.0076782
0.037018
0.055196
0.06285
0.080071
0.1008
0.052326
0.03064
0.074012
0.067952
0.036061
0.00066221
-0.016878
-0.026445
0.020435
0.044991
0.023624
0.008635
0.0057648
0.0079971
0.054558
0.097611
0.090276
0.01597
-0.00061343
0.0003433
-0.014645
-0.015921
-0.019748
-0.072049
-0.065033
0.0060837
0.012781
-0.036012
-0.052915
-0.034418
-0.005716
0.0051269
0.021072
-0.036012
-0.041753
-0.010181
-0.019748
-0.028678
-0.053552
-0.077471
-0.10235
-0.079065
-0.026445
-0.0105
-0.023575
-0.010819
0.0051269
0.038612
0.058066
0.075606
0.0076782
0.016289
0.044353
0.034467
0.025856
-0.0053971
-0.031548
-0.042072
0.015651
0.052963
0.047542
0.026494
0.05392
0.08039
0.071779
0.10016
0.10813
0.066995
0.048499
0.080709
0.066358
0.059661
0.029045
-0.016878
-0.034418
0.055515
0.075287
0.022348
0.022029
0.048499
0.065401
0.066358
0.10335
0.063806
0.0131
0.057747
0.056471
0.036699
0.0032135
-0.027083
-0.032823
-0.011456
0.03925
0.031278
0.0076782
0.02171
0.027451
0.033829
0.089957
0.094103
0.017246
0.019797
0.044672
0.037975
0.022986
-0.0031647
-0.029953
-0.051958
-0.034099
-0.005716
0.0073593
2.4388e-05
0.016608
0.026494
0.024899
0.072417
0.053601
-0.018153
0.0054459
0.021391
-0.0069916
0.00098112
-0.021661
-0.065671
-0.078427
0.0064026
0.0060837
-0.012732
-0.010181
-0.013689
0.013738
0.037975
0.064763
0.043077
0.020435
0.016608
0.0131
-0.0095429
-0.020386
-0.015921
-0.040477
-0.048131
0.0070404
0.008635
-0.026126
-0.0041214
0.0064026
0.030959
0.048818
0.077838
0.010867
-0.0025269
0.016608
0.020116
-0.0015702
-0.028359
-0.048131
-0.060569
-0.029634
0.0013
-0.0076295
-0.025488
-0.0038025
0.0051269
0.0131
0.055515
0.082941
0.0079971
-0.018791
0.0076782
-0.0041214
-0.0018891
-0.043347
-0.067585
-0.066947
0.0076782
0.017883
-0.0012513
-0.014008
-0.023575
0.0092728
0.019159
0.054558
0.022029
-0.027721
-0.0044404
0.028407
-0.012094
-0.041753
-0.058974
-0.087357
-0.082892
-0.013689
-0.018472
-0.06025
-0.046536
-0.0095429
0.0032135
-0.014008
0.030002
-0.010819
-0.025488
-0.0063538
-0.018791
-0.025807
-0.043028
-0.063439
-0.094373
-0.071093
-0.012413
-0.014008
-0.036331
0.0089539
0.0092728
-0.0050782
0.035742
0.062531
-0.021343
-0.016878
0.021072
-0.0015702
-0.022618
-0.042391
-0.077152
-0.088314
-0.020705
0.0028946
-0.026764
-0.025807
-0.01624
-0.00061343
-0.00093234
0.038612
0.037337
-0.0095429
-0.0063538
0.022986
-0.012094
-0.039202
-0.050363
-0.086081
-0.083849
-0.002208
0.0013
-0.016559
-0.0050782
0.0073593
0.044991
0.083898
0.091552
0.01597
0.010867
0.058385
0.052007
0.043396
0.011824
-0.030591
-0.077152
-0.043347
0.019159
0.0054459
-0.014645
-0.031229
-0.027083
-0.01624
0.0073593
0.034786
-0.030272
-0.046218
-0.031548
-0.047493
-0.047174
-0.062482
-0.094054
-0.11829
-0.058017
-0.029634
-0.046855
-0.06312
-0.051958
-0.028359
-0.038883
0.0019378
0.020754
-0.044942
-0.056423
-0.005716
-0.031867
-0.059612
-0.064714
-0.10107
-0.10075
-0.017835
0.011186
-0.028678
-0.025488
-0.0063538
0.017883
0.056471
0.08039
0.029364
0.010867
0.030959
0.035104
2.4388e-05
-0.012094
-0.021343
-0.048769
-0.049407
-0.018153
0.0028946
-0.010181
0.015651
0.01023
0.023624
0.039569
0.068271
-0.00093234
-0.012094
0.03638
0.020754
0.0089539
-0.0079484
-0.029315
-0.053234
-0.009224
0.011505
-0.024213
-0.039839
-0.0085862
0.0038513
0.0016189
0.033829
0.037018
-0.029634
-0.042072
0.0067215
-0.049407
-0.072049
-0.082573
-0.10936
-0.11957
-0.037288
-0.03091
-0.056104
-0.053552
-0.039839
-0.00093234
0.020116
0.036061
0.0032135
-0.033142
-0.014645
-0.012732
-0.038564
-0.045261
-0.070455
-0.10266
-0.10075
-0.03665
-0.0073105
-0.044623
-0.032823
-0.039839
-0.029953
0.0013
0.019478
-0.034099
-0.040477
-0.015921
-0.02804
-0.040796
-0.069498
-0.10522
-0.12403
-0.080979
-0.039202
-0.053234
-0.088633
-0.073006
-0.047174
-0.04845
-0.0076295
0.014056
-0.067903
-0.087357
-0.018791
-0.036331
-0.060569
-0.089908
-0.10362
-0.11797
-0.036969
-0.0105
-0.022299
-0.041434
-0.018791
0.011824
0.039569
0.089638
0.06572
0.025218
0.024262
0.030002
0.015651
0.019478
0.0073593
-0.038564
-0.053234
0.017246
0.015013
-0.028996
-0.034737
-0.021024
-0.00093234
0.030959
0.075606
-0.0050782
-0.017835
0.015651
-0.0025269
-0.01624
-0.036969
-0.035694
-0.050044
-0.026445
0.026175
0.045947
0.035742
0.041164
0.06859
0.080709
0.1075
0.12408
0.045947
0.046904
0.089319
0.063487
0.054239
0.019159
-0.029953
-0.024851
0.052645
0.029045
0.016927
0.02777
0.0092728
0.004808
0.052645
0.081984
0.08613
0.047861
0.036699
0.037656
0.015332
0.013738
-0.0034836
-0.03665
-0.043347
0.057109
0.054558
0.021391
0.0131
0.028407
0.075287
0.079752
0.087406
0.05392
0.054877
0.079114
0.063487
0.04531
0.023305
0.0038513
-0.025488
-0.00029452
0.040845
0.045947
0.01597
0.034148
0.041164
0.047223
0.075606
0.084536
0.017564
0.025218
0.020116
0.00098112
0.012781
-0.024851
-0.054509
-0.083849
-0.026445
0.0095917
-0.01911
-0.023256
-0.0069916
-0.0034836
0.015013
0.047542
0.043396
-0.012413
0.0079971
0.033829
-0.0079484
-0.023894
-0.037926
-0.058017
-0.037288
0.018202
0.021072
-0.012094
-0.00093234
0.021391
0.06285
0.069866
0.093784
0.06285
0.044672
0.064125
0.065401
0.037975
0.023943
-0.0069916
-0.032504
-0.037288
0.020754
0.044034
0.00098112
-0.00061343
0.0076782
0.03351
0.04531
0.05105
-0.0098618
-0.0069916
0.023943
0.01597
0.0019378
-0.017835
-0.046536
-0.064714
-0.025488
-0.0028458
0.0079971
0.014694
0.020754
0.031915
0.030959
0.067952
0.078476
0.024899
0.018521
0.03638
0.0028946
0.0035324
-0.0098618
-0.03665
-0.062482
0.0060837
0.039569
0.012143
-0.018791
-0.0066727
-0.0076295
0.015332
0.073693
0.058385
0.0057648
-0.0041214
0.0025757
-0.021661
-0.031229
-0.040158
-0.059931
-0.070774
0.013738
0.015651
-0.03665
-0.029315
-0.014008
0.0016189
0.049137
0.093146
0.015651
-0.035375
-0.0025269
0.0073593
-0.0044404
-0.025488
-0.056104
-0.092778
-0.039839
0.0032135
-0.0095429
-0.029634
-0.011775
0.0003433
-0.011456
0.044353
0.052645
-0.017197
-0.019748
0.028726
0.004808
-0.021024
-0.054509
-0.073325
-0.073963
0.0003433
0.032234
-0.00093234
-0.0015702
0.0051269
0.020754
0.037975
0.058066
0.052645
0.038294
0.031278
0.028726
0.017564
0.0076782
-0.0034836
-0.074601
-0.062801
0.0028946
0.0032135
-0.044304
-0.032186
-0.018791
0.008635
0.0095917
-0.0038025
-0.041753
-0.04558
-0.032823
-0.039839
-0.062482
-0.081617
-0.10107
-0.1285
-0.10266
-0.037288
-0.036012
-0.060569
-0.044623
-0.020705
-0.015283
0.019478
0.040207
-0.038245
-0.04845
0.015013
-0.016559
-0.029315
-0.05132
-0.068222
-0.091184
-0.01624
-0.0105
-0.033461
-0.02804
-0.0069916
0.013419
0.023624
0.057747
0.044991
0.022986
0.012462
0.023305
0.016927
0.019159
-0.012413
-0.041434
-0.04271
0.031915
0.048499
0.013738
0.0076782
0.03351
0.068271
0.058385
0.083898
0.038612
0.03351
0.030321
-0.0069916
-0.016559
-0.023575
-0.03665
-0.068222
-0.051639
-0.00061343
0.0099106
-0.03378
-0.02804
-0.01624
0.0022568
0.042758
0.069866
-0.0060349
-0.01337
0.021391
-0.021024
-0.012094
-0.01911
-0.056104
-0.068222
-0.023575
-0.02804
-0.011456
-0.0063538
-0.0105
0.0051269
0.024899
0.059342
0.041164
-0.017835
-0.017835
0.016927
-0.0034836
-0.03091
-0.047812
-0.072687
-0.077471
-0.0015702
-0.0025269
-0.026445
-0.021343
-0.0063538
0.029683
0.049455
0.085173
0.046266
0.028726
0.066677
0.052645
0.031278
0.017246
0.008635
-0.017197
-0.0089051
0.041802
0.037018
0.0003433
0.013738
0.046904
0.066358
0.069866
0.085811
0.0028946
-0.0095429
0.0089539
0.011505
0.0054459
-0.018791
-0.056423
-0.078109
-0.027402
0.0025757
-0.01911
-0.023894
-0.00093234
0.0099106
0.012143
0.041483
0.047223
-0.02198
-0.020386
0.037656
-0.0066727
-0.026126
-0.047493
-0.074282
-0.088314
-0.018153
-0.023575
-0.01624
-0.005716
-0.0044404
0.021391
0.046585
0.075606
0.047861
0.023305
0.03064
0.033191
0.020754
-0.00061343
-0.0082673
-0.035375
-0.020386
0.030002
0.034786
-0.0079484
0.0067215
0.033829
0.047542
0.050731
0.074012
0.045947
0.03638
0.055834
0.014375
0.0025757
0.0064026
0.0013
-0.041434
-0.032186
0.010548
0.0013
-0.0095429
-0.0098618
-0.026445
-0.029634
0.035742
0.035423
-0.034737
-0.024213
0.010867
-0.020386
-0.052915
-0.069498
-0.075557
-0.11128
-0.041434
-0.009224
-0.01624
-0.014327
-0.010181
0.00098112
0.015651
0.038931
0.028407
-0.0066727
-0.0031647
0.0051269
-0.015602
-0.031548
-0.040158
-0.079703
-0.063439
0.017246
0.023305
-0.020705
0.0013
0.01884
0.042758
0.059023
0.087725
0.032872
0.035742
0.071141
0.049137
0.025856
2.4388e-05
-0.024851
-0.045899
-0.031229
0.025218
0.02171
0.0035324
0.014694
0.020116
0.027132
0.05679
0.07146
0.0079971
-0.0015702
0.045947
0.023305
0.004808
-0.035694
-0.070455
-0.066309
-0.0105
0.0025757
-0.0076295
-0.023256
-0.0073105
-0.0012513
0.027132
0.074649
0.060617
0.016608
0.029045
0.047542
-0.0063538
-0.0063538
0.017246
0.0054459
-0.02517
0.026813
0.025537
-0.0082673
-0.0105
0.027132
0.034148
0.052645
0.06572
-0.0082673
-0.029315
0.017564
0.010867
-0.026764
-0.046218
-0.073325
-0.10266
-0.066309
-0.0050782
-0.010819
-0.035694
-0.012732
-0.022299
-0.010819
0.029683
0.05105
-0.024213
-0.019748
0.01884
0.0067215
-0.0050782
-0.039202
-0.06599
-0.079384
-0.011456
0.025537
0.004808
-0.0076295
0.0067215
0.02458
0.037337
0.078476
0.064444
0.020116
0.027451
0.037975
0.012781
-0.0047593
-0.014327
-0.040477
-0.050363
0.024899
0.012143
-0.024532
0.0092728
0.021072
0.055196
0.061255
0.093784
0.064763
0.034148
0.06285
0.06572
0.054877
0.04818
0.039888
0.017246
0.021072
0.061574
0.064763
0.019797
0.041483
0.037975
0.051688
0.091552
0.10367
-0.011137
-0.027402
0.022348
-0.018791
-0.027402
-0.058655
-0.085443
-0.11351
-0.073006
-0.021343
-0.029634
-0.059612
-0.039202
-0.024532
-0.020067
0.015332
0.01023
-0.030272
-0.016878
0.0064026
-0.042072
-0.043028
-0.051958
-0.06312
-0.056104
0.021391
0.0076782
-0.002208
0.016927
0.030959
0.054239
0.07433
0.10558
0.081346
0.061893
0.044991
0.037018
0.020435
0.028726
-0.00029452
-0.021024
-0.020386
0.026494
0.034148
-0.0082673
0.017564
0.041483
0.061255
0.084854
0.10909
0.052963
0.04818
0.072098
0.069866
0.051369
0.031278
0.0028946
-0.03378
-0.0105
0.042121
0.034148
0.0003433
0.022029
0.04531
0.044353
0.073055
0.081028
0.011824
0.0070404
0.047542
0.026813
0.019159
0.0073593
-0.029634
-0.051639
0.019159
0.066358
0.045629
0.017564
0.018521
0.050731
0.064763
0.10144
0.076244
0.030959
0.026175
0.03925
0.02458
0.0073593
-0.021661
-0.059612
-0.02517
0.031278
0.010867
-0.026764
0.0067215
0.022029
0.04531
0.05679
0.10877
0.046585
0.022029
0.050412
0.059342
0.044672
0.011824
-0.031548
-0.052915
-0.020386
0.031278
0.035742
-0.015602
0.010548
0.022029
0.016927
0.050731
0.075925
0.0019378
-0.031548
-0.009224
-0.03091
-0.011456
-0.031548
-0.058974
-0.076514
-0.011137
-0.0031647
-0.019748
-0.038245
-0.0105
0.0095917
0.017564
0.061893
0.066677
0.018202
0.012143
0.038612
0.024262
-0.0082673
-0.036969
-0.041753
-0.04271
0.01597
0.012462
-0.029634
-0.026764
-0.0098618
0.03064
0.045629
0.070185
0.0067215
-0.015283
0.014375
0.0060837
0.0038513
-0.01624
-0.02517
-0.053871
-0.046855
0.0079971
0.01597
-0.0085862
0.017246
0.050093
0.037337
0.074968
0.089638
0.01023
0.037656
0.080071
0.041164
0.014375
-0.018472
-0.029315
-0.053234
-0.018791
0.025856
-0.0050782
-0.038883
-0.011137
0.0016189
-0.0082673
0.029045
0.02458
-0.014645
-0.033142
-0.019429
-0.054509
-0.073325
-0.082892
-0.086719
-0.094054
-0.042072
-0.030272
-0.057379
-0.04271
-0.041753
-0.022299
-0.009224
0.027132
-0.014327
-0.054509
-0.01337
-0.01337
-0.020705
-0.031229
-0.051639
-0.082254
-0.089908
-0.031867
-0.0079484
-0.034418
-0.0085862
0.012143
0.01023
0.016927
0.059979
-0.013051
-0.0060349
0.017246
0.014375
0.0095917
-0.024532
-0.062482
-0.066628
-0.018791
0.0044891
-0.0073105
-0.017516
0.0019378
0.017883
-0.0034836
0.022029
0.037975
0.0038513
0.011186
0.022348
-0.026126
-0.043028
-0.063439
-0.078109
-0.069498
0.010548
0.021391
-0.011456
-0.015283
-0.002208
0.03351
0.040845
0.069228
0.040207
0.012462
0.018521
0.017246
-0.0073105
-0.023894
-0.025807
-0.062801
-0.067585
-0.014645
0.011505
-0.020067
0.0051269
0.0016189
0.010548
0.039888
0.051369
0.0013
0.0092728
0.026175
0.020435
0.011186
-0.0034836
-0.024213
-0.03952
-0.0060349
0.041802
0.051369
0.0060837
0.012781
0.03064
0.038612
0.072417
0.08039
0.02458
0.022986
0.040845
-0.020386
-0.05419
-0.073006
-0.085443
-0.10362
-0.046855
-0.062801
-0.11223
-0.11925
-0.052596
-0.058017
-0.056423
-0.019429
-0.032504
-0.064395
-0.064714
-0.046536
-0.074919
-0.075238
-0.055466
-0.096924
-0.090865
-0.0025269
0.0057648
-0.027721
-0.013051
-0.0018891
0.029045
0.062531
0.09187
0.02777
0.012781
0.037018
0.03351
0.0044891
-0.021024
-0.045899
-0.058974
-0.010819
0.0051269
0.010548
-0.005716
0.0057648
0.015013
0.013738
0.033829
0.046585
0.012781
-0.0041214
0.015651
-0.0079484
-0.020386
-0.044942
-0.06599
-0.079065
-0.014645
-0.023256
-0.036969
-0.03378
-0.011775
0.018202
0.026175
0.051369
0.032234
-0.0105
-0.005716
0.013419
0.0019378
-0.005716
-0.020067
-0.064077
-0.065033
0.0089539
0.028407
-0.012732
-0.020386
-0.0095429
0.046266
0.058704
0.074012
0.030321
0.0041702
0.022029
0.022986
0.0032135
-0.04558
-0.047493
-0.071093
-0.049726
-0.0028458
-0.0095429
-0.039202
-0.012413
-0.0028458
0.0025757
0.029045
0.044353
-0.028678
-0.015921
0.031278
0.0051269
-0.0053971
-0.02804
-0.05419
-0.090227
-0.041434
0.0095917
0.0064026
-0.0047593
0.0016189
0.0057648
-0.014964
0.034786
0.049455
0.017883
-0.0044404
-0.011456
-0.024851
-0.034737
-0.070136
-0.088314
-0.097562
-0.021661
-0.023575
-0.055785
-0.050682
-0.041115
-0.022618
-0.0050782
0.018521
-0.012094
-0.031548
-0.0098618
-0.017516
-0.039202
-0.041115
-0.03952
-0.077152
-0.058974
-0.022618
-0.01624
-0.035375
0.0054459
0.013738
0.030002
0.061255
0.08613
0.015332
0.0099106
0.031596
0.01597
0.014694
0.0022568
-0.0082673
-0.046218
-0.0069916
0.025218
0.015332
-0.005716
0.042121
0.063487
0.045629
0.082303
0.081346
0.017883
0.010867
0.031596
0.02777
0.0076782
-0.035375
-0.080341
-0.060887
0.035423
0.011824
-0.054828
-0.044304
-0.036969
-0.027083
0.024899
0.059661
0.021391
-0.013689
-0.011456
-0.03091
-0.038883
-0.037288
-0.056104
-0.08353
-0.097243
-0.029953
-0.01911
-0.052277
-0.028359
-0.014964
0.016608
0.031278
0.05679
2.4388e-05
-0.00029452
0.038931
0.026494
0.0076782
-0.0012513
-0.020386
-0.050682
-0.012413
0.034786
0.035104
0.021391
0.0025757
0.01884
0.029364
0.06859
0.074968
0.012143
-0.009224
0.025537
0.0028946
-0.011137
-0.033461
-0.052915
-0.063758
0.0057648
0.030959
0.0067215
-0.018153
-0.02517
0.032553
0.059023
0.096654
0.082622
0.027132
0.039888
0.044353
0.011824
0.0035324
-0.016878
-0.033461
-0.03378
0.043715
0.054239
0.008635
-0.00093234
0.048818
0.044672
0.055196
0.087725
0.043715
0.032553
0.075925
0.041164
0.036061
0.03925
-0.00029452
-0.038883
-0.01624
0.041483
0.044034
0.008635
0.019478
0.017246
0.00098112
0.020116
0.052326
0.008316
0.0019378
0.008635
-0.04271
-0.068222
-0.084806
-0.10649
-0.10904
-0.047174
-0.029953
-0.056104
-0.058336
-0.032823
-0.014964
-0.019429
0.023624
0.018521
-0.018791
-0.0105
0.015332
-0.012413
-0.024213
-0.037607
-0.046855
-0.035056
0.05679
0.049455
0.0044891
0.021072
0.05105
0.082622
0.097611
0.11005
0.038612
0.046585
0.082622
0.06572
0.040207
0.013419
-0.0053971
-0.03952
-0.027083
0.023943
0.0032135
-0.032504
0.0032135
0.016289
0.019478
0.059023
0.075925
0.016289
0.0060837
0.048499
0.052963
0.022986
-0.021024
-0.027721
-0.01624
0.047861
0.074968
0.044034
0.015651
0.061893
0.07752
0.075925
0.079752
0.08326
0.034786
0.028726
0.056153
0.023943
-0.0044404
-0.015921
-0.036969
-0.02804
0.044991
0.041164
0.0003433
0.02777
0.03925
0.058066
0.067633
0.098249
0.058385
0.048499
0.063806
0.057428
0.011505
-0.020386
-0.009224
-0.046855
-0.047493
0.00066221
-0.002208
-0.038245
-0.026126
-0.0050782
0.022348
0.055196
0.061574
-0.016559
-0.029953
0.023624
0.02777
0.0025757
-0.036331
-0.054828
-0.064714
-0.017516
0.0038513
-0.012413
-0.015283
0.0089539
0.020435
0.020116
0.042121
0.041802
-0.0079484
0.012143
0.026813
-0.005716
-0.032186
-0.055785
-0.064714
-0.051639
0.014375
0.0019378
-0.0069916
-0.0060349
-0.013689
0.015651
0.043715
0.081665
0.043396
0.008316
0.022029
0.037975
0.020116
-0.0038025
-0.027721
-0.051958
-0.037288
0.029683
0.037337
0.008316
0.0079971
0.014694
0.02458
0.041164
0.070185
0.01884
0.0092728
0.037018
0.017246
-0.016878
-0.051639
-0.066309
-0.080979
-0.041115
-0.0085862
-0.019429
-0.036012
-0.014964
0.017246
0.0079971
0.017564
0.024899
-0.021661
-0.012413
-0.0012513
-0.016878
-0.026764
-0.046855
-0.092141
-0.10298
-0.024532
0.0060837
-0.017835
-0.041115
-0.034099
-0.0047593
0.010548
0.05105
0.04818
0.014375
0.0022568
0.02171
0.0022568
0.0067215
-0.012094
-0.057698
-0.065033
0.026175
0.047223
0.015332
0.0131
0.027132
0.041802
0.050093
0.099524
0.059661
0.059661
0.074012
0.03925
0.01884
-0.0034836
-0.028359
-0.045899
-0.015283
0.03064
0.014375
-0.024851
-0.0095429
0.01884
0.01884
0.028726
0.038294
-0.0079484
-0.0038025
0.031596
0.0057648
-0.0060349
-0.032186
-0.070455
-0.074282
-0.00093234
0.020754
-0.0082673
-0.01911
0.010548
0.026175
0.029045
0.046266
0.03638
-0.0066727
0.0076782
0.022348
-0.020705
-0.030591
-0.034418
-0.058336
-0.070136
0.0028946
0.011824
-0.025488
-0.0034836
-0.0044404
0.017246
0.027132
0.078476
0.017246
-0.020386
0.011505
0.029364
0.022986
-0.0053971
-0.041115
-0.072049
-0.041434
0.011505
0.0057648
-0.0047593
0.016608
0.029683
0.026175
0.035423
0.073055
0.0131
-0.02198
0.030002
0.010867
-0.017197
-0.034099
-0.062163
-0.097562
-0.022299
0.016608
-0.014008
-0.018791
0.0013
0.0079971
0.029683
0.074012
0.084217
0.034148
0.032553
0.046585
0.017883
0.025856
0.010867
-0.020067
-0.022299
0.039569
0.046266
0.0044891
0.015332
0.032872
0.066677
0.078157
0.089638
0.039888
0.019478
0.049455
0.039888
0.015651
-0.010819
-0.027402
-0.059612
-0.022937
0.02171
0.010867
-0.04558
-0.025488
0.0099106
0.0044891
0.025856
0.043715
-0.0082673
-0.0038025
0.018202
0.008635
-0.0063538
-0.048131
-0.071093
-0.091822
-0.052277
-0.0044404
-0.015921
-0.040158
-0.015602
0.0028946
-0.0018891
0.015013
-0.00061343
-0.024213
-0.028996
-0.0073105
-0.04558
-0.058655
-0.06312
-0.075876
-0.072368
0.0051269
0.0032135
-0.023256
-0.011137
0.0131
0.034467
0.055196
0.079752
0.068909
0.032234
0.041483
0.044034
0.031915
-0.0028458
-0.035375
-0.056742
-0.03378
0.030002
0.032553
-0.036969
-0.0095429
-0.0041214
-0.019429
0.017246
0.071141
-0.010819
-0.036012
0.0051269
-0.011775
-0.019748
-0.05419
-0.069179
-0.087676
-0.035375
0.0067215
0.0057648
-0.013051
0.014694
0.029045
0.025537
0.070185
0.080071
0.029683
0.022986
0.052963
0.021072
-0.0060349
-0.039839
-0.08927
-0.091184
-0.0047593
0.0019378
-0.041434
-0.064077
-0.081935
-0.027721
0.0038513
0.035423
-0.0089051
-0.035375
-0.017197
-0.014327
-0.040158
-0.053234
-0.037926
-0.073006
-0.069498
-0.0018891
-0.012094
-0.055147
-0.033461
-0.0066727
-0.0044404
0.022029
0.057109
-0.015283
-0.040477
-0.0041214
0.0079971
-0.014964
-0.047812
-0.066309
-0.080022
-0.049407
0.010548
0.0041702
-0.020705
2.4388e-05
0.023305
0.032872
0.066358
0.079114
0.015332
0.022029
0.039569
0.022667
0.010548
-0.0085862
-0.014008
-0.046855
2.4388e-05
0.017883
0.0054459
-0.0041214
0.0073593
0.034786
0.015013
0.051369
0.05392
0.0013
-0.013689
-0.00029452
-0.019429
-0.03952
-0.055785
-0.080022
-0.072687
-0.0031647
-0.0095429
-0.052915
-0.045261
-0.023894
0.0060837
0.026813
0.05679
0.01023
-0.011775
-0.0105
-0.015283
-0.0095429
-0.024851
-0.032504
-0.067903
-0.062163
-0.009224
-0.026126
-0.027402
0.010548
0.027132
0.028088
0.054877
0.063169
0.0025757
-0.010181
0.030959
0.0038513
-0.031548
-0.057379
-0.060569
-0.065352
-0.032504
-0.02517
-0.054828
-0.056742
-0.03665
-0.023894
-0.014008
0.022029
0.023943
-0.0063538
-0.012094
0.0044891
-0.022937
-0.0082673
-0.0076295
-0.058017
-0.064077
0.022986
0.037337
-0.014964
-0.013689
-0.00061343
0.01023
0.030959
0.070822
0.014375
-0.032823
0.0016189
-0.020386
-0.043985
-0.041115
-0.051639
-0.09246
-0.060569
0.0003433
0.019478
-0.0082673
0.011186
0.021072
0.035742
0.070185
0.085173
0.016608
0.0067215
0.047861
0.018202
0.021072
-0.014645
-0.080022
-0.11478
-0.012413
0.017883
-0.021024
-0.03952
-0.011775
-0.013689
-0.028359
0.041483
0.051369
0.0038513
0.0076782
0.042121
0.0057648
-0.014645
-0.033461
-0.051958
-0.052596
0.025856
0.0089539
-0.0060349
-0.013689
0.00098112
0.028726
0.008316
0.046904
0.043715
-0.0028458
-0.0105
-0.02517
-0.0085862
-0.027721
-0.072368
-0.10266
-0.085443
-0.011775
-0.0028458
-0.036331
-0.026445
-0.01911
-0.0015702
0.038931
0.07146
-0.0082673
-0.0098618
0.019797
0.0016189
-0.0060349
-0.03378
-0.064077
-0.075876
-0.015921
0.0028946
-0.002208
-0.01911
-0.00029452
0.015651
0.008635
0.05105
0.053601
-0.012413
-0.012094
0.031278
0.016927
-0.0018891
-0.030591
-0.051958
-0.06025
0.014694
-0.0073105
-0.039839
-0.020386
-0.00093234
0.01884
0.029364
0.063806
0.034148
-0.012094
0.0041702
0.0079971
-0.017516
-0.024213
-0.035056
-0.072687
-0.098838
-0.0063538
0.016927
-0.026445
-0.02198
0.0079971
0.029364
0.037018
0.06572
0.01023
-0.0076295
0.022986
0.013738
0.0022568
-0.022299
-0.043985
-0.042072
-0.028678
0.025856
0.022029
-0.0085862
0.011186
0.028088
0.042121
0.074649
0.089638
0.036061
0.039888
0.072417
0.037656
0.0089539
-0.0079484
-0.03091
-0.028996
0.03925
0.034148
0.015651
0.0089539
0.037656
0.061574
0.03064
0.05392
0.070822
0.028726
0.012781
0.02777
-0.0015702
-0.015283
0.0025757
-0.059293
-0.077152
-0.0034836
-0.015921
-0.043666
-0.0095429
-0.0044404
0.011505
0.02458
0.049455
-0.0066727
-0.0082673
0.01597
-0.0018891
-0.029953
-0.038564
-0.053234
-0.078109
-0.050682
-0.011137
-0.013689
-0.017835
-0.0095429
0.0073593
0.0131
0.037018
0.034148
-0.031867
0.0003433
0.03351
-0.011456
-0.045261
-0.045899
-0.082254
-0.087676
-0.043347
-0.028996
-0.045899
-0.052596
-0.043347
-0.02198
-0.011137
0.015013
0.011505
-0.01624
0.0013
0.029683
-0.019429
-0.0038025
-0.027721
-0.048769
-0.059293
0.041483
0.047223
0.01023
0.032234
0.043715
0.054239
0.063487
0.11706
0.061255
0.03638
0.038294
0.03351
0.031915
0.017883
-0.0038025
-0.043347
-0.010181
0.056153
0.034467
0.0003433
0.02171
0.037656
0.046904
0.076882
0.08613
0.0070404
0.0131
0.04818
0.038294
-0.00061343
-0.046218
-0.064077
-0.058974
-0.021024
0.010548
-0.0076295
-0.020386
-0.0044404
0.0099106
0.0003433
0.047542
0.041164
-0.0089051
-0.011137
0.01023
-0.027083
-0.045261
-0.081298
-0.11223
-0.099794
-0.023894
-0.041115
-0.078427
-0.094373
-0.074919
-0.04271
-0.028996
0.0044891
-0.0105
-0.046855
-0.051001
-0.045899
-0.061844
-0.040796
-0.046855
-0.090227
-0.086719
-0.010181
0.0054459
-0.022299
0.0013
0.02777
0.029364
0.054877
0.074012
0.0022568
-0.0041214
0.050093
0.049137
0.03638
0.0131
-0.0050782
-0.01911
0.0070404
0.025537
0.014375
0.015013
0.049137
0.066358
0.062531
0.10654
0.10526
0.022029
0.017564
0.061255
0.030959
-0.011456
-0.0079484
-0.049726
-0.064077
0.008316
0.033191
0.0070404
-0.00029452
-0.00029452
0.029364
0.032872
0.066677
0.053282
-0.0028458
-0.0012513
0.019797
-0.011137
-0.022618
-0.035694
-0.068222
-0.070455
0.0022568
-0.011456
-0.030591
-0.014008
-0.0053971
0.021072
0.040526
0.082941
0.0054459
-0.013051
0.044991
0.037337
0.011824
-0.016878
-0.033461
-0.056423
-0.028359
0.037018
0.0067215
-0.034737
-0.0089051
0.014694
0.020116
0.040526
0.022029
-0.026445
-0.015283
-0.0018891
-0.034418
-0.049407
-0.057379
-0.087038
-0.094054
-0.012094
-0.0047593
-0.014327
2.4388e-05
-0.02198
0.008316
0.037656
0.06859
0.064763
0.028726
0.035423
0.037018
0.0089539
-0.00029452
-0.013689
-0.034099
-0.036012
0.021072
0.016289
-0.032186
0.0028946
0.025537
0.042758
0.046585
0.053601
0.023943
0.016289
0.032234
0.026494
-0.0015702
-0.032186
-0.062482
-0.081935
-0.04271
0.0019378
-0.014645
-0.051639
-0.023256
0.010548
0.010548
0.03064
0.021391
-0.037288
-0.029634
0.011505
-0.012732
-0.03091
-0.055466
-0.089908
-0.082573
-0.017835
-0.012094
-0.042391
-0.051001
-0.020386
0.012462
0.014056
0.060617
0.055834
-0.0095429
-0.0031647
0.033829
0.0038513
-0.0105
-0.027402
-0.050682
-0.057379
0.013738
0.026175
-0.0063538
-0.022299
-0.033461
0.0064026
0.033829
0.073374
0.035742
-0.0041214
0.0003433
0.00098112
-0.023575
-0.012094
-0.027402
-0.06025
-0.024213
0.017246
0.035104
0.0016189
0.01023
0.015013
0.026494
0.053601
0.083579
0.016608
-0.002208
0.026175
-0.0028458
-0.040477
-0.060887
-0.056423
-0.072687
-0.049726
-0.044623
-0.036969
-0.037288
-0.023575
-0.010181
-0.0028458
0.031278
0.015651
-0.026126
-0.011137
-0.0018891
-0.014008
-0.035375
-0.051639
-0.08353
-0.091822
-0.015283
-0.0089051
-0.034418
-0.03378
-0.026764
0.010867
0.026813
0.05679
0.034786
0.008635
0.023305
0.03925
0.020435
0.004808
-0.013689
-0.040477
-0.023894
0.045947
0.048818
0.0035324
0.0028946
0.020435
0.017564
0.042758
0.094422
-0.00061343
-0.015921
0.01884
-0.0073105
-0.0089051
-0.03665
-0.067266
-0.085762
-0.031548
0.0054459
-0.016878
-0.023256
0.0064026
0.008635
0.025856
0.055196
0.059661
-0.002208
-0.0089051
0.020435
0.0032135
-0.023575
-0.050682
-0.073644
-0.076514
0.0016189
0.011824
-0.017197
-0.016878
0.010548
0.030321
0.029683
0.050731
0.066995
0.032553
0.050093
0.055834
0.041483
0.0073593
-0.010181
-0.03091
-0.032823
0.055515
0.060936
0.0038513
0.011505
0.026494
0.05679
0.057747
0.10144
0.03638
0.008635
0.018521
0.0089539
0.0095917
-0.029634
-0.058017
-0.082573
-0.056742
-0.013689
-0.015283
-0.041753
-0.03952
-0.014327
-0.0028458
0.017883
0.018521
-0.043028
-0.035375
-0.012094
-0.036012
-0.023256
-0.044942
-0.08066
-0.081935
-0.012094
-0.0034836
-0.036012
-0.032823
-0.011137
0.028407
0.03638
0.072098
0.057747
0.0099106
0.017246
0.028407
0.0073593
-0.010819
-0.018153
-0.049407
-0.051958
0.010548
0.020754
-0.021343
-0.0041214
0.012462
0.028407
0.047542
0.070503
0.0073593
0.004808
0.051369
0.04531
0.020754
-0.011775
-0.022937
-0.034737
-0.034099
0.041483
0.028088
-0.0060349
0.0131
0.034148
0.031596
0.050093
0.07146
0.0019378
-0.013689
0.025537
-0.012413
-0.0050782
-0.026126
-0.067266
-0.10043
-0.053871
-0.0073105
-0.019748
-0.02804
0.0003433
0.0028946
-0.00061343
0.031278
0.044991
-0.00029452
0.0051269
0.031278
-0.0018891
-0.0085862
-0.002208
-0.021024
-0.031548
0.042121
0.045629
0.018521
0.015651
0.0054459
0.03351
0.09187
0.12886
0.063487
0.028088
0.037018
0.028407
0.0051269
-0.014008
-0.026126
-0.040158
-0.029315
0.0099106
0.021391
-0.015921
0.0016189
0.010548
0.0067215
0.047861
0.064763
-0.017835
-0.018153
0.018202
-0.023894
-0.041753
-0.055466
-0.070455
-0.091822
-0.037607
-0.0098618
-0.027721
-0.057698
-0.010819
0.015651
0.018202
0.043715
0.046585
0.011186
-0.00029452
0.011505
-0.0085862
-0.019429
-0.043666
-0.075238
-0.066309
0.00066221
0.0028946
-0.023575
-0.02804
-0.031229
-0.010819
0.038294
0.070503
0.040526
0.0016189
0.016289
0.030959
0.0095917
0.0060837
-0.0098618
-0.025807
-0.031229
0.046904
0.073374
0.035423
0.036699
0.019478
0.04531
0.095697
0.14672
0.026175
0.017246
0.041483
0.016927
-0.0034836
-0.020067
-0.034099
-0.057698
-0.042391
-0.012413
-0.019429
-0.040477
-0.0012513
0.020435
0.008635
0.040845
0.052963
-0.0095429
-0.0018891
0.037018
0.015332
-0.0060349
-0.014008
-0.046536
-0.046536
0.030959
0.037656
-0.0028458
-0.012094
-0.010181
0.029683
0.046585
0.070822
0.027451
-0.021343
-0.002208
-0.0038025
-0.030591
-0.046536
-0.066309
-0.099157
-0.0982
-0.027402
-0.01911
-0.057061
-0.041115
-0.029953
-0.0098618
0.022986
0.052326
-0.0031647
-0.020067
0.016608
0.0060837
-0.012094
-0.038245
-0.056104
-0.08066
-0.055785
-0.021024
-0.012413
-0.037607
-0.017197
-0.0041214
-0.019429
0.004808
0.030002
-0.038883
-0.038564
0.016927
-0.0018891
-0.0089051
-0.043028
-0.047812
-0.088314
-0.005716
0.052326
0.048499
0.032872
0.04818
0.064763
0.082622
0.10909
0.093465
0.058704
0.074968
0.096016
0.066039
0.0038513
-0.014964
-0.032504
-0.044942
0.022348
0.028726
-0.023256
-0.023894
-0.040477
-0.014645
0.011505
0.04818
-0.032823
-0.04845
-0.041434
-0.04845
-0.054509
-0.084806
-0.080979
-0.10745
-0.088952
-0.055785
-0.04845
-0.061844
-0.028678
-0.01337
-0.0082673
0.014694
0.039569
-0.0076295
-0.010819
0.034786
0.01597
0.0044891
-0.021343
-0.048131
-0.054828
0.0079971
0.022348
0.0051269
-0.0079484
0.013419
0.029364
0.022029
0.045629
0.059979
-0.0089051
-0.0095429
0.024899
0.00098112
-0.021024
-0.042391
-0.078746
-0.08066
0.010548
0.023624
-0.022937
-0.0034836
0.0051269
0.037656
0.06572
0.087725
0.031596
0.019797
0.040526
0.0076782
0.026813
2.4388e-05
-0.031229
-0.050044
-0.014645
0.041483
0.033829
-0.0076295
-0.022618
0.018202
0.05679
0.050093
0.067314
-0.0076295
-0.016878
0.004808
-0.020067
-0.03952
-0.065671
-0.082573
-0.11064
-0.053871
-0.031548
-0.06025
-0.084487
-0.062801
-0.039202
-0.027402
0.032553
0.017883
-0.02804
-0.014008
0.0089539
-0.0089051
-0.013051
-0.035375
-0.052596
-0.058974
0.012781
0.023305
-0.012413
-0.010181
0.012143
0.030959
0.05105
0.088044
0.039888
-0.0028458
0.011824
0.02458
0.011505
-0.015283
-0.025807
-0.043666
-0.022937
0.022986
0.015651
-0.014645
0.017564
0.029045
0.03351
0.064125
0.079114
0.013419
0.024899
0.034786
0.0016189
-0.028678
-0.024213
-0.041434
-0.072687
-0.053871
-0.012413
-0.022937
-0.036969
-0.020386
-0.013689
-0.011137
0.0070404
0.016608
-0.040158
-0.04845
-0.0079484
-0.03665
-0.062801
-0.093097
-0.10745
-0.11096
-0.036969
-0.040477
-0.069817
-0.066628
-0.032504
-0.0098618
-0.0025269
0.038294
0.025218
0.0067215
0.044034
0.042121
0.016927
-0.00061343
0.0076782
-0.005716
-0.0085862
0.069228
0.059979
0.020116
0.03638
0.061893
0.055834
0.07433
0.082303
-0.013051
-0.009224
0.032234
0.014694
-0.03378
-0.064714
-0.069498
-0.097881
-0.075557
-0.023575
-0.026764
-0.066947
-0.036331
-0.019429
-0.011775
0.016927
0.028088
-0.049088
-0.050044
-0.017197
-0.034418
-0.039202
-0.046855
-0.076195
-0.10011
-0.04271
-0.01337
-0.024532
-0.02804
-0.028359
-0.0041214
0.012462
0.041802
0.034467
-0.010181
-0.013051
-0.024532
-0.050044
-0.058336
-0.082892
-0.11765
-0.11159
-0.039839
-0.051001
-0.086719
-0.07779
-0.054509
-0.028359
-0.0063538
0.029364
-0.0073105
-0.015283
0.0035324
-0.032504
-0.023894
-0.019429
-0.037288
-0.075238
-0.058017
-0.02804
-0.0098618
-0.027402
-0.00061343
-0.0085862
-0.012732
0.012143
0.032553
-0.025807
-0.039839
-0.015921
-0.040158
-0.044623
-0.065352
-0.084487
-0.096605
-0.051001
-0.017516
-0.034099
-0.024851
-0.052596
-0.0105
0.023305
0.07146
0.052963
0.0057648
0.0095917
0.019478
0.0003433
0.0131
0.014056
-0.021024
-0.036012
0.03064
0.019159
-0.005716
0.004808
0.039569
0.033829
0.040207
0.081028
0.034148
-0.005716
0.016608
0.024899
0.004808
-0.023256
-0.043028
-0.056742
-0.027402
0.0099106
0.014694
-0.012413
0.0073593
0.035104
0.04531
0.074968
0.098249
0.021391
0.01884
0.057109
0.023305
0.01884
-0.014008
-0.04271
-0.036012
0.014694
0.02458
-0.018791
0.013738
0.052645
0.052645
0.031596
0.070822
0.06859
0.034148
0.022667
0.02171
0.023624
0.018202
-0.017197
-0.037607
-0.053234
0.02171
0.014375
-0.018791
-0.013689
0.0044891
0.05679
0.067633
0.089638
0.058066
0.015332
0.03925
0.052645
0.044034
0.02171
0.0092728
-0.03378
-0.014645
0.050093
0.068909
0.026813
0.024899
0.037975
0.065082
0.10271
0.12249
0.058385
0.046266
0.091233
0.078795
0.060617
0.030002
-0.0044404
-0.029953
0.055515
0.09506
0.053282
0.029364
0.027132
0.07433
0.075925
0.087725
0.09793
0.041164
0.032234
0.055515
0.040526
0.035423
0.0089539
-0.020705
-0.037288
0.035423
0.061255
0.023305
0.010867
0.017564
0.04818
0.060936
0.081346
0.070503
0.044991
0.022348
0.0028946
0.0060837
-0.020386
-0.069498
-0.10139
-0.054509
0.010867
-0.025488
-0.068541
-0.034418
-0.0060349
0.0099106
-0.014008
-0.0044404
-0.012413
-0.016878
0.0035324
-0.0066727
-0.016878
-0.046855
-0.068541
-0.084168
-0.046218
-0.00029452
-0.00093234
-0.017835
-0.00061343
0.0070404
0.0131
0.055834
0.067952
0.0060837
0.0095917
0.04531
0.022986
0.011505
-0.022299
-0.032823
-0.03091
0.045629
0.058066
0.034467
0.02458
0.046904
0.066358
0.077201
0.10271
0.089638
0.059661
0.058066
0.042121
0.016289
0.0016189
-0.0079484
-0.046855
-0.041434
0.012143
0.011505
-0.017197
-0.0085862
-0.0066727
0.02171
0.044672
0.069547
0.0092728
-0.0076295
0.033829
0.017564
-0.005716
-0.025488
-0.056423
-0.072049
-0.050682
0.013738
-0.0015702
-0.054828
-0.023575
0.0070404
0.010548
0.036699
0.03351
-0.02198
-0.031229
0.0019378
0.0019378
-0.00061343
-0.028996
-0.054828
-0.07173
-0.015921
-0.0085862
-0.028996
-0.017197
0.0041702
0.032234
0.019159
0.05105
0.034467
0.0073593
0.013419
0.018521
-0.012094
-0.018791
-0.034418
-0.073963
-0.061206
0.033829
0.03351
-0.01624
-0.023894
0.0032135
0.041802
0.066677
0.084536
0.03638
0.016289
0.044672
0.046585
0.023305
0.0076782
-0.014008
-0.057698
-0.02804
0.036699
0.063806
0.015013
0.036699
0.051688
0.054239
0.072736
0.10526
0.044353
0.038612
0.059023
0.033829
0.023943
-0.0047593
-0.043985
-0.056742
-0.0044404
-0.0060349
-0.022937
-0.023575
-0.0041214
0.01023
0.011824
0.045947
0.02171
-0.036969
-0.03665
-0.0034836
-0.027083
-0.009224
-0.028678
-0.043985
-0.075557
-0.012413
-0.0025269
-0.014327
-0.00061343
0.018521
0.034786
0.038612
0.066995
0.022029
0.016289
0.020116
0.01597
-0.014964
-0.032504
-0.047812
-0.072049
-0.062163
-0.024213
-0.02804
-0.03091
0.0028946
0.015013
0.026813
0.063806
0.090914
0.0089539
0.0054459
0.038612
0.037337
0.028088
0.0003433
-0.039839
-0.06599
-0.021343
0.020435
-0.03091
-0.050044
-0.024851
-0.00093234
-0.0031647
0.035104
0.023943
-0.025488
-0.036012
-0.0079484
-0.025488
-0.01337
-0.03091
-0.060887
-0.061844
0.0070404
0.0028946
-0.0050782
-0.0018891
0.0089539
0.01884
0.045629
0.085492
0.047223
0.0064026
0.0076782
0.018521
-0.0018891
-0.017516
-0.036331
-0.052915
-0.075238
-0.010819
0.012143
-0.026764
-0.027721
-0.026126
-0.036012
0.024899
0.047223
-0.028996
-0.043985
-0.014645
-0.034418
-0.02198
-0.058017
-0.087357
-0.10298
-0.046218
0.0032135
0.012143
-0.0053971
0.0079971
0.042439
0.047223
0.083898
0.09793
0.055515
0.057747
0.070822
0.041483
0.033829
0.0003433
-0.03091
-0.055466
0.0022568
0.0099106
-0.028359
-0.042391
-0.016878
-0.0025269
0.0019378
0.022667
-0.01337
-0.041434
-0.018153
-0.005716
-0.018791
-0.038564
-0.057061
-0.073325
-0.05419
0.0016189
0.0044891
-0.023894
-0.011775
-0.0082673
0.017564
0.023943
0.028407
-0.015283
0.004808
0.027451
0.0022568
-0.036331
-0.052277
-0.06312
-0.085762
-0.035694
0.014694
0.011824
-0.020705
0.013419
0.034786
0.026175
0.038612
0.08613
0.019478
0.0019378
0.015651
-0.011456
-0.022618
-0.038245
-0.076195
-0.090546
-0.024532
-0.011456
-0.040796
-0.031229
-0.014008
0.0095917
0.025856
0.059661
0.044991
0.01023
0.013738
0.032553
0.015651
0.0099106
-0.0085862
-0.044304
-0.040796
0.044034
0.041802
-0.0066727
0.012781
0.03925
0.042758
0.061255
0.077201
0.046266
0.038294
0.047542
0.042439
0.0073593
-0.0069916
0.0019378
-0.026445
-0.01337
0.049137
0.040845
-0.01337
0.026175
0.062212
0.074968
0.10526
0.1059
0.029683
0.039569
0.059979
0.026813
0.040845
-0.002208
-0.044623
-0.049726
0.01023
0.021391
-0.021343
-0.04558
-0.02804
0.0025757
0.018202
0.053601
0.060936
-0.0063538
-0.016559
0.0060837
0.0003433
-0.00093234
-0.015283
-0.03952
-0.041115
0.033191
0.043396
0.016289
0.027132
0.013419
0.044034
0.079114
0.11356
0.069866
0.030959
0.042439
0.033191
0.01597
0.0044891
-0.018153
-0.060887
-0.046218
0.0028946
-0.0012513
-0.042391
-0.016559
0.013738
0.016608
0.044672
0.075925
0.0013
0.0025757
0.060936
0.031915
0.0095917
0.0038513
-0.009224
-0.030591
0.0076782
0.061893
0.027132
0.016927
0.026494
0.059661
0.042121
0.066677
0.071779
0.01597
0.0032135
0.025218
-0.0012513
-0.0031647
-0.024213
-0.075876
-0.081617
0.017883
0.039888
-0.0066727
-0.016878
0.0025757
0.035423
0.05679
0.072417
0.030959
-0.0038025
0.0038513
0.0016189
-0.020386
-0.024213
-0.050044
-0.090227
-0.078427
-0.024851
-0.04558
-0.077152
-0.045261
-0.045899
-0.031867
-0.011456
0.008635
-0.05132
-0.053871
-0.032823
-0.045261
-0.05419
-0.06025
-0.098519
-0.13902
-0.10585
-0.062801
-0.046536
-0.079703
-0.06599
-0.051001
-0.057698
-0.027083
-0.022299
-0.087676
-0.096924
-0.036331
-0.04845
-0.065671
-0.0982
-0.13647
-0.13966
-0.058655
-0.055785
-0.081298
-0.065033
-0.050682
-0.022618
-0.017197
0.025218
0.010867
-0.019748
-0.0018891
-0.0066727
-0.023575
-0.017516
-0.025488
-0.088633
-0.082892
0.05679
0.035742
-0.03091
-0.029953
-0.01624
0.0051269
0.016608
0.016289
-0.020386
-0.022618
0.00066221
-0.040796
-0.064077
-0.094054
-0.11255
-0.12945
-0.10681
-0.072049
-0.049088
-0.064714
-0.045899
-0.023575
-0.02517
0.0079971
0.025856
-0.0044404
-0.005716
0.012143
-0.01624
-0.011775
-0.019429
-0.043985
-0.050682
0.0131
0.040845
0.015651
0.01023
0.018202
0.031278
0.033829
0.083579
0.066039
0.01884
0.015332
0.035423
0.0089539
0.0028946
-0.011775
-0.055466
-0.044304
0.028407
0.035742
-0.00093234
0.015651
0.015651
0.008316
0.04818
0.087725
0.028088
0.0076782
0.021072
0.0044891
-0.021343
-0.060569
-0.039839
-0.083849
-0.075557
-0.027083
-0.028359
-0.049088
-0.019429
-0.0098618
-0.012732
0.04531
0.07752
0.0038513
0.008316
0.031278
0.010548
0.008316
-0.012094
-0.032823
-0.034418
0.021072
0.032553
0.017883
-0.010819
-0.01624
0.0070404
0.027132
0.05392
0.049137
-0.0015702
-0.017835
0.0041702
-0.021024
-0.002208
-0.021024
-0.079065
-0.063758
0.0131
0.023305
2.4388e-05
0.019478
0.037656
0.061893
0.096973
0.11643
0.087406
0.061255
0.074968
0.064763
0.051688
0.04531
0.029045
-0.009224
-0.00061343
0.056153
0.059023
0.019159
0.0016189
0.026175
0.05105
0.042758
0.075606
0.025218
0.0073593
0.022348
0.00066221
-0.031548
-0.025807
-0.034737
-0.070774
-0.028678
0.0041702
0.0016189
-0.016559
-0.0098618
0.0016189
0.0022568
0.059661
0.040526
-0.016878
-0.011456
0.0095917
-0.032504
-0.048131
-0.069179
-0.094373
-0.091822
-0.0044404
0.0035324
-0.047812
-0.034418
-0.011137
0.014375
0.030321
0.065401
0.056471
0.035423
0.060298
0.043396
0.026175
0.0131
0.0032135
-0.022299
0.0092728
0.069866
0.060936
0.019797
0.030002
0.028088
0.03638
0.06859
0.081984
0.014056
0.0095917
0.036061
0.0038513
-0.023256
-0.051958
-0.073325
-0.083211
-0.050044
0.0025757
-0.02517
-0.05132
-0.022618
0.028726
0.022986
0.054239
0.048499
0.0054459
0.020116
0.052645
0.027132
0.008635
-0.010819
-0.040158
-0.052915
0.022348
0.034148
-0.0038025
0.0041702
0.0032135
0.030959
0.032872
0.064444
0.043396
-0.0018891
0.0051269
0.0032135
-0.0095429
-0.018153
-0.047174
-0.075238
-0.055147
0.010867
0.01597
-0.0018891
-0.0095429
0.01597
0.052326
0.065401
0.086768
0.032872
0.032872
0.070185
0.042758
0.018202
-0.0028458
-0.022299
-0.042391
-0.015283
0.035104
-0.014964
-0.028359
0.0079971
0.018521
-0.00061343
0.040207
0.052326
0.0051269
-0.0028458
0.026813
-0.0015702
-0.00061343
-0.023256
-0.051639
-0.071093
-0.0069916
0.01023
-0.012413
-0.012413
-0.0089051
0.0019378
0.01023
0.049774
0.023624
-0.021024
-0.022299
0.0038513
-0.022299
-0.041115
-0.061844
-0.070455
-0.073963
0.0057648
0.010548
-0.04558
-0.021661
-0.0015702
0.025537
0.049137
0.080709
0.015332
-0.0047593
0.01884
-0.00061343
-0.0066727
-0.020386
-0.037607
-0.066947
-0.060887
-0.014645
-0.01337
-0.026126
-0.011775
0.0070404
0.0013
0.064125
0.074649
0.017246
0.0035324
0.026813
0.031278
0.039888
-0.0079484
-0.03091
-0.051958
0.019159
0.028407
0.0070404
0.008316
0.021391
0.032872
0.028088
0.072098
0.05679
0.015013
0.012462
0.034148
0.019159
-0.0031647
-0.010819
-0.035375
-0.042391
0.05105
0.061255
0.035423
0.042758
0.044034
0.065082
0.094741
0.1311
0.097292
0.048818
0.073374
0.071141
0.061574
0.032553
-0.0041214
-0.051958
-0.046218
0.029045
0.030002
-0.023575
-0.0060349
0.0070404
-0.0047593
0.0079971
0.023624
-0.03378
-0.026445
0.0022568
-0.023894
-0.040477
-0.065352
-0.092141
-0.08927
-0.035694
-0.0095429
-0.027402
-0.036331
-0.015283
0.0051269
0.014694
0.043077
0.043715
-0.016878
-0.013051
0.00098112
-0.024851
-0.04558
-0.086719
-0.13328
-0.096286
0.0016189
-0.011775
-0.06312
-0.073963
-0.047493
-0.016559
0.0095917
0.038931
0.0041702
-0.019748
-0.0025269
-0.014008
-0.019429
-0.024213
-0.026445
-0.068541
-0.034737
0.0019378
0.0028946
-0.024213
-0.010819
0.0131
0.004808
0.042439
0.074012
0.011824
-0.025807
0.029045
0.013419
0.0057648
-0.040158
-0.084806
-0.096286
-0.034737
-0.0050782
-0.029953
-0.045899
-0.020067
0.0038513
-0.0041214
0.021072
0.022348
-0.013689
-0.016559
0.0076782
-0.027402
-0.01911
-0.039202
-0.071093
-0.064395
0.0060837
0.0076782
-0.027083
-0.02804
-0.005716
0.017564
0.050412
0.073055
0.015332
-0.017516
0.0060837
0.0057648
-0.015283
-0.039202
-0.053871
-0.070455
-0.073006
-0.028678
-0.0031647
-0.040477
-0.033142
-0.017197
0.0028946
0.019478
0.046585
-0.02198
-0.041115
-0.0069916
-0.012413
-0.018791
-0.034737
-0.065033
-0.09246
-0.049088
0.0016189
-0.0076295
-0.029315
0.0038513
0.032234
0.040207
0.072098
0.058385
0.0092728
0.011505
0.060617
0.026494
0.018521
0.0041702
-0.031229
-0.043985
0.0022568
0.011824
0.017883
0.0044891
0.016608
0.02777
0.030002
0.05679
0.035104
-0.0082673
-0.034418
-0.048131
-0.017835
-0.030591
-0.10617
-0.1269
-0.12499
-0.058974
-0.053234
-0.083849
-0.070136
-0.059612
-0.040796
-0.013051
0.015332
-0.027083
-0.020386
0.011824
-0.00093234
-0.024851
-0.032186
-0.063758
-0.075876
-0.050363
-0.0012513
-0.0079484
-0.012094
-0.0060349
0.008316
-0.0025269
0.042758
0.060936
-0.014008
-0.035056
-0.0076295
-0.01337
-0.024213
-0.051958
-0.0864
-0.10298
-0.031867
-0.011775
-0.027083
-0.035694
-0.028678
0.0022568
0.0089539
0.058066
0.046585
0.011824
0.011824
0.043396
0.021072
0.01884
-0.011456
-0.056742
-0.054509
0.0057648
-0.0073105
-0.026445
-0.018791
-0.038245
-0.0063538
-0.0098618
0.013419
-0.026126
-0.036331
-0.014327
-0.054509
-0.07173
-0.07779
-0.093735
-0.098838
-0.082254
-0.023256
-0.024532
-0.052596
-0.024851
-0.0044404
-0.00093234
0.021072
0.034467
-0.027402
-0.018791
0.0035324
-0.0079484
-0.0069916
-0.036331
-0.074919
-0.085762
-0.0044404
0.03064
0.0025757
-0.012094
0.0070404
0.032872
0.035742
0.069547
0.072417
0.0131
0.020435
0.044353
0.023943
-0.0050782
-0.048131
-0.077152
-0.070136
0.0035324
-0.00093234
-0.041434
-0.030591
-0.0079484
0.016608
0.011505
0.049774
0.024899
0.0095917
0.034467
0.015332
-0.0018891
-0.012094
-0.023894
-0.05132
-0.027721
0.031915
0.028726
-0.0044404
0.0092728
0.022667
0.032553
0.060617
0.069547
-0.024213
-0.034737
0.020754
0.014375
-0.017835
-0.063758
-0.081617
-0.093735
-0.051958
-0.024532
-0.03952
-0.056104
-0.034099
-0.015602
-0.016559
0.025218
0.038931
-0.0073105
-0.0053971
0.004808
-0.032186
-0.026445
-0.052915
-0.081617
-0.088952
-0.01337
-0.01624
-0.04558
-0.014008
0.0079971
0.015013
-0.0063538
0.04531
0.021391
-0.0018891
0.030002
0.022348
-0.0012513
-0.002208
-0.01911
-0.058017
-0.043985
0.0067215
0.0099106
-0.012413
0.0060837
0.024262
0.042439
0.044034
0.069547
0.0044891
0.0092728
0.04531
0.02777
0.0064026
-0.0085862
-0.026126
-0.052277
-0.0038025
0.052007
0.057747
0.029683
0.028407
0.038612
0.060617
0.099843
0.10335
0.046585
0.037975
0.059023
0.031596
2.4388e-05
-0.044623
-0.031229
-0.038883
0.015013
0.0025757
-0.026126
-0.038245
-0.028678
-0.016878
0.0041702
0.040845
0.027132
-0.034737
-0.050044
-0.064714
-0.058017
-0.059612
-0.058017
-0.085762
-0.064395
-0.009224
-0.017835
-0.051001
-0.035056
0.0038513
0.02171
0.05105
0.092508
0.052007
0.033829
0.055515
0.040526
0.028088
0.013738
-0.0073105
-0.018472
0.0079971
0.03638
0.033829
0.012781
0.024899
0.073374
0.071141
0.096654
0.096016
0.03925
0.049137
0.058385
0.033191
0.028407
-0.0082673
-0.034418
-0.053234
0.022029
0.048499
-0.031229
-0.05419
0.0032135
0.034786
0.02777
0.047223
0.016927
-0.01624
-0.0038025
0.0022568
-0.00061343
-0.017516
-0.044623
-0.091184
-0.080979
-0.0012513
-0.0105
-0.044942
-0.044942
-0.025807
-0.0015702
0.0022568
0.030321
-0.01337
-0.023256
0.0019378
-0.0073105
-0.024851
-0.033461
-0.035694
-0.059612
-0.028996
0.028407
0.038612
0.015651
0.038294
0.062212
0.064763
0.1008
0.11515
0.05392
0.058066
0.080071
0.057747
0.042439
0.026175
-0.014645
-0.040796
0.0079971
0.050412
0.012462
-0.0073105
0.016608
0.025537
0.032872
0.05392
0.048818
0.0089539
0.008635
0.017564
-0.0050782
-0.023575
-0.033461
-0.059293
-0.06025
0.018202
0.038294
-0.012413
-0.00061343
0.016608
0.0022568
0.031278
0.075287
0.0079971
-0.035694
0.0016189
-0.012094
-0.027721
-0.02198
-0.049726
-0.092141
-0.083849
-0.042072
-0.025807
-0.026764
-0.018791
-0.0031647
0.0064026
0.032234
0.061574
-0.0066727
-0.017197
0.0054459
-0.01911
-0.034737
-0.044304
-0.082892
-0.099794
-0.037607
0.0057648
-0.021661
-0.048769
-0.038564
-0.014008
0.0003433
0.051369
0.040845
-0.010819
0.0003433
0.029364
0.0057648
-0.026126
-0.050682
-0.081935
-0.077471
-0.0082673
-0.0041214
-0.034418
-0.04558
-0.038883
0.0025757
0.01597
0.037656
0.014375
-0.01911
0.015651
0.039569
0.034467
0.016608
0.0095917
-0.017516
0.008316
0.069866
0.093784
0.061574
0.066358
0.096973
0.10112
0.095378
0.14066
0.066358
0.023624
0.054239
0.022348
0.0025757
-0.049088
-0.096286
-0.13009
-0.083211
-0.035056
-0.063439
-0.088952
-0.076514
-0.055147
-0.058655
-0.026445
-0.017835
-0.069498
-0.05419
-0.022618
-0.038245
-0.048769
-0.065033
-0.083849
-0.085443
-0.0098618
0.0022568
-0.01337
-0.0063538
-0.0018891
0.016608
0.031915
0.069547
0.051369
0.013738
0.021072
0.023624
-0.010819
-0.033142
-0.038883
-0.059612
-0.073644
-0.0076295
-0.013689
-0.050044
-0.046855
-0.034737
-0.022299
0.0032135
0.018521
-0.04271
-0.046536
-0.011775
-0.033142
-0.031229
-0.050363
-0.081617
-0.094054
-0.055147
-0.014327
-0.016878
-0.03091
0.0051269
0.020116
0.024899
0.059979
0.10112
0.043715
0.030002
0.057109
0.012781
0.020754
0.0073593
-0.024213
-0.041434
0.0013
0.056471
0.021391
0.010548
0.037018
0.055834
0.049455
0.081984
0.091233
0.041164
0.050093
0.066995
0.046266
0.031596
0.00098112
-0.014327
-0.023256
0.022029
0.035104
-0.0063538
-0.0066727
0.011824
-0.0038025
0.0070404
0.03351
-0.046218
-0.046855
-0.0098618
-0.03091
-0.043347
-0.072687
-0.089908
-0.10585
-0.094054
-0.045261
-0.033142
-0.055466
-0.034418
-0.0069916
-0.018791
0.0067215
0.035742
-0.022299
-0.022618
0.0032135
-0.025488
-0.027402
-0.046218
-0.063439
-0.069817
-0.0047593
0.019159
-0.0053971
-0.013689
0.01023
0.02777
0.021391
0.077201
0.07146
0.028088
0.018521
0.031278
0.008316
0.0019378
-0.019429
-0.066628
-0.071411
0.016289
-0.00061343
-0.048131
-0.032186
-0.022618
-0.0028458
0.019159
0.070822
0.008635
-0.020705
0.0038513
0.0131
-0.012094
-0.020067
-0.044623
-0.084487
-0.056104
0.017883
0.039888
0.008316
0.010867
0.0095917
0.0016189
0.035104
0.070503
0.00066221
-0.014964
0.014056
0.0044891
-0.0053971
-0.047812
-0.080341
-0.090865
-0.0063538
0.019478
-0.013689
-0.03091
-0.0012513
0.03351
0.042439
0.072417
0.053601
0.01884
0.023943
0.033829
0.018521
0.0095917
-0.012732
-0.027721
-0.050044
0.015332
0.02777
0.015651
0.020435
0.0131
0.022986
0.048818
0.066995
0.028088
0.032234
0.03638
0.030002
0.004808
-0.01911
-0.021024
-0.046855
-0.04271
0.011505
0.019159
-0.019748
-0.015602
0.01597
0.026175
0.046585
0.048499
-0.038883
-0.028678
0.0041702
-0.018472
-0.047812
-0.10426
-0.13774
-0.14349
-0.1033
-0.069179
-0.059612
-0.090865
-0.061844
-0.015283
-0.042391
-0.024532
0.00098112
-0.031229
-0.027083
-0.0012513
-0.0089051
-0.01624
-0.034737
-0.067585
-0.068541
0.016608
-0.0031647
-0.032823
-0.016559
-0.025807
-0.0076295
0.010548
0.038931
0.0089539
-0.012413
-0.0034836
-0.020067
-0.051639
-0.048131
-0.062482
-0.10649
-0.10585
-0.01624
0.01023
-0.04271
-0.042072
-0.017516
-0.0028458
0.030002
0.051688
-0.017197
-0.027083
0.015332
-0.0028458
-0.012094
-0.029953
-0.058336
-0.093735
-0.057698
0.0038513
-0.002208
-0.029953
-0.0082673
0.0099106
0.0025757
0.031278
0.037975
-0.0015702
-0.0076295
0.013419
-0.012732
-0.027083
-0.044942
-0.069817
-0.087357
-0.02198
-0.0012513
-0.016559
-0.024851
-0.0085862
0.017246
0.022986
0.04818
0.042439
0.0051269
0.017564
0.026813
-0.013689
-0.02804
-0.031867
-0.06025
-0.048131
0.020116
0.0095917
-0.035694
-0.011775
0.0099106
0.030959
0.056471
0.065401
0.017246
-0.0047593
0.017246
0.013738
-0.011775
-0.035375
-0.060887
-0.091822
-0.080979
-0.017197
-0.032823
-0.087357
-0.054828
-0.045261
-0.029634
0.018202
0.032553
-0.038245
-0.04271
-0.023894
-0.053234
-0.039839
-0.042391
-0.06312
-0.091822
-0.050044
-0.025807
-0.057698
-0.058336
-0.020067
-0.0076295
-0.0050782
2.4388e-05
0.0019378
-0.047174
-0.047812
-0.0085862
-0.022618
-0.036969
-0.074919
-0.088633
-0.070455
0.0019378
0.015651
-0.012094
-0.0085862
0.012143
0.044672
0.066995
0.10112
0.064125
0.038294
0.058704
0.05679
0.037656
0.019159
-0.00029452
-0.019748
0.016927
0.067314
0.055834
0.020435
0.040845
0.05392
0.066358
0.10303
0.13811
0.061255
0.039888
0.083898
0.074968
0.058704
0.028726
-0.0050782
-0.020705
0.050412
0.084536
0.057747
0.024899
0.038294
0.042439
0.052326
0.11324
0.11547
0.076563
0.064444
0.061255
0.023305
0.031596
0.043077
0.0025757
-0.013051
0.067314
0.094741
0.058066
0.061893
0.066677
0.12344
0.15533
0.19105
0.12504
0.10303
0.14481
0.14098
0.12408
0.10622
0.058385
0.041802
0.061574
0.11483
0.12185
0.061893
0.052007
0.060936
0.10303
0.1244
0.11451
0.050093
0.048818
0.076882
0.057747
0.030959
-0.009224
-0.014645
-0.025488
0.030959
0.079752
0.048499
0.021072
0.041483
0.05105
0.044353
0.10208
0.09793
0.04818
0.037018
0.051369
0.042439
0.034786
-0.0047593
-0.02804
-0.026445
0.03925
0.036699
0.0067215
0.0019378
0.0032135
0.028726
0.048818
0.084536
0.050731
0.019478
0.032553
0.022348
2.4388e-05
-0.0034836
-0.014008
-0.031229
-0.026764
0.033829
0.029683
-0.0060349
0.023305
0.044034
0.067952
0.092189
0.11611
0.042758
0.010548
0.057109
0.06285
0.055515
0.018202
-0.0041214
-0.0085862
0.033829
0.073374
0.042121
0.012462
0.048499
0.076244
0.094422
0.1531
0.1716
0.08039
0.080071
0.12025
0.07752
0.078157
0.061574
0.022029
0.0028946
0.070503
0.077201
0.030959
-0.0082673
0.026175
0.043715
0.052007
0.057747
0.015332
-0.028996
-0.02804
-0.03091
