-0.04271
-0.036012
-0.031867
-0.036969
-0.02198
-0.0105
-0.034099
-0.041434
-0.032186
-0.046855
-0.049088
-0.046218
-0.055147
-0.06312
-0.031867
-0.029953
-0.041115
-0.033142
-0.029315
-0.017835
-0.015921
-0.011137
-0.024213
-0.035694
-0.030272
-0.044942
-0.054509
-0.054509
-0.051639
-0.058336
-0.068541
-0.047812
-0.040477
-0.048769
-0.034418
-0.031229
-0.035375
-0.026126
-0.0085862
-0.036012
-0.038245
-0.034099
-0.050682
-0.051958
-0.051958
-0.058655
-0.064077
-0.052915
-0.044942
-0.043985
-0.042072
-0.031229
-0.024851
-0.029634
-0.022618
-0.014964
-0.032823
-0.040158
-0.037607
-0.050044
-0.05132
-0.052277
-0.055466
-0.066947
-0.03665
-0.035056
-0.043028
-0.035375
-0.029953
-0.02198
-0.017835
-0.0089051
-0.028996
-0.033142
-0.028359
-0.039202
-0.04845
-0.049088
-0.050682
-0.055147
-0.059931
-0.038245
-0.032504
-0.040477
-0.026445
-0.021661
-0.03091
-0.022299
-0.002208
-0.032504
-0.034418
-0.025488
-0.041434
-0.043666
-0.048131
-0.054509
-0.058655
-0.038245
-0.034737
-0.03952
-0.035375
-0.02198
-0.015921
-0.020386
-0.015283
-0.0076295
-0.02198
-0.02804
-0.028678
-0.042391
-0.044304
-0.03952
-0.044623
-0.055785
-0.027083
-0.023894
-0.032823
-0.023894
-0.021343
-0.015283
-0.0095429
0.0032135
-0.021024
-0.024213
-0.023256
-0.035375
-0.039202
-0.041434
-0.045261
-0.051639
-0.051639
-0.035694
-0.030272
-0.034737
-0.02198
-0.017835
-0.027721
-0.017835
-0.0018891
-0.030591
-0.03378
-0.025807
-0.04558
-0.048769
-0.052277
-0.058974
-0.063758
-0.040477
-0.038564
-0.045261
-0.042072
-0.034737
-0.02517
-0.02517
-0.018153
-0.017835
-0.031229
-0.035056
-0.036012
-0.050363
-0.04845
-0.045261
-0.052915
-0.060887
-0.032823
-0.029315
-0.040158
-0.026445
-0.021024
-0.018791
-0.014327
-0.0015702
-0.027402
-0.028996
-0.019748
-0.032823
-0.039202
-0.045899
-0.047493
-0.05132
-0.047812
-0.031867
-0.02804
-0.032504
-0.019748
-0.012732
-0.023256
-0.010819
0.0054459
-0.023575
-0.028678
-0.019748
-0.040158
-0.039839
-0.03952
-0.04845
-0.057379
-0.031867
-0.02804
-0.035375
-0.031229
-0.023575
-0.014964
-0.01624
-0.0079484
-0.0105
-0.025488
-0.028678
-0.031229
-0.042391
-0.050363
-0.047812
-0.047812
-0.053871
-0.03091
-0.029634
-0.039202
-0.028359
-0.024532
-0.020705
-0.013051
0.00098112
-0.031229
-0.032504
-0.020705
-0.034737
-0.037288
-0.043347
-0.050363
-0.051001
-0.044623
-0.032186
-0.025488
-0.029315
-0.019748
-0.011137
-0.021343
-0.012094
0.0028946
-0.019748
-0.023894
-0.018472
-0.035375
-0.036331
-0.036969
-0.044304
-0.052596
-0.023894
-0.027721
-0.032186
-0.026445
-0.024851
-0.017197
-0.012413
-0.0095429
-0.016559
-0.031229
-0.032504
-0.040477
-0.051958
-0.053871
-0.050682
-0.056104
-0.064714
-0.04271
-0.035694
-0.046218
-0.031229
-0.024851
-0.027083
-0.020067
-0.0041214
-0.033461
-0.034737
-0.025807
-0.03952
-0.041753
-0.046536
-0.051001
-0.053871
-0.044942
-0.035694
-0.03378
-0.031229
-0.017835
-0.011137
-0.020705
-0.012094
-0.0012513
-0.023575
-0.028996
-0.020386
-0.037288
-0.038883
-0.037607
-0.048131
-0.056742
-0.026764
-0.02517
-0.034099
-0.025488
-0.019748
-0.0105
-0.0076295
-0.00061343
-0.013051
-0.021661
-0.01911
-0.029315
-0.041434
-0.040477
-0.03665
-0.046536
-0.053234
-0.032504
-0.027402
-0.037288
-0.02198
-0.017197
-0.022299
-0.014327
-0.00029452
-0.031229
-0.029315
-0.019748
-0.035375
-0.039202
-0.043666
-0.051639
-0.052277
-0.034737
-0.028359
-0.029315
-0.029315
-0.021024
-0.013051
-0.017835
-0.010181
-0.0012513
-0.023894
-0.032823
-0.028359
-0.043028
-0.043985
-0.04271
-0.052915
-0.06312
-0.033142
-0.032823
-0.041753
-0.034418
-0.026126
-0.020067
-0.017835
-0.0095429
-0.026445
-0.032186
-0.027083
-0.037288
-0.043985
-0.047493
-0.047812
-0.052277
-0.056423
-0.034737
-0.026445
-0.033142
-0.021024
-0.015921
-0.022299
-0.010819
0.0057648
-0.027721
-0.031867
-0.02198
-0.037288
-0.040158
-0.047812
-0.058017
-0.059931
-0.037607
-0.029315
-0.037926
-0.039839
-0.026126
-0.015921
-0.017835
-0.011137
-0.0028458
-0.019429
-0.023894
-0.021343
-0.034099
-0.03378
-0.032823
-0.040158
-0.04845
-0.021024
-0.019748
-0.028996
-0.021024
-0.014645
-0.011456
-0.0060349
0.0025757
-0.020705
-0.023575
-0.019748
-0.03378
-0.042072
-0.045261
-0.04845
-0.053234
-0.053552
-0.037288
-0.031867
-0.038564
-0.029315
-0.019429
-0.028359
-0.019429
-0.0012513
-0.030272
-0.03378
-0.023894
-0.038883
-0.039839
-0.042391
-0.051001
-0.056104
-0.029953
-0.027402
-0.03378
-0.024213
-0.018791
-0.0098618
-0.011137
-0.0028458
-0.00029452
-0.01624
-0.021024
-0.020386
-0.032823
-0.033461
-0.030272
-0.038245
-0.048131
-0.020386
-0.017835
-0.028678
-0.018791
-0.013689
-0.0085862
-0.002208
0.0092728
-0.017197
-0.023575
-0.014645
-0.026445
-0.032823
-0.037607
-0.041434
-0.046536
-0.044304
-0.026445
-0.02198
-0.026445
-0.012413
-0.0044404
-0.014327
-0.0073105
0.008635
-0.014645
-0.018153
-0.012094
-0.027721
-0.029634
-0.035694
-0.040796
-0.046218
-0.017835
-0.01911
-0.027402
-0.018153
-0.012732
-0.002208
-0.0034836
2.4388e-05
-0.00093234
-0.012413
-0.01624
-0.01911
-0.031548
-0.029953
-0.027721
-0.039202
-0.045261
-0.017516
-0.014964
-0.024532
-0.0105
-0.0050782
-0.0050782
0.0003433
0.01597
-0.015283
-0.01624
-0.0063538
-0.020705
-0.02517
-0.034099
-0.041434
-0.044304
-0.034099
-0.020067
-0.019748
-0.019429
-0.0095429
-0.0031647
-0.014327
-0.0038025
0.014375
-0.011775
-0.016559
-0.011456
-0.025807
-0.02804
-0.028678
-0.037288
-0.046536
-0.018472
-0.020386
-0.028678
-0.020705
-0.016559
-0.0079484
-0.0085862
-0.00061343
-0.011456
-0.022937
-0.023256
-0.028359
-0.039202
-0.040158
-0.038245
-0.044304
-0.053871
-0.028996
-0.023256
-0.031548
-0.015921
-0.012732
-0.015921
-0.0089051
0.0044891
-0.021661
-0.023256
-0.012413
-0.026126
-0.032186
-0.037607
-0.040477
-0.043028
-0.032186
-0.020067
-0.018791
-0.017835
-0.0069916
0.0022568
-0.0063538
0.0016189
0.014375
-0.005716
-0.013689
-0.0063538
-0.021024
-0.02517
-0.028359
-0.033461
-0.040158
-0.011456
-0.011775
-0.020067
-0.012413
-0.0018891
0.0067215
0.0073593
0.014694
0.0057648
-0.0018891
-0.002208
-0.0076295
-0.016559
-0.017835
-0.014964
-0.021343
-0.029315
-0.0082673
-0.0028458
-0.015283
0.00066221
0.0013
-0.005716
0.00066221
0.021072
-0.01337
-0.018472
-0.009224
-0.025488
-0.031229
-0.037607
-0.041115
-0.043347
-0.028678
-0.019429
-0.019429
-0.016878
-0.0028458
0.0003433
-0.0025269
0.0038513
0.012781
-0.0041214
-0.0082673
-0.0060349
-0.023575
-0.023575
-0.02517
-0.035375
-0.042391
-0.012413
-0.012732
-0.022937
-0.013051
-0.0105
-0.0050782
0.0003433
0.008635
-0.010819
-0.016559
-0.01337
-0.019429
-0.028996
-0.032504
-0.034099
-0.039839
-0.044623
-0.022618
-0.016878
-0.02517
-0.0105
-0.0066727
-0.012732
-0.0044404
0.012781
-0.019748
-0.024213
-0.014645
-0.034418
-0.03665
-0.041434
-0.051001
-0.055785
-0.036969
-0.034099
-0.035375
-0.033142
-0.024532
-0.016559
-0.021024
-0.012413
-0.005716
-0.023894
-0.030272
-0.024532
-0.039839
-0.037288
-0.036969
-0.044942
-0.05419
-0.023256
-0.021024
-0.028678
-0.020067
-0.014964
-0.0089051
-0.0050782
0.0079971
-0.014964
-0.021024
-0.015283
-0.027402
-0.035375
-0.037607
-0.042391
-0.04845
-0.047174
-0.030272
-0.027402
-0.034418
-0.020705
-0.014008
-0.021661
-0.014964
-0.00061343
-0.029634
-0.032504
-0.021024
-0.037607
-0.040158
-0.041115
-0.048769
-0.054828
-0.033142
-0.028678
-0.030591
-0.02198
-0.011456
-0.0038025
-0.0105
-0.00029452
0.0067215
-0.009224
-0.015602
-0.014964
-0.026764
-0.025807
-0.022618
-0.033461
-0.043666
-0.011775
-0.011456
-0.021343
-0.0069916
-0.0050782
-0.0044404
0.0025757
0.015651
-0.010181
-0.012732
-0.0079484
-0.02198
-0.02804
-0.033461
-0.036969
-0.043028
-0.041434
-0.023575
-0.021024
-0.024851
-0.01337
-0.0050782
-0.014645
-0.0066727
0.0079971
-0.018791
-0.022299
-0.0105
-0.027721
-0.030591
-0.033142
-0.040477
-0.044942
-0.017197
-0.01624
-0.022299
-0.017516
-0.0105
0.00066221
0.0016189
0.0057648
0.0073593
-0.0069916
-0.0085862
-0.009224
-0.019429
-0.021024
-0.02198
-0.027721
-0.037607
-0.0098618
-0.00093234
-0.012094
-0.0031647
0.0038513
0.0035324
0.008635
0.021072
-0.0089051
-0.0105
-0.0044404
-0.015602
-0.020705
-0.029634
-0.03378
-0.040158
-0.034418
-0.018153
-0.016559
-0.021343
-0.0095429
-0.0038025
-0.012732
2.4388e-05
0.01023
-0.017516
-0.024851
-0.014645
-0.031229
-0.032186
-0.041115
-0.046855
-0.051958
-0.024213
-0.024213
-0.029634
-0.022937
-0.018153
-0.0025269
-0.0012513
0.0032135
-0.00029452
-0.0085862
-0.010819
-0.01624
-0.026445
-0.025488
-0.017516
-0.023894
-0.038883
-0.011775
-0.0069916
-0.017197
-0.011137
-0.0073105
-0.0105
0.0028946
0.020435
-0.014008
-0.022618
-0.014964
-0.026445
-0.034737
-0.038245
-0.045261
-0.052277
-0.03378
-0.02198
-0.027402
-0.038245
-0.021343
-0.0098618
-0.015921
-0.0018891
0.0070404
-0.014008
-0.022618
-0.02198
-0.028678
-0.023894
-0.020067
-0.029953
-0.038883
-0.0050782
-0.0066727
-0.010819
0.00098112
0.0064026
0.015332
0.018521
0.022667
0.015013
0.0067215
0.004808
-0.0041214
-0.015283
-0.01624
-0.018153
-0.024851
-0.031867
-0.010819
-0.0034836
-0.014645
-0.0028458
0.0051269
0.0013
0.0076782
0.024262
-0.0085862
-0.010181
2.4388e-05
-0.01337
-0.016878
-0.023894
-0.029953
-0.033142
-0.019748
-0.012094
-0.011775
-0.0098618
-0.00061343
0.0051269
-0.00093234
0.0064026
0.017246
-0.0041214
-0.011456
-0.0073105
-0.021024
-0.023256
-0.021661
-0.028678
-0.03952
-0.0079484
-0.0073105
-0.017197
-0.0066727
-0.00061343
0.0067215
0.011505
0.020116
0.0032135
-0.0031647
-0.00029452
-0.0098618
-0.017835
-0.021343
-0.021024
-0.027083
-0.031548
-0.010819
-0.0063538
-0.014645
0.00098112
0.0054459
-0.0034836
0.0060837
0.022986
-0.0069916
-0.0098618
0.0019378
-0.015602
-0.021024
-0.021024
-0.027083
-0.032504
-0.012094
-0.0063538
-0.0066727
-0.0034836
0.0051269
0.012781
0.008635
0.015651
0.023305
0.0044891
-0.005716
-0.0025269
-0.01911
-0.020067
-0.019748
-0.033142
-0.043666
-0.010819
-0.011456
-0.02198
-0.012094
-0.0098618
-0.0025269
2.4388e-05
0.011186
-0.0085862
-0.014327
-0.0095429
-0.02198
-0.029315
-0.030591
-0.03091
-0.035375
-0.038883
-0.018791
-0.013689
-0.020705
-0.0063538
-0.0034836
-0.0073105
0.0016189
0.017246
-0.01624
-0.017516
-0.0073105
-0.021024
-0.026764
-0.034099
-0.036331
-0.037288
-0.019748
-0.017197
-0.018153
-0.014008
-0.0053971
0.00098112
0.0003433
0.0099106
0.013419
-0.0047593
-0.0079484
-0.0085862
-0.022299
-0.023575
-0.022937
-0.030591
-0.039202
-0.011456
-0.009224
-0.01911
-0.0073105
-0.0034836
-0.0015702
0.0057648
0.020435
-0.0066727
-0.0098618
-0.0053971
-0.014964
-0.022299
-0.026126
-0.026126
-0.03091
-0.030591
-0.012732
-0.0085862
-0.0079484
0.0041702
0.0092728
0.0003433
0.0131
0.028407
-0.00029452
-0.0041214
0.004808
-0.01337
-0.017835
-0.022937
-0.031229
-0.03952
-0.010181
-0.009224
-0.016559
-0.01337
-0.0085862
-0.0012513
-0.00029452
0.0064026
0.0079971
-0.0073105
-0.009224
-0.01337
-0.024851
-0.026764
-0.024532
-0.031867
-0.039839
-0.012413
-0.012094
-0.022618
-0.0076295
-0.0034836
-0.0038025
0.0016189
0.01597
-0.012094
-0.014645
-0.0066727
-0.021024
-0.028678
-0.034418
-0.035694
-0.040477
-0.037288
-0.024532
-0.023256
-0.025807
-0.015283
-0.0079484
-0.015602
-0.0050782
0.0076782
-0.018791
-0.025488
-0.017197
-0.033142
-0.033142
-0.034418
-0.041753
-0.049407
-0.017835
-0.01911
-0.026126
-0.018791
-0.012413
-0.0025269
0.0016189
0.0057648
2.4388e-05
-0.010181
-0.0105
-0.014964
-0.023575
-0.025807
-0.026445
-0.032186
-0.039839
-0.01337
-0.0098618
-0.021343
-0.0031647
-0.00061343
-0.0018891
0.0041702
0.022029
-0.0089051
-0.013689
-0.0038025
-0.014645
-0.023256
-0.028359
-0.031229
-0.038245
-0.029953
-0.01911
-0.01624
-0.016559
-0.0041214
0.00066221
-0.0066727
0.0022568
0.015332
-0.0082673
-0.013051
-0.0076295
-0.023575
-0.023894
-0.023894
-0.029634
-0.038564
-0.0098618
-0.012413
-0.023575
-0.012413
-0.0066727
0.0019378
0.0025757
0.0095917
-0.0018891
-0.013689
-0.012413
-0.020705
-0.030591
-0.03378
-0.031229
-0.037288
-0.044942
-0.022299
-0.017835
-0.026126
-0.012413
-0.0063538
-0.0098618
-0.00061343
0.015332
-0.016559
-0.017197
-0.0066727
-0.02198
-0.024532
-0.032823
-0.036969
-0.038883
-0.027402
-0.017197
-0.015602
-0.016878
-0.0050782
0.0038513
-0.002208
0.0076782
0.016608
-0.0044404
-0.010819
-0.0038025
-0.017835
-0.022618
-0.022299
-0.029953
-0.039202
-0.0082673
-0.0069916
-0.017197
-0.0095429
-0.005716
0.0041702
0.0079971
0.017246
-0.00029452
-0.0069916
-0.0018891
-0.012413
-0.022937
-0.023894
-0.022937
-0.031867
-0.038564
-0.016559
-0.005716
-0.014964
-0.0034836
0.0003433
-0.0069916
0.0022568
0.022029
-0.010819
-0.012094
-0.0038025
-0.020067
-0.023575
-0.029634
-0.034737
-0.040158
-0.020386
-0.014645
-0.015283
-0.013689
-0.0041214
0.0035324
-0.0028458
0.0051269
0.015332
-0.0038025
-0.010819
-0.0060349
-0.022618
-0.023575
-0.021343
-0.029953
-0.040158
-0.0089051
-0.0079484
-0.018472
-0.0085862
-0.0028458
0.0025757
0.0070404
0.016289
-0.0041214
-0.0089051
-0.0041214
-0.015283
-0.023894
-0.027083
-0.027402
-0.033461
-0.034737
-0.016878
-0.011456
-0.015283
-0.0015702
0.0022568
-0.0041214
0.0067215
0.024262
-0.0082673
-0.0105
0.0019378
-0.014327
-0.01911
-0.024213
-0.03091
-0.035694
-0.012413
-0.0095429
-0.012413
-0.011137
-0.002208
0.0079971
0.0028946
0.011505
0.016289
-0.00093234
-0.0076295
-0.005716
-0.019429
-0.022618
-0.021024
-0.028359
-0.036012
-0.0079484
-0.0079484
-0.018153
-0.0076295
-0.0034836
0.0019378
0.0079971
0.019159
-0.0063538
-0.0098618
-0.002208
-0.014964
-0.021024
-0.024532
-0.027402
-0.031229
-0.032186
-0.01337
-0.009224
-0.014645
-0.00061343
0.0067215
-0.0028458
0.0067215
0.022986
-0.0060349
-0.0079484
0.0013
-0.015921
-0.018472
-0.023256
-0.031229
-0.034737
-0.0105
-0.0079484
-0.012732
-0.011456
-0.0015702
0.0067215
0.0054459
0.012462
0.0131
-0.0038025
-0.009224
-0.010181
-0.022618
-0.023575
-0.022618
-0.030591
-0.03952
-0.011775
-0.010181
-0.01911
-0.0060349
-0.0025269
0.0013
0.0060837
0.020754
-0.0066727
-0.0089051
0.0016189
-0.011775
-0.020705
-0.02517
-0.027721
-0.033142
-0.026764
-0.011775
-0.0073105
-0.012413
0.0019378
0.0067215
-0.0015702
0.0076782
0.022348
-0.0050782
-0.0082673
2.4388e-05
-0.01624
-0.018791
-0.022299
-0.030591
-0.039202
-0.0085862
-0.0038025
-0.011775
-0.0085862
-0.0038025
0.0070404
0.0076782
0.015013
0.010867
-0.002208
-0.0047593
-0.0079484
-0.020067
-0.021024
-0.01911
-0.02517
-0.034737
-0.0079484
-0.0041214
-0.013051
0.00066221
0.0044891
0.004808
0.012462
0.027451
-0.0018891
-0.0034836
0.0067215
-0.0085862
-0.014327
-0.019748
-0.024851
-0.027721
-0.019429
-0.0066727
-0.0050782
-0.0073105
0.004808
0.011824
0.0025757
0.012143
0.024899
0.0041702
-0.0050782
0.0022568
-0.014964
-0.017197
-0.018791
-0.025488
-0.033142
-0.0038025
-0.0031647
-0.011456
-0.0038025
0.0003433
0.010548
0.013419
0.021072
0.0131
0.0003433
0.0013
-0.0041214
-0.01624
-0.015921
-0.014008
-0.021661
-0.029953
-0.0060349
-0.00029452
-0.0098618
0.0041702
0.0099106
0.0044891
0.0131
0.030002
-0.0012513
-0.0034836
0.0067215
-0.009224
-0.01337
-0.018153
-0.024532
-0.028996
-0.014645
-0.0050782
-0.0060349
-0.009224
0.0032135
0.012781
0.0054459
0.01597
0.023624
-0.00029452
-0.0069916
0.0003433
-0.016878
-0.018791
-0.018791
-0.026445
-0.035375
-0.0047593
-0.0041214
-0.013689
-0.005716
-0.00029452
0.0057648
0.010548
0.020435
0.0041702
-0.0047593
-0.0015702
-0.0095429
-0.018472
-0.021661
-0.021024
-0.027721
-0.032823
-0.011775
-0.0082673
-0.014327
-0.00093234
0.0044891
-0.0012513
0.008635
0.025218
-0.0066727
-0.0089051
0.0013
-0.014327
-0.018472
-0.024851
-0.029315
-0.033461
-0.016559
-0.0082673
-0.0098618
-0.0082673
0.0013
0.0089539
0.0041702
0.0131
0.022667
0.0032135
-0.0041214
-0.00061343
-0.014645
-0.014008
-0.014008
-0.020067
-0.030272
2.4388e-05
0.0019378
-0.0076295
0.0022568
0.0070404
0.013419
0.020435
0.026813
0.01023
0.0032135
0.0076782
-0.0015702
-0.0105
-0.013051
-0.014327
-0.020067
-0.023894
-0.0044404
2.4388e-05
-0.0050782
0.0089539
0.012143
0.0054459
0.014056
0.031915
0.0016189
-0.00029452
0.0089539
-0.0082673
-0.012094
-0.01624
-0.021661
-0.027721
-0.0050782
-0.00061343
-0.0044404
-0.0012513
0.0070404
0.016608
0.012781
0.020754
0.027132
0.0095917
0.0041702
0.0044891
-0.0089051
-0.0095429
-0.0079484
-0.015921
-0.025488
0.004808
0.0057648
-0.0038025
0.0070404
0.0131
0.018202
0.022348
0.034786
0.0095917
0.0057648
0.011505
0.0013
-0.0060349
-0.0105
-0.012094
-0.017516
-0.018472
-0.00093234
0.0028946
-0.0018891
0.011824
0.017246
0.0092728
0.019478
0.034467
0.0067215
0.0019378
0.010867
-0.005716
-0.0089051
-0.012094
-0.019429
-0.023894
0.0003433
0.0038513
-0.0012513
0.0032135
0.011824
0.019797
0.017883
0.025856
0.029045
0.012462
0.008635
0.0064026
-0.0079484
-0.0076295
-0.0060349
-0.014964
-0.023575
0.0044891
0.0060837
-0.0053971
0.0057648
0.012143
0.014375
0.02171
0.033829
0.0057648
0.0032135
0.013419
2.4388e-05
-0.0060349
-0.009224
-0.012094
-0.016878
-0.013051
0.0025757
0.0067215
0.0032135
0.016289
0.022029
0.015651
0.02458
0.037975
0.014375
0.0076782
0.01597
0.0003433
-0.0025269
-0.0047593
-0.011775
-0.019748
0.0073593
0.008316
0.0022568
0.008635
0.015651
0.022986
0.023624
0.030321
0.02777
0.014375
0.011186
0.0076782
-0.0044404
-0.0060349
-0.0031647
-0.0105
-0.020386
0.0057648
0.0089539
-0.00061343
0.012143
0.01597
0.017246
0.022986
0.037018
0.0076782
0.0067215
0.014375
0.00098112
-0.0047593
-0.0095429
-0.015283
-0.018791
-0.012094
0.0019378
0.0032135
0.0016189
0.012143
0.017883
0.011186
0.020116
0.034148
0.0089539
0.0032135
0.0092728
-0.0060349
-0.0098618
-0.011456
-0.017835
-0.026445
0.0019378
0.0032135
-0.0044404
0.0019378
0.0079971
0.017564
0.019159
0.025218
0.018521
0.0060837
0.0064026
0.0032135
-0.0098618
-0.011456
-0.0089051
-0.015921
-0.02517
2.4388e-05
0.0054459
-0.00061343
0.0099106
0.014375
0.012143
0.02171
0.037337
0.0060837
0.0035324
0.015332
-0.0028458
-0.0066727
-0.011775
-0.016878
-0.020705
-0.0095429
0.0016189
0.0013
0.0016189
0.012781
0.020754
0.011186
0.020116
0.033191
0.010548
0.0028946
0.008635
-0.0095429
-0.010819
-0.010819
-0.018153
-0.029315
0.0022568
0.0035324
-0.0076295
0.0003433
0.0044891
0.013738
0.016608
0.024899
0.011186
0.0022568
0.0051269
-0.0034836
-0.013689
-0.015921
-0.015283
-0.022618
-0.029634
-0.0089051
-0.00061343
-0.0095429
0.004808
0.0089539
0.0025757
0.010548
0.02777
-0.0038025
-0.005716
0.0044891
-0.0105
-0.015602
-0.020705
-0.027083
-0.03091
-0.014008
-0.005716
-0.0085862
-0.0066727
0.0035324
0.012143
0.0070404
0.015013
0.023624
0.0044891
-0.0018891
0.0013
-0.013051
-0.013689
-0.011775
-0.021661
-0.03091
2.4388e-05
0.0016189
-0.0082673
0.0016189
0.0070404
0.013419
0.018202
0.027451
0.0089539
0.0035324
0.0067215
-0.0034836
-0.010819
-0.01337
-0.012413
-0.01911
-0.022937
-0.0038025
0.0035324
-0.0034836
0.010548
0.016927
0.0095917
0.019797
0.034786
0.0057648
0.0016189
0.0131
-0.0028458
-0.0076295
-0.010181
-0.018791
-0.022299
-0.0012513
0.0022568
0.0016189
0.0032135
0.010867
0.018202
0.015651
0.022986
0.029683
0.011824
0.004808
0.0051269
-0.0089051
-0.010181
-0.0079484
-0.014008
-0.025807
0.0019378
0.0054459
-0.0044404
0.0067215
0.010867
0.015013
0.021072
0.030959
0.0067215
0.0013
0.0073593
-0.0031647
-0.010819
-0.015283
-0.018153
-0.023575
-0.025488
-0.0073105
-0.0044404
-0.011456
0.0032135
0.011505
0.0003433
0.01023
0.026813
-0.0041214
-0.0079484
0.0019378
-0.013689
-0.018153
-0.022937
-0.028996
-0.034099
-0.009224
-0.005716
-0.010819
-0.0073105
0.0019378
0.0092728
0.008635
0.016927
0.019478
0.0041702
-0.0015702
-0.0025269
-0.014327
-0.015921
-0.012413
-0.021343
-0.030591
-0.0028458
0.00066221
-0.0066727
0.0032135
0.0079971
0.0092728
0.015651
0.028088
0.0022568
0.0013
0.0073593
-0.0050782
-0.011456
-0.01624
-0.01911
-0.024213
-0.02198
-0.0089051
-0.0038025
-0.0053971
0.0079971
0.0131
0.0038513
0.011824
0.027132
0.0003433
-0.0044404
0.0054459
-0.012094
-0.014008
-0.016878
-0.023894
-0.031229
-0.0025269
-0.0018891
-0.0079484
-0.0018891
0.004808
0.014694
0.01597
0.022029
0.022348
0.0079971
0.004808
0.00098112
-0.011456
-0.0098618
-0.0066727
-0.014645
-0.02517
0.0013
0.0051269
-0.0044404
0.0099106
0.013419
0.0131
0.019797
0.033829
0.0038513
0.0013
0.011505
-0.0034836
-0.0089051
-0.014964
-0.019429
-0.022618
-0.016559
-0.0034836
-0.00061343
-0.0031647
0.0095917
0.016608
0.0076782
0.018521
0.030959
0.0067215
2.4388e-05
0.0089539
-0.0069916
-0.0089051
-0.012094
-0.017835
-0.026126
0.0032135
0.0044891
-0.0050782
0.0022568
0.0057648
0.014375
0.01884
0.025856
0.017883
0.004808
0.0044891
-0.0025269
-0.013689
-0.014645
-0.012094
-0.020067
-0.02804
-0.0050782
0.00098112
-0.010181
0.0025757
0.008635
0.0057648
0.012781
0.028726
-0.0025269
-0.0053971
0.0064026
-0.0095429
-0.014327
-0.019748
-0.02517
-0.02804
-0.016878
-0.0069916
-0.0047593
-0.0063538
0.0041702
0.012781
0.0035324
0.013738
0.024899
0.0025757
-0.005716
0.00098112
-0.014645
-0.017516
-0.018153
-0.02517
-0.034737
-0.0060349
-0.005716
-0.01337
-0.0060349
0.00066221
0.0073593
0.0095917
0.01884
0.0064026
-0.0031647
-0.0012513
-0.0095429
-0.018153
-0.021661
-0.020386
-0.02804
-0.031867
-0.010819
-0.0050782
-0.014645
-0.00029452
0.0051269
-0.00061343
0.0076782
0.024262
-0.0069916
-0.009224
0.0013
-0.013689
-0.016878
-0.021343
-0.029634
-0.032504
-0.016878
-0.0076295
-0.0076295
-0.0073105
0.0028946
0.012781
0.0070404
0.014056
0.024262
0.0060837
-0.0012513
0.0041702
-0.012094
-0.012413
-0.013051
-0.020067
-0.027402
0.0019378
0.0044891
-0.0069916
0.0032135
0.0079971
0.015651
0.021391
0.03064
0.0131
0.008316
0.013419
0.0028946
-0.0066727
-0.010181
-0.0089051
-0.011775
-0.014008
0.0044891
0.0073593
0.0016189
0.014694
0.019159
0.013419
0.01884
0.03351
0.0019378
-0.002208
0.0073593
-0.011456
-0.018153
-0.021343
-0.02804
-0.035056
-0.012413
-0.0085862
-0.013689
-0.011137
-0.0012513
0.0089539
0.0054459
0.014375
0.022986
0.0044891
-0.0031647
-0.00093234
-0.013689
-0.013689
-0.012732
-0.020705
-0.031229
-0.00093234
0.0003433
-0.011456
0.0003433
0.004808
0.010548
0.016608
0.024899
0.0057648
-0.0018891
0.0032135
-0.0076295
-0.014008
-0.018472
-0.020386
-0.025488
-0.027402
-0.009224
-0.0038025
-0.0089051
0.0054459
0.01023
0.0019378
0.012143
0.029045
0.0003433
-0.0028458
0.0060837
-0.0089051
-0.011456
-0.014964
-0.022937
-0.027083
-0.0034836
0.00098112
-0.0031647
0.00066221
0.0079971
0.01597
0.01597
0.023943
0.025856
0.0092728
0.0044891
0.0035324
-0.010181
-0.011137
-0.0089051
-0.016878
-0.026126
0.0028946
0.004808
-0.0050782
0.0070404
0.013738
0.015651
0.021072
0.034148
0.0095917
0.0067215
0.015332
0.0041702
-0.0034836
-0.0079484
-0.0105
-0.013689
-0.011456
0.0054459
0.011505
0.0067215
0.01884
0.024899
0.015332
0.028088
0.043715
0.01597
0.0079971
0.015332
-0.0012513
-0.0018891
-0.0038025
-0.014008
-0.022937
0.004808
0.004808
-0.0012513
0.004808
0.010548
0.019797
0.019159
0.026175
0.023943
0.008635
0.0057648
0.0022568
-0.0082673
-0.0085862
-0.0073105
-0.014008
-0.024851
0.0025757
0.0076782
-0.002208
0.010867
0.015651
0.015651
0.023305
0.037018
0.008635
0.0070404
0.015332
0.0022568
-0.0041214
-0.0085862
-0.01337
-0.017197
-0.0098618
0.0025757
0.0073593
0.0032135
0.014694
0.022986
0.014375
0.024899
0.03925
0.013738
0.0095917
0.017246
0.00098112
-0.00029452
-0.0012513
-0.009224
-0.016559
0.013738
0.013738
0.0054459
0.0131
0.020435
0.028407
0.030002
0.032234
0.02458
0.017246
0.017564
0.0095917
-0.0041214
-0.0050782
-0.0060349
-0.013051
-0.021343
0.0044891
0.011824
0.0003433
0.0131
0.014694
0.0131
0.02171
0.036699
0.0060837
0.0028946
0.011186
-0.0025269
-0.005716
-0.011456
-0.01911
-0.023894
-0.009224
-0.0012513
0.0003433
-0.00093234
0.011186
0.019159
0.011824
0.022029
0.034786
0.013419
0.0057648
0.012462
-0.0028458
-0.0047593
-0.0038025
-0.012094
-0.020705
0.010548
0.012143
0.0025757
0.011505
0.017246
0.025856
0.029364
0.03638
0.024899
0.01597
0.017246
0.011505
0.0013
-0.0028458
-0.0025269
-0.0066727
-0.013689
0.0089539
0.014375
0.0060837
0.021072
0.026175
0.021072
0.029683
0.047542
0.015013
0.0099106
0.025856
0.0092728
0.0025757
-0.0041214
-0.011775
-0.015921
-0.0031647
0.00066221
-0.0028458
0.0013
0.008635
0.01023
0.0044891
0.0089539
0.015651
-0.0082673
-0.017516
-0.011775
-0.026764
-0.029315
-0.02517
-0.029315
-0.041434
-0.010819
-0.0060349
-0.013051
0.0003433
0.0092728
0.016608
0.01884
0.03351
0.022029
0.017883
0.021072
0.011824
0.0044891
0.00066221
0.0035324
-0.00093234
-0.0034836
0.017883
0.02171
0.017564
0.030959
0.038612
0.037975
0.049774
0.061255
0.029045
0.028407
0.044353
0.028726
0.026494
0.020116
0.013419
0.0070404
0.026813
0.031596
0.03064
0.031915
0.041164
0.049455
0.044991
0.053282
0.059023
0.042121
0.034467
0.035423
0.021391
0.020116
0.020435
0.011505
0.0013
0.030321
0.031596
0.020754
0.03064
0.034786
0.040207
0.044991
0.054877
0.030002
0.025856
0.030002
0.01884
0.0131
0.008635
0.0025757
-0.00061343
-0.0034836
0.011186
0.017246
0.01023
0.022029
0.026813
0.016289
0.023943
0.038931
0.011824
0.012143
0.01597
-0.0098618
-0.010819
-0.016559
-0.027721
-0.039839
-0.015602
-0.016878
-0.023894
-0.023256
-0.02198
-0.020705
-0.02517
-0.021024
-0.020067
-0.034418
-0.034418
-0.023256
-0.026126
-0.032186
-0.024532
-0.021343
-0.022937
0.014056
0.022986
0.020754
0.040526
0.05392
0.068271
0.077201
0.088362
0.060617
0.058066
0.066358
0.054239
0.041483
0.038612
0.036061
0.032553
0.026175
0.034786
0.032234
0.034786
0.053601
0.05392
0.038931
0.047542
0.062531
0.031596
0.026813
0.041483
0.02171
0.017883
0.012781
0.0073593
2.4388e-05
0.025218
0.030321
0.0054459
0.0067215
0.014375
0.020754
0.022029
0.023305
0.012143
-0.0063538
-0.014008
-0.020067
-0.034099
-0.041115
-0.031867
-0.029315
-0.035056
0.0028946
-0.00029452
-0.0069916
0.0044891
0.00066221
0.0028946
0.012781
0.022348
-0.015921
-0.030272
-0.022618
-0.050682
-0.070455
-0.0864
-0.10298
-0.10777
-0.11319
-0.091184
-0.092141
-0.088952
-0.070455
-0.065033
-0.053234
-0.017197
0.0051269
-0.016559
-0.02804
-0.00061343
0.0028946
-0.002208
0.0019378
0.0019378
-0.026126
0.0035324
-0.00029452
0.0051269
-0.002208
-0.014964
-0.013051
-0.005716
0.0076782
-0.0082673
-0.015921
0.016289
0.032553
0.0067215
0.0099106
0.042121
0.04531
0.040526
0.088044
0.11356
0.11292
0.13492
0.15119
0.1598
0.1582
0.18308
0.16394
0.15725
0.1582
0.13907
0.13684
0.12057
0.10909
0.099524
0.10782
0.11802
0.10335
0.089
0.090914
0.092508
0.070185
0.080709
0.10176
0.07752
0.056471
0.033191
-0.002208
0.0013
-0.014008
-0.04271
-0.056423
-0.034099
-0.070774
-0.093416
-0.11733
-0.132
-0.15018
-0.15911
-0.14157
-0.16485
-0.17091
-0.14508
-0.18718
-0.19164
-0.19228
-0.21205
-0.20344
-0.20759
-0.17155
-0.17665
-0.16836
-0.15624
-0.16581
-0.18271
-0.16613
-0.14954
-0.18813
-0.16772
-0.10936
-0.10107
-0.10745
-0.070774
-0.075238
-0.025488
0.015332
0.044672
0.072417
0.10782
0.16713
0.19073
0.21146
0.22741
0.22805
0.21943
0.2239
0.22645
0.19456
0.19775
0.19169
0.16937
0.17415
0.19328
0.17798
0.15055
0.14896
0.15725
0.17542
0.16426
0.14672
0.13046
0.13652
0.13078
0.11579
0.10239
0.090595
0.043715
0.021072
0.0076782
0.0044891
-0.017516
-0.038564
-0.05419
-0.086719
-0.10522
-0.11829
-0.11574
-0.13392
-0.12945
-0.12626
-0.11223
-0.11415
-0.089908
-0.089589
-0.087038
-0.035694
-0.0050782
0.021391
0.028088
0.034148
0.043396
0.037018
0.01023
-0.010181
-0.023575
-0.058336
-0.075876
-0.098838
-0.11606
-0.14157
-0.1572
-0.14061
-0.081298
-0.068222
-0.061525
-0.057698
-0.058017
0.0044891
0.044353
0.087406
0.092189
0.1059
0.1228
0.12918
0.13429
0.12855
0.10686
0.097292
0.091552
0.09793
0.094103
0.07433
0.074649
0.064763
0.043077
0.049137
0.070503
0.031596
0.029683
0.04531
0.020754
0.008316
0.008316
0.016289
0.008316
0.02458
0.01884
0.013738
-0.0069916
-0.0085862
-0.043347
-0.06886
-0.081935
-0.099476
-0.12563
-0.1403
-0.16262
-0.16995
-0.18462
-0.19068
-0.18558
-0.19451
-0.13647
-0.086719
-0.063758
-0.036012
-0.0069916
0.015332
0.057747
0.1008
0.11643
0.1346
0.14385
0.14353
0.14003
0.12249
0.11643
0.10239
0.089
0.076563
0.06285
0.042439
0.044353
0.02777
0.020435
0.013419
0.020435
0.0054459
0.012462
0.010867
-0.025807
-0.017835
-0.011775
2.4388e-05
0.012781
0.052645
0.042758
0.052326
0.035104
0.050731
0.040207
0.032553
0.020116
0.022348
-0.018791
-0.044304
-0.03952
-0.057698
-0.047493
-0.027721
-0.040158
-0.072687
-0.060887
-0.061844
-0.085443
-0.035375
-0.015283
-0.027402
-0.026126
-0.03378
-0.077471
-0.091184
-0.10617
-0.13998
-0.14699
-0.16326
-0.16964
-0.19292
-0.17761
-0.14891
-0.13328
-0.15847
-0.12595
-0.068541
-0.068222
-0.033461
-0.012094
0.0003433
0.021072
0.056153
0.065401
0.057109
0.051688
0.060298
0.055834
0.092827
0.092508
0.085811
0.082622
0.084536
0.083898
0.080709
0.088362
0.076882
0.060617
0.052326
0.050412
0.033191
0.021072
0.019797
0.0076782
-0.0034836
0.022667
0.023943
0.0044891
0.011505
0.010867
0.00098112
0.0051269
0.022986
-0.009224
-0.012094
-0.0082673
-0.03091
-0.049088
-0.067903
-0.088952
-0.098519
-0.090546
-0.0864
-0.10011
-0.12499
-0.11702
-0.11383
-0.12722
-0.10713
-0.087995
-0.11223
-0.094054
-0.081617
-0.087676
-0.089589
-0.11128
-0.10522
-0.093097
-0.030591
-0.031548
-0.061206
-0.055147
-0.055466
-0.04558
-0.064077
-0.065671
-0.056423
-0.059931
-0.077152
-0.076833
-0.061206
-0.061844
-0.054828
-0.048769
-0.047174
-0.034737
0.010867
0.011505
0.03638
0.055834
0.063806
0.090595
0.095378
0.049774
0.05679
0.08613
0.066677
0.049137
0.040526
0.043715
0.035104
0.049137
0.056471
0.04531
0.040207
0.052326
0.049137
0.015013
0.016927
0.033191
0.012143
-0.0095429
-0.013051
-0.037607
-0.044304
-0.040477
-0.063758
-0.091184
-0.055466
-0.048769
-0.069179
-0.093416
-0.091503
-0.099476
-0.099794
-0.074919
-0.10745
-0.10649
-0.13009
-0.11829
-0.12913
-0.15497
-0.10362
-0.099157
-0.10553
-0.091184
-0.085125
-0.077152
-0.038883
-0.014964
-0.0069916
-0.012094
0.0079971
-0.033142
-0.05419
-0.047174
-0.072687
-0.073963
-0.09533
-0.11351
-0.11255
-0.10522
-0.098838
-0.095968
-0.069179
-0.054509
-0.059612
-0.061844
-0.048769
-0.0012513
0.011824
0.0032135
0.016608
0.0076782
0.016289
0.019797
0.020435
0.0073593
0.03351
0.034148
0.025218
0.032234
0.026175
0.02777
0.026813
0.033191
0.0016189
-0.0089051
-0.010819
-0.028359
-0.048131
-0.051958
-0.06025
-0.061525
-0.055147
-0.047812
-0.051639
-0.063758
-0.051639
-0.056423
-0.067903
-0.065352
-0.042391
-0.072049
-0.10362
-0.10585
-0.13519
-0.14221
-0.13264
-0.15401
-0.13838
-0.10585
-0.1218
-0.11957
-0.13551
-0.12818
-0.09246
-0.087357
-0.074919
-0.041753
-0.059612
-0.060569
-0.056742
-0.073644
-0.06599
-0.068222
-0.097881
-0.11032
-0.07779
-0.068541
-0.085125
-0.080022
-0.083849
-0.078746
-0.059612
-0.02804
-0.042391
-0.04558
-0.014645
-0.044304
-0.051001
-0.03952
-0.01624
-0.0034836
0.016608
0.032872
0.038612
0.035742
0.046585
0.052007
0.037656
0.042758
0.054239
0.017564
0.0073593
0.012143
-0.012094
-0.019748
-0.027721
-0.040477
-0.053234
-0.031548
-0.03378
-0.044304
-0.042072
-0.03378
-0.030591
-0.03378
-0.026764
-0.029634
-0.046855
-0.050044
-0.05419
-0.069179
-0.066628
-0.062801
-0.072687
-0.087676
-0.063758
-0.062163
-0.074919
-0.059612
-0.052915
-0.069817
-0.063758
-0.041753
-0.082892
-0.099476
-0.09246
-0.10777
-0.086081
-0.09533
-0.13264
-0.14891
-0.13105
-0.096924
-0.10266
-0.10266
-0.097562
-0.084168
-0.10617
-0.09533
-0.067903
-0.079703
-0.099476
-0.098519
-0.11733
-0.11733
-0.10522
-0.10681
-0.11702
-0.088952
-0.084168
-0.12116
-0.10522
-0.059612
-0.038245
-0.041753
-0.034737
-0.051001
-0.058655
-0.047812
-0.035694
-0.043347
-0.043347
-0.035375
-0.050682
-0.04845
-0.020067
-0.023256
-0.035375
-0.02198
-0.021661
-0.034099
-0.032504
-0.015283
-0.052277
-0.055147
-0.052277
-0.053552
-0.071093
-0.078746
-0.087676
-0.10203
-0.083211
-0.060887
-0.069817
-0.075876
-0.063439
-0.059293
-0.068541
-0.054828
-0.045261
-0.070774
-0.080341
-0.073006
-0.092141
-0.096924
-0.098519
-0.10968
-0.11797
-0.081617
-0.081298
-0.097881
-0.088952
-0.084806
-0.068541
-0.054828
-0.055785
-0.073963
-0.097243
-0.077152
-0.093416
-0.10075
-0.10713
-0.10841
-0.1033
-0.10266
-0.081935
-0.087357
-0.10522
-0.070774
-0.058336
-0.069179
-0.052277
-0.029315
-0.06025
-0.051639
-0.035694
-0.043666
-0.043347
-0.056742
-0.062163
-0.045261
-0.031229
-0.023575
-0.012413
0.0054459
0.0003433
-0.0044404
-0.0095429
-0.0060349
0.008635
-0.012413
-0.018153
-0.038564
-0.044942
-0.048131
-0.057379
-0.069817
-0.078109
-0.038245
-0.061844
-0.071411
-0.066309
-0.068541
-0.057379
-0.045899
-0.043347
-0.062163
-0.069179
-0.063758
-0.078109
-0.091184
-0.087357
-0.084168
-0.092778
-0.10075
-0.077152
-0.064714
-0.069817
-0.046536
-0.042072
-0.055785
-0.03091
0.0003433
-0.047493
-0.061525
-0.069498
-0.06599
-0.058336
-0.085762
-0.10681
-0.095968
-0.072049
-0.086081
-0.0982
-0.084168
-0.069817
-0.082892
-0.090227
-0.073006
-0.055785
-0.049088
-0.050044
-0.05132
-0.074601
-0.072368
-0.066947
-0.057379
-0.057698
-0.019429
0.0028946
-0.017835
-0.0066727
0.0025757
0.00066221
-0.0028458
0.0092728
0.008635
0.0099106
0.015332
-0.012413
-0.027083
-0.03091
-0.035056
-0.049726
-0.034737
0.0095917
-0.01911
-0.018791
-0.012094
-0.0089051
-0.0098618
0.0025757
0.019797
-0.018153
-0.018791
-0.00029452
-0.037607
-0.053234
-0.044623
-0.050044
-0.056104
-0.041753
-0.05132
-0.057061
-0.047174
-0.029634
-0.030591
-0.033142
-0.027083
-0.023256
-0.044942
-0.041753
-0.047812
-0.067266
-0.06886
-0.066309
-0.0864
-0.10171
-0.067903
-0.074919
-0.083211
-0.060569
-0.053234
-0.060569
-0.058336
-0.049726
-0.058974
-0.056742
-0.039839
-0.039202
-0.052277
-0.053871
-0.059293
-0.065033
-0.052277
-0.032504
-0.0044404
0.015013
0.025218
-0.0015702
-0.012094
0.0079971
0.036061
0.022029
0.015332
0.017883
0.0019378
0.019159
0.034148
0.00066221
-0.02517
0.004808
0.0016189
0.021072
0.032553
-0.0066727
-0.005716
-0.005716
0.0044891
-0.019748
-0.017835
-0.020705
-0.043985
-0.075557
-0.068541
-0.03378
-0.056742
-0.071093
-0.050682
-0.057698
-0.053234
-0.042391
-0.019429
-0.005716
-0.014645
-0.00029452
-0.034418
-0.012413
-0.011775
-0.032504
-0.03665
-0.045261
-0.038245
-0.028678
-0.034099
-0.022299
-0.019748
-0.020705
-0.0069916
0.0013
-0.0073105
-0.0038025
-0.0015702
-0.035056
-0.045899
-0.0105
-0.035694
-0.047174
-0.061844
-0.065352
-0.098838
-0.062163
-0.057061
-0.065033
-0.060887
-0.07173
-0.072687
-0.079703
-0.065352
-0.073325
-0.094692
-0.087676
-0.08353
-0.094692
-0.10617
-0.0864
-0.066628
-0.057379
-0.027083
-0.020705
-0.019748
0.023624
0.049137
0.060617
0.078476
0.083579
0.06572
0.067952
0.076563
0.035423
0.042758
0.075925
0.036699
0.051369
0.030002
0.0025757
0.019159
0.01884
0.023624
0.01597
0.014375
0.032234
0.040526
0.0057648
-0.0031647
0.0038513
-0.014645
-0.026445
-0.022937
-0.016878
-0.0089051
0.015332
0.0041702
-0.014645
0.013738
0.020116
0.036699
0.048499
0.040526
0.02171
0.019159
0.026175
0.019478
-0.010819
-0.00093234
-0.00061343
-0.014645
-0.030591
-0.0082673
-0.00093234
-0.01337
-0.0041214
-0.010181
-0.016559
-0.011775
0.008635
-0.040796
-0.048131
-0.03091
-0.048769
-0.05419
-0.066309
-0.065352
-0.067903
-0.06599
-0.058336
-0.054509
-0.053871
-0.04271
-0.043347
-0.048769
-0.026126
-0.027402
-0.044304
-0.053234
-0.036331
-0.051001
-0.037288
-0.013051
-0.021343
-0.027083
0.011505
0.019797
0.023305
0.03638
0.043715
0.06285
0.073055
0.075925
0.048818
0.047223
0.04531
0.023624
0.024262
0.018202
-0.0031647
-0.017516
-0.028359
-0.0015702
-0.010181
-0.030591
-0.0031647
0.0022568
-0.0031647
0.01597
0.038294
2.4388e-05
-0.014327
0.0038513
0.0013
0.0025757
-0.0031647
-0.0095429
-0.0060349
0.028407
0.028407
0.023943
0.020435
0.034467
0.044034
0.030321
0.040526
0.058066
0.03638
0.01597
0.020754
0.0038513
-0.0031647
-0.0015702
0.0057648
-0.0079484
-0.0098618
-0.005716
-0.0063538
0.01597
0.019478
0.01884
0.017564
0.01884
-0.012413
-0.0025269
-0.0031647
-0.015602
-0.039202
-0.047812
-0.023256
-0.024851
-0.027402
-0.013051
-0.0105
-0.018153
0.0028946
0.0044891
0.010867
0.020754
0.035742
0.008635
0.0016189
0.023943
0.0028946
-0.0012513
0.010548
-0.013051
-0.026764
-0.009224
-0.0028458
0.0057648
-0.01337
-0.017197
-0.009224
-0.021024
-0.028996
-0.028996
-0.042072
-0.039839
-0.034099
-0.05419
-0.095649
-0.080022
-0.064714
-0.062482
-0.02517
-0.01911
-0.024851
-0.011775
-0.009224
0.018202
0.040207
0.041164
0.016927
0.020116
0.037018
0.027132
0.008316
0.00098112
-0.0012513
0.011824
0.0060837
0.013738
0.022667
0.014694
0.036061
0.026813
0.020116
0.024899
0.040207
0.0003433
0.00098112
0.0073593
-0.005716
-0.0050782
-0.019429
-0.02198
-0.022299
0.004808
-0.00061343
-0.00061343
0.0060837
0.0076782
0.022029
0.034786
0.034467
0.021072
0.0073593
0.0025757
-0.00061343
-0.023575
-0.035694
-0.043028
-0.057061
-0.068222
-0.054509
-0.05132
-0.056742
-0.041115
-0.054828
-0.050363
0.011824
0.008635
-0.040477
-0.029953
-0.0047593
0.0003433
-0.010819
-0.023894
0.00098112
0.008316
0.012143
0.024262
0.035423
0.036061
0.042121
0.055196
0.054239
0.070185
0.090595
0.057428
0.052007
0.054558
0.03638
0.037337
0.062212
0.041483
2.4388e-05
0.038294
0.038294
0.025856
0.03638
0.023624
0.03064
0.025537
0.029364
0.0038513
-0.013689
-0.012094
-0.0031647
-0.029315
-0.037607
-0.03665
-0.049726
-0.045899
-0.023575
-0.026764
-0.043985
-0.027083
-0.0034836
-0.002208
0.012781
0.018521
-0.011775
-0.011775
0.0064026
0.0019378
0.0022568
-0.002208
-0.0069916
-0.00061343
0.013738
0.015013
0.014056
0.024262
0.03351
0.037975
0.024262
0.029045
0.043715
0.020116
0.0057648
0.02171
0.0003433
-0.021343
-0.021024
-0.015602
-0.019748
0.010867
0.016927
-0.0050782
-0.00061343
0.0079971
0.023305
0.033829
0.058385
0.037018
0.014056
0.0044891
-0.00093234
0.0025757
-0.002208
-0.014327
-0.036331
-0.030591
0.00098112
-0.012413
-0.018791
0.0092728
0.020754
0.023943
0.0067215
0.037018
0.017246
0.013738
0.050412
0.023624
0.01597
0.026175
0.031596
0.017883
0.014694
0.028407
0.034148
0.040845
0.046904
0.069228
0.055515
0.054239
0.064444
0.046904
0.03351
0.030002
0.0070404
0.0073593
-0.00061343
-0.014327
-0.026445
0.0019378
0.0016189
-0.029953
-0.036012
-0.011775
-0.012413
-0.019429
-0.010819
-0.026764
-0.036331
-0.027083
-0.033142
-0.042072
-0.03952
-0.038564
-0.041434
-0.045261
-0.024532
-0.01624
-0.027721
-0.019429
-0.014964
-0.023256
-0.018791
-0.0012513
-0.035056
-0.031229
-0.034418
-0.054828
-0.046855
-0.032186
-0.03665
-0.055466
-0.036331
-0.017197
-0.0012513
-0.002208
0.0057648
0.031278
0.037337
0.061893
0.068271
0.042439
0.038612
0.042758
0.024262
0.022986
0.024899
0.013738
0.0038513
0.037656
0.024899
0.0073593
0.023305
0.041802
0.012781
0.017564
0.036061
0.016289
0.023305
0.019797
0.010548
0.0051269
-0.00061343
0.0064026
0.0051269
-0.012094
0.008635
0.012781
-0.0031647
0.0044891
0.02171
0.026494
0.022986
0.028726
-0.011456
-0.011775
0.0051269
-0.025488
-0.025807
-0.031229
-0.043985
-0.056742
-0.028678
-0.022299
-0.03378
-0.037607
-0.039202
-0.048131
-0.03378
-0.011137
-0.031548
-0.051639
-0.040477
-0.039839
-0.045261
-0.050363
-0.038883
-0.031867
-0.035056
-0.002208
-0.0044404
0.0003433
0.026175
0.030959
0.035104
0.041483
0.046904
0.017246
0.016289
0.033829
0.0131
-0.0031647
0.0019378
-0.0025269
-0.0089051
-0.012413
-0.0082673
0.0076782
0.018521
0.01884
0.016927
0.030002
0.037337
0.027451
0.016927
0.047223
0.039888
0.0079971
0.010548
0.0041702
0.0003433
0.0035324
0.032553
0.034786
0.033191
0.028726
0.029045
0.043077
0.044353
0.052963
0.061893
0.038294
0.030002
0.025537
0.0016189
-0.0082673
0.029045
0.0131
-0.0076295
0.0076782
0.0044891
-0.0038025
0.02458
0.018202
0.012781
0.01023
0.026813
-0.0105
-0.016559
0.004808
-0.0098618
-0.032504
-0.039202
-0.044623
-0.037607
-0.031548
-0.025488
-0.032186
-0.011456
0.011824
-0.0044404
-0.020386
-0.012413
0.018202
-0.010819
-0.022299
-0.021661
-0.046218
-0.036969
-0.02198
-0.052277
-0.064714
-0.016878
-0.020067
-0.0105
0.0067215
-0.0095429
-0.0044404
0.023943
0.039569
0.038294
0.027132
0.024899
0.029683
0.020435
0.025856
0.025218
0.017246
-0.0018891
0.018202
0.016608
0.015013
0.024262
0.026494
0.028088
0.042439
0.052326
0.0016189
0.0060837
0.013738
0.0028946
0.016289
0.0016189
-0.0085862
-0.0095429
0.008635
0.029683
0.03064
0.032234
0.055515
0.055196
0.040526
0.052326
0.066677
0.03351
0.035423
0.047861
0.017246
0.017564
-0.005716
-0.02804
-0.028359
0.004808
-0.0063538
-0.0015702
0.01023
-0.011456
-0.0015702
0.0035324
0.0054459
-0.010819
-0.022937
-0.020067
-0.018791
-0.019429
-0.023575
-0.032186
-0.048131
-0.064714
0.00066221
0.012781
-0.024851
-0.012094
0.0019378
0.0099106
0.020754
0.040207
0.012462
0.022348
0.034786
0.02171
0.013738
0.012143
0.0044891
-0.00093234
0.015651
0.033829
0.045629
0.042758
0.060617
0.059661
0.03925
0.052645
0.075606
0.067633
0.057109
0.053282
0.047223
0.049455
0.040845
0.035423
0.029683
0.071141
0.06572
0.045947
0.054239
0.065401
0.077201
0.080709
0.077838
0.058066
0.05105
0.049137
0.059023
0.062212
0.049137
0.03638
0.011186
0.010548
0.03925
0.047223
0.028407
0.039888
0.049137
0.029364
0.011824
0.028407
-0.020386
-0.01624
0.014056
-0.026445
-0.064077
-0.065671
-0.061844
-0.063758
-0.059293
-0.044942
-0.02198
-0.040796
-0.032823
-0.027721
-0.037926
-0.020386
-0.0028458
-0.023256
-0.03952
-0.022618
-0.023894
-0.030272
-0.01624
-0.044304
-0.050044
-0.016559
-0.0047593
-0.024532
-0.0073105
0.012462
0.020754
0.027451
0.043396
0.016289
0.014694
0.019159
0.014056
0.017564
0.015013
0.03925
0.039888
0.046585
0.054558
0.06285
0.062212
0.086768
0.10303
0.095378
0.10782
0.12504
0.092508
0.089319
0.097611
0.079114
0.078476
0.07433
0.059342
0.046904
0.058704
0.06572
0.070503
0.069866
0.076563
0.073693
0.069866
0.06859
0.081665
0.052963
0.039569
0.046904
0.035742
0.054877
0.060936
0.025537
0.0041702
0.016608
0.021391
0.019159
0.026175
0.02777
0.014694
-0.0018891
-0.0079484
-0.053552
-0.056104
-0.030591
-0.049726
-0.083211
-0.11478
-0.11383
-0.11064
-0.10777
-0.10681
-0.090227
-0.089908
-0.065033
-0.03952
-0.041434
-0.041115
-0.014964
-0.03952
-0.027721
-0.013051
-0.015283
0.0054459
0.0019378
-0.017835
-0.026445
0.038294
0.05392
0.042439
0.047223
0.060298
0.070185
0.066677
0.090276
0.096973
0.090595
0.069866
0.066995
0.055834
0.068271
0.062531
0.045947
0.029045
0.067314
0.069228
0.05392
0.069547
0.064125
0.057109
0.055515
0.065401
0.047861
0.046585
0.051688
0.034467
0.028726
0.014694
0.010548
0.0070404
0.010548
0.019159
0.025218
0.016289
0.02458
0.029683
0.011186
0.020754
0.028407
-0.011775
-0.022299
-0.0073105
-0.026126
-0.035056
-0.062163
-0.076833
-0.084806
-0.06599
-0.082254
-0.0864
-0.070455
-0.068541
-0.044304
-0.066309
-0.06886
-0.050044
-0.045261
-0.032186
-0.040796
-0.04271
-0.044304
-0.043985
-0.047812
-0.032823
0.0032135
-0.00029452
0.021072
0.021072
0.013419
0.030002
0.035423
0.052963
0.054877
0.04818
0.037656
0.03351
0.05392
0.05679
0.054239
0.05392
0.049774
0.064763
0.076882
0.077201
0.087725
0.096016
0.08613
0.088681
0.09793
0.072417
0.063487
0.064125
0.049774
0.050093
0.040526
0.027451
0.019478
0.040526
0.047223
0.030002
0.032234
0.035104
0.029045
0.023624
0.035423
0.03064
0.015013
0.0057648
-0.0076295
-0.017835
-0.026764
-0.027083
-0.034418
-0.04271
-0.017835
-0.015283
-0.031548
-0.013051
-0.0073105
-0.015283
-0.0098618
0.0073593
-0.024851
-0.020705
-0.009224
-0.023894
-0.026764
-0.032823
-0.038883
-0.040158
-0.02517
-0.010819
-0.0095429
-0.012413
-0.0076295
2.4388e-05
-0.01911
-0.009224
0.0019378
-0.03665
-0.059931
-0.06025
-0.08927
-0.095968
-0.11415
-0.13487
-0.13838
-0.10777
-0.093097
-0.090227
-0.10362
-0.10203
-0.046855
-0.043028
-0.032504
-0.052277
-0.02804
-0.016559
-0.020386
-0.0073105
0.0076782
-0.00061343
-0.010181
-0.0089051
0.028407
0.044034
0.028088
0.03351
0.043396
0.053601
0.072417
0.086768
0.056153
0.056153
0.061893
0.054877
0.056153
0.046904
0.027451
0.022986
0.038294
0.039569
0.032872
0.028407
0.034148
0.035104
0.02171
0.029045
0.037656
0.0070404
-0.005716
-0.00061343
-0.012732
-0.017197
-0.020386
-0.030272
-0.041115
-0.012413
-0.013689
-0.023256
-0.01911
-0.010819
-0.0012513
0.004808
0.012143
-0.0098618
-0.018153
-0.013689
-0.020705
-0.031229
-0.032823
-0.03091
-0.038564
-0.041753
-0.024213
-0.016559
-0.023894
-0.0031647
2.4388e-05
-0.0085862
-0.0012513
0.012143
-0.013689
-0.013051
-0.0105
-0.020386
-0.019429
-0.028996
-0.037288
-0.042391
-0.021661
-0.014964
-0.015921
-0.0105
-0.0041214
0.0016189
-0.00061343
0.01023
0.017246
0.0003433
-0.0076295
-0.0053971
-0.018472
-0.020067
-0.01911
-0.02517
-0.033461
-0.0028458
-0.0012513
-0.011456
-0.00061343
0.0035324
0.012143
0.01884
0.028726
0.0035324
2.4388e-05
0.0060837
-0.0028458
-0.0105
-0.013689
-0.014645
-0.024213
-0.024213
-0.0047593
0.0013
-0.0073105
0.0060837
0.014375
0.0044891
0.013738
0.030002
0.0003433
-0.0031647
0.0070404
-0.009224
-0.010181
-0.013689
-0.022299
-0.026126
0.0035324
0.0044891
-0.0038025
0.0013
0.01023
0.023624
0.020435
0.02777
0.029045
0.0131
0.0079971
0.012462
-0.005716
-0.0073105
-0.010819
-0.011137
-0.017835
0.010548
0.0131
0.0035324
0.013738
0.020116
0.023943
0.035104
0.047542
0.015651
0.0054459
0.020116
0.0079971
0.0073593
0.0041702
-0.0038025
-0.013051
-0.014645
-0.0041214
0.0032135
0.0022568
0.015332
0.020116
0.0092728
0.016927
0.031278
0.0041702
-0.0012513
0.0076782
-0.010819
-0.014645
-0.014964
-0.022937
-0.028996
-0.00061343
0.0003433
-0.0063538
-0.0025269
0.0044891
0.014056
0.016289
0.024262
0.022348
0.0079971
0.0067215
0.0022568
-0.011456
-0.014008
-0.0044404
-0.013689
-0.022618
0.0028946
0.008635
2.4388e-05
0.011186
0.015013
0.013419
0.024899
0.038294
0.0067215
0.010867
0.017883
0.0032135
-0.0047593
-0.0095429
-0.015283
-0.020386
-0.0079484
0.0067215
0.0057648
-0.0012513
0.012462
0.018521
0.012143
0.021391
0.035742
0.011505
0.0035324
0.012781
-0.0028458
-0.0050782
-0.0069916
-0.016878
-0.020067
0.0131
0.01023
0.0035324
0.0099106
0.01597
0.026494
0.028407
0.037656
0.029045
0.017246
0.016608
0.01023
0.0019378
0.0013
0.0019378
-0.0073105
-0.015283
0.008635
0.012143
0.0057648
0.020435
0.021391
0.016927
0.028407
0.04531
0.0089539
0.0073593
0.017246
0.0028946
-0.0025269
-0.0076295
-0.014645
-0.018153
-0.0082673
0.0022568
0.0032135
0.00098112
0.011186
0.019797
0.010548
0.020754
0.031278
0.0095917
0.0025757
0.008635
-0.0076295
-0.0089051
-0.011456
-0.021024
-0.027721
0.0060837
0.0035324
-0.005716
0.0019378
0.008316
0.016927
0.019159
0.026175
0.014694
0.0038513
0.0051269
-0.0015702
-0.012413
-0.013051
-0.014327
-0.021661
-0.027721
-0.0047593
-0.00029452
-0.0098618
0.0035324
0.0089539
0.0041702
0.012143
0.028407
-0.0034836
-0.005716
0.0044891
-0.011775
-0.01624
-0.021024
-0.027402
-0.032823
-0.014645
-0.0063538
-0.0066727
-0.0085862
0.0025757
0.010548
0.0044891
0.013419
0.023624
0.0038513
-0.0047593
-0.00061343
-0.015921
-0.01624
-0.014645
-0.024213
-0.035694
-0.0031647
-0.0028458
-0.012094
-0.0028458
0.00066221
0.0067215
0.013419
0.02171
0.0016189
-0.0044404
0.0003433
-0.0082673
-0.018472
-0.021661
-0.024851
-0.030272
-0.033142
-0.013689
-0.0066727
-0.015283
-0.0034836
2.4388e-05
-0.0060349
0.0057648
0.023624
-0.0098618
-0.012732
-0.0041214
-0.01911
-0.020705
-0.027402
-0.035694
-0.038245
-0.017197
-0.0105
-0.01337
-0.012094
-0.002208
0.0051269
0.0013
0.0092728
0.019159
-0.0012513
-0.011456
-0.0066727
-0.017835
-0.017835
-0.017516
-0.025807
-0.036331
-0.0047593
-0.0015702
-0.013051
-0.00061343
0.0035324
0.0095917
0.016608
0.025537
0.0051269
0.0025757
0.0073593
-0.0031647
-0.011775
-0.014327
-0.017197
-0.021661
-0.021661
-0.0034836
0.0016189
-0.0047593
0.008635
0.014375
0.008316
0.017564
0.03064
-0.00029452
-0.002208
0.0095917
-0.005716
-0.014008
-0.01624
-0.023894
-0.031229
-0.0050782
-0.0034836
-0.0079484
-0.005716
0.0013
0.01023
0.008635
0.016608
0.018521
0.0022568
-0.0047593
-0.0034836
-0.017197
-0.017835
-0.017197
-0.02517
-0.034737
-0.0069916
-0.0028458
-0.013689
-0.0031647
0.0019378
0.0044891
0.010867
0.025218
-0.0015702
-0.0069916
2.4388e-05
-0.0098618
-0.019429
-0.020705
-0.023894
-0.029953
-0.02804
-0.0095429
-0.0044404
-0.0105
0.0028946
0.010867
2.4388e-05
0.011505
0.026175
-0.0028458
-0.0044404
0.0089539
-0.01624
-0.025488
-0.023256
-0.023894
-0.031867
-0.0095429
-0.0089051
-0.014645
-0.010819
-0.002208
0.0073593
0.0038513
0.011505
0.014375
-0.0034836
-0.013051
-0.010819
-0.020386
-0.022299
-0.020705
-0.029315
-0.040477
-0.017197
-0.010181
-0.017516
-0.0050782
-0.00061343
-0.0038025
0.0041702
0.018521
-0.012413
-0.012732
-0.00093234
-0.015921
-0.021024
-0.027083
-0.032186
-0.035375
-0.029634
-0.016878
-0.014327
-0.01624
-0.0028458
0.0054459
-0.0053971
0.0044891
0.02171
-0.0063538
-0.012732
-0.002208
-0.017516
-0.020705
-0.022299
-0.03091
-0.037607
-0.0050782
-0.0050782
-0.012732
-0.0066727
-0.00061343
0.0079971
0.011824
0.01884
0.0131
2.4388e-05
-0.00029452
-0.0066727
-0.021343
-0.018153
-0.016559
-0.027721
-0.035375
-0.009224
-0.0069916
-0.019429
-0.005716
0.0016189
-0.0028458
0.0064026
0.022029
-0.011456
-0.012413
-0.0053971
-0.01911
-0.021024
-0.025488
-0.032504
-0.038883
-0.026445
-0.014008
-0.012413
-0.013689
-0.0031647
0.0057648
-0.0038025
0.0067215
0.020754
-0.0031647
-0.0098618
-0.0038025
-0.018472
-0.019429
-0.021024
-0.030591
-0.037607
-0.0034836
-0.0034836
-0.013689
-0.0085862
-0.0012513
0.0064026
0.012781
0.017883
0.0099106
2.4388e-05
-0.0015702
-0.013051
-0.019748
-0.016878
-0.017197
-0.029634
-0.036969
-0.014008
-0.0066727
-0.016878
-0.0044404
0.0003433
-0.0050782
0.0038513
0.020435
-0.010819
-0.013689
-0.0028458
-0.017835
-0.021661
-0.027083
-0.032823
-0.036331
-0.021661
-0.012413
-0.011137
-0.012094
-0.0015702
0.0073593
0.00066221
0.008316
0.022348
0.0013
-0.0079484
-0.0034836
-0.014645
-0.013689
-0.019429
-0.028359
-0.035056
-0.0028458
-0.0025269
-0.012413
-0.0060349
-0.0012513
0.0095917
0.012462
0.020435
0.0028946
-0.0038025
-0.00061343
-0.0085862
-0.01911
-0.021024
-0.020067
-0.028678
-0.033461
-0.013689
-0.005716
-0.013689
-0.0018891
0.0022568
-0.002208
0.0067215
0.025218
-0.0069916
-0.0085862
0.0013
-0.014008
-0.017835
-0.02198
-0.028996
-0.032823
-0.012732
-0.0073105
-0.0082673
-0.0066727
0.0035324
0.0095917
0.0060837
0.014694
0.022667
0.0035324
-0.0034836
-0.00061343
-0.013689
-0.015921
-0.01624
-0.024532
-0.035375
-0.0044404
-0.0038025
-0.014327
-0.0050782
-0.0015702
0.0057648
0.0092728
0.021391
-0.0012513
-0.0069916
-0.0025269
-0.011775
-0.021343
-0.023575
-0.023894
-0.029953
-0.032186
-0.014964
-0.0079484
-0.012732
2.4388e-05
0.0032135
-0.005716
0.0054459
0.023943
-0.0073105
-0.011137
2.4388e-05
-0.017197
-0.019429
-0.024851
-0.03378
-0.037607
-0.014964
-0.010819
-0.014327
-0.012413
-0.0047593
0.0044891
0.0016189
0.0099106
0.01597
-0.0012513
-0.0085862
-0.0063538
-0.01911
-0.019429
-0.016878
-0.025488
-0.034099
-0.0041214
-0.0012513
-0.011775
-0.00061343
0.0016189
0.0073593
0.0131
0.024899
-0.00029452
-0.0050782
0.00098112
-0.010181
-0.017197
-0.021343
-0.02517
-0.031229
-0.031229
-0.014327
-0.0095429
-0.014964
-0.00093234
0.0041702
-0.002208
0.0060837
0.023943
-0.005716
-0.009224
-0.00093234
-0.016878
-0.023575
-0.023256
-0.031867
-0.037607
-0.012413
-0.0098618
-0.015921
-0.011456
-0.0044404
0.0038513
0.0035324
0.011824
0.012781
-0.0031647
-0.0076295
-0.0069916
-0.019748
-0.019748
-0.017835
-0.025488
-0.035056
-0.005716
-0.0018891
-0.01337
-0.00061343
0.004808
0.0057648
0.012462
0.025218
-0.0018891
-0.0041214
0.0028946
-0.0089051
-0.015283
-0.020386
-0.027083
-0.029953
-0.024532
-0.010819
-0.0060349
-0.010181
0.0022568
0.0089539
0.00066221
0.010867
0.028088
0.00098112
-0.0044404
0.0044891
-0.010819
-0.012413
-0.015283
-0.022618
-0.029315
0.0003433
0.0019378
-0.0047593
-0.00093234
0.0064026
0.014375
0.015651
0.022029
0.019478
0.0051269
0.00098112
-0.00093234
-0.01337
-0.014327
-0.012094
-0.021343
-0.030272
-0.0047593
0.0016189
-0.0105
0.0022568
0.0073593
0.008316
0.014375
0.030002
-0.00061343
-0.0028458
0.0060837
-0.0066727
-0.012094
-0.017197
-0.022299
-0.026764
-0.018791
-0.0047593
-0.0012513
-0.0053971
0.0073593
0.014694
0.0073593
0.017883
0.030002
0.0060837
-0.00029452
0.01023
-0.0066727
-0.0098618
-0.010181
-0.01911
-0.027083
0.0051269
0.0060837
-0.0025269
0.0025757
0.0089539
0.016289
0.020116
0.026494
0.017564
0.0051269
0.0038513
-0.00093234
-0.012413
-0.014327
-0.01337
-0.020067
-0.030591
-0.0060349
-0.00061343
-0.011775
0.0019378
0.0060837
0.0028946
0.0095917
0.026813
-0.0066727
-0.009224
0.00098112
-0.012413
-0.017516
-0.024532
-0.030272
-0.034099
-0.021343
-0.010819
-0.0105
-0.011456
-0.00061343
0.0070404
0.0019378
0.012143
0.023305
0.0032135
-0.0047593
0.0041702
-0.011456
-0.016878
-0.015602
-0.022937
-0.029634
0.004808
0.0041702
-0.0069916
0.00066221
0.0060837
0.0131
0.018202
0.027451
0.011824
0.0032135
0.0067215
-0.0012513
-0.010819
-0.011775
-0.010819
-0.018791
-0.024851
-0.0034836
0.0032135
-0.0066727
0.0079971
0.012462
0.0076782
0.016289
0.032872
-0.0012513
-0.0031647
0.0073593
-0.0069916
-0.011456
-0.016878
-0.023575
-0.02804
-0.010819
-0.0038025
-0.0047593
-0.0044404
0.0054459
0.013738
0.0089539
0.017246
0.026175
0.0070404
-0.00061343
0.0028946
-0.012094
-0.014327
-0.013051
-0.020705
-0.031548
0.00098112
0.0025757
-0.0082673
0.00098112
0.0064026
0.012781
0.016608
0.028088
0.0076782
0.0003433
0.0067215
-0.002208
-0.0105
-0.014008
-0.015283
-0.021024
-0.023894
-0.0050782
0.0019378
-0.005716
0.0070404
0.014375
0.0076782
0.016608
0.033829
0.0022568
-0.00061343
0.0099106
-0.0047593
-0.0095429
-0.013689
-0.02198
-0.027083
-0.0050782
-0.00061343
-0.0031647
-0.0012513
0.0070404
0.015651
0.011824
0.019478
0.025856
0.0079971
0.00098112
0.0057648
-0.010819
-0.011775
-0.0105
-0.017197
-0.025807
0.0041702
0.0057648
-0.0069916
0.0044891
0.008316
0.014694
0.020435
0.030002
0.0076782
0.00098112
0.0092728
-0.0031647
-0.010181
-0.013689
-0.018153
-0.023256
-0.023256
-0.0069916
-0.0015702
-0.0076295
0.0051269
0.012462
0.0022568
0.012462
0.02777
-0.0031647
-0.0063538
0.0041702
-0.012094
-0.017516
-0.022299
-0.028359
-0.035694
-0.0089051
-0.0063538
-0.0098618
-0.009224
0.0013
0.008635
0.0076782
0.015651
0.017246
0.0003433
-0.0028458
-0.0028458
-0.015921
-0.017835
-0.015921
-0.023894
-0.033461
-0.0028458
-0.0015702
-0.012094
2.4388e-05
0.0025757
0.0079971
0.012143
0.026175
-0.00061343
-0.0038025
0.0054459
-0.0085862
-0.014964
-0.021343
-0.024213
-0.029634
-0.025488
-0.0095429
-0.0053971
-0.011775
0.0022568
0.0092728
-0.00061343
0.0099106
0.025218
-0.0018891
-0.0105
0.0016189
-0.013051
-0.017516
-0.021024
-0.028359
-0.036012
-0.0073105
-0.0050782
-0.010819
-0.0069916
0.0003433
0.008635
0.010548
0.017564
0.016927
0.0022568
-0.0012513
-0.0012513
-0.014327
-0.01624
-0.012094
-0.018791
-0.028359
-0.0015702
0.0025757
-0.0069916
0.0054459
0.012462
0.011186
0.018202
0.034148
0.004808
0.0032135
0.012462
-0.0018891
-0.0060349
-0.012094
-0.016559
-0.020067
-0.013051
0.0003433
0.0028946
2.4388e-05
0.010867
0.01884
0.0095917
0.022029
0.03638
0.0095917
0.0028946
0.011505
-0.0031647
-0.0063538
-0.0095429
-0.017516
-0.023575
0.0073593
0.0073593
-0.0034836
0.0022568
0.0095917
0.019159
0.020754
0.026813
0.019797
0.0070404
0.0057648
0.0019378
-0.0085862
-0.010819
-0.010181
-0.017197
-0.024851
2.4388e-05
0.0067215
-0.0038025
0.01023
0.014375
0.013738
0.02171
0.039569
0.0079971
0.0041702
0.015332
0.0041702
-0.0038025
-0.010819
-0.017197
-0.020386
-0.0073105
0.0044891
0.0028946
2.4388e-05
0.011824
0.017883
0.010548
0.018521
0.031278
0.0089539
0.0003433
0.0070404
-0.0085862
-0.012094
-0.01337
-0.019748
-0.030591
0.00098112
0.0013
-0.0076295
-0.0012513
0.0044891
0.012462
0.016927
0.023624
0.012781
0.0013
0.0032135
-0.0034836
-0.014327
-0.01624
-0.015283
-0.022937
-0.028996
-0.0066727
-0.0012513
-0.0085862
0.0028946
0.008635
0.004808
0.014375
0.029683
-0.00029452
-0.0028458
0.0073593
-0.0076295
-0.010819
-0.014645
-0.023256
-0.026764
-0.0098618
-0.00029452
-0.00061343
-0.00061343
0.0095917
0.017246
0.012781
0.02171
0.03064
0.011505
0.0022568
0.0099106
-0.0047593
-0.0066727
-0.005716
-0.01337
-0.023894
0.0095917
0.0099106
2.4388e-05
0.0095917
0.015013
0.023624
0.028407
0.037975
0.021391
0.013419
0.017883
0.0092728
0.00066221
-0.002208
-0.0018891
-0.0069916
-0.012094
0.0079971
0.013738
0.0073593
0.020116
0.025856
0.017564
0.025856
0.044991
0.011824
0.0095917
0.01884
0.0025757
-0.0018891
-0.0085862
-0.015283
-0.021024
-0.00029452
0.0054459
0.0025757
0.0022568
0.011186
0.020754
0.015332
0.022986
0.033191
0.011505
0.0038513
0.0079971
-0.0050782
-0.0063538
-0.0063538
-0.014327
-0.025488
0.0073593
0.0095917
-0.00061343
0.0092728
0.012462
0.020116
0.027132
0.037018
0.014694
0.008316
0.014694
0.0057648
-0.0034836
-0.005716
-0.0073105
-0.012094
-0.013689
0.0067215
0.013419
0.0057648
0.01884
0.025856
0.019159
0.030002
0.045629
0.014694
0.012462
0.02171
0.0064026
0.0019378
-0.002208
-0.0085862
-0.015921
0.0095917
0.014375
0.01023
0.011186
0.018521
0.026175
0.023305
0.034467
0.035742
0.016608
0.010548
0.011505
-0.0034836
-0.0041214
-0.0044404
-0.012094
-0.023256
0.0057648
0.008316
-0.0025269
0.0073593
0.011824
0.01597
0.022986
0.036061
0.008316
0.0051269
0.0131
0.0028946
-0.005716
-0.009224
-0.012094
-0.016559
-0.015602
0.0016189
0.0060837
0.0013
0.014694
0.021391
0.012462
0.02171
0.037975
0.010548
0.0057648
0.016608
2.4388e-05
-0.0034836
-0.0066727
-0.014964
-0.021343
0.0057648
0.0073593
0.0025757
0.0038513
0.013419
0.020754
0.022029
0.027451
0.027451
0.011824
0.0067215
0.0051269
-0.0073105
-0.0085862
-0.0082673
-0.01624
-0.025488
0.0025757
0.0060837
-0.0044404
0.0060837
0.0131
0.014056
0.020754
0.033829
0.0057648
0.0035324
0.013419
0.0013
-0.0060349
-0.011775
-0.014327
-0.019748
-0.012094
0.00098112
0.0054459
0.0032135
0.01597
0.019159
0.011824
0.025218
0.038294
0.012781
0.0076782
0.01597
-0.00029452
-0.0031647
-0.005716
-0.012413
-0.020067
0.010548
0.012462
0.0057648
0.0095917
0.018521
0.029364
0.027451
0.031596
0.027451
0.017883
0.015651
0.010867
-0.0018891
-0.0025269
-0.0015702
-0.010819
-0.020067
0.0054459
0.010548
-0.00093234
0.011505
0.016289
0.014694
0.022029
0.036061
0.0028946
0.0028946
0.010867
-0.0018891
-0.0066727
-0.014327
-0.021024
-0.024532
-0.016559
-0.0034836
-0.0018891
-0.0050782
0.0079971
0.015013
0.0073593
0.016608
0.030002
0.0057648
-0.002208
0.0064026
-0.0085862
-0.0098618
-0.012094
-0.017516
-0.027721
0.0044891
0.0054459
-0.002208
0.0038513
0.0095917
0.018521
0.021391
0.031278
0.019159
0.0095917
0.0095917
0.0041702
-0.0066727
-0.0069916
-0.0073105
-0.015921
-0.021024
0.0003433
0.0089539
-0.0018891
0.011824
0.016608
0.014056
0.021072
0.038294
0.0070404
0.0044891
0.014694
0.0003433
-0.0028458
-0.0085862
-0.014327
-0.018472
-0.0047593
0.008316
0.0089539
0.0064026
0.017883
0.025218
0.022348
0.029045
0.038931
0.016927
0.012781
0.018521
0.0028946
2.4388e-05
2.4388e-05
-0.0089051
-0.015921
0.015013
0.014694
0.0051269
0.013419
0.019159
0.026813
0.03064
0.039888
0.02458
0.016289
0.01884
0.010548
0.0016189
-0.00061343
-0.0018891
-0.0085862
-0.014327
0.0067215
0.0131
0.0044891
0.018521
0.023305
0.016608
0.028407
0.043715
0.011186
0.0099106
0.020435
0.0057648
0.0016189
-0.0047593
-0.012094
-0.01624
0.0025757
0.01023
0.0089539
0.0092728
0.017246
0.023305
0.021072
0.03064
0.038612
0.017246
0.0095917
0.013738
-0.0012513
-0.0015702
0.0013
-0.0095429
-0.020386
0.011824
0.014375
0.0067215
0.014694
0.018521
0.026813
0.030959
0.040845
0.022348
0.01597
0.021072
0.011505
0.0022568
-0.0015702
-0.0041214
-0.0095429
-0.011456
0.0064026
0.0092728
0.00098112
0.0131
0.020435
0.0095917
0.014694
0.031596
0.0003433
-0.002208
0.0095917
-0.0095429
-0.014964
-0.023575
-0.032504
-0.034099
-0.010181
-0.0053971
-0.0076295
-0.0089051
0.00098112
0.01023
0.0089539
0.020435
0.019797
0.0089539
0.0025757
0.0041702
-0.0098618
-0.014645
-0.013689
-0.019748
-0.026126
0.0092728
0.0131
0.0051269
0.015332
0.022667
0.025856
0.03351
0.051369
0.029364
0.026813
0.037018
0.029364
0.021072
0.019797
0.015013
0.010867
0.011505
0.025537
0.030321
0.022986
0.035742
0.037975
0.026813
0.034148
0.04818
0.016927
0.011186
0.021072
0.0051269
-0.0031647
-0.005716
-0.012732
-0.022618
0.0079971
0.0099106
-0.00061343
0.0038513
0.014694
0.023943
0.020435
0.028407
0.026494
0.010548
0.0044891
0.0013
-0.014008
-0.01624
-0.014008
-0.022299
-0.033142
-0.00061343
0.0003433
-0.011775
0.00098112
0.0013
0.0013
0.0089539
0.028726
0.0003433
-0.0025269
0.0025757
-0.013051
-0.019429
-0.024532
-0.030591
-0.034737
-0.028678
-0.017197
-0.012413
-0.017197
-0.0050782
0.0073593
0.0044891
0.012781
0.032872
0.010548
0.016608
0.028407
0.027451
0.024899
0.011186
-0.0053971
-0.00029452
0.033829
0.036699
0.022348
0.016289
0.015651
0.015332
0.0070404
0.0057648
0.0060837
-0.019748
-0.030591
-0.051001
-0.062163
-0.039839
-0.036012
-0.055466
-0.064077
-0.016559
-0.0012513
-0.0079484
0.0079971
0.026175
0.041802
0.060617
0.079752
0.043715
0.037656
0.049774
0.040207
0.03064
0.025537
0.014694
0.0070404
0.0070404
0.011824
0.0041702
-0.002208
0.013419
0.015651
0.008635
0.029364
0.043396
0.015651
0.0025757
0.022667
0.012462
0.02777
0.037337
0.027451
0.023305
0.048818
0.060936
0.062531
0.059342
0.069547
0.081028
0.085811
0.081346
0.068271
0.050412
0.039569
0.032234
0.008635
-0.002208
-0.0025269
-0.022299
-0.035694
-0.020386
-0.014645
-0.029953
-0.015283
-0.012413
0.0013
0.0013
0.01023
-0.005716
0.012143
0.030002
0.025218
0.028407
0.0057648
0.020435
0.022348
0.041483
0.064125
0.059342
0.057109
0.06572
0.074968
0.07752
0.076244
0.069866
0.044991
0.035742
0.038612
0.023943
0.040207
0.044353
0.0073593
-0.010819
0.015651
0.023624
0.033829
0.043077
0.031915
0.041164
0.050731
0.062531
0.052963
0.049137
0.043715
0.030959
0.020754
0.0041702
-0.002208
-0.015283
-0.029315
-0.012413
-0.025488
-0.047493
-0.050682
-0.058017
-0.066309
-0.056423
-0.050044
-0.086719
-0.092778
-0.10235
-0.10968
-0.10936
-0.10904
-0.11606
-0.098838
-0.077471
-0.055785
-0.046218
-0.031548
-0.019429
-0.0050782
-0.0076295
0.025537
0.049455
0.047542
0.052326
0.034148
0.029364
0.027132
0.040845
0.036699
0.040845
0.095697
0.09187
0.061893
0.085173
0.085492
0.11611
0.11643
0.13333
0.12567
0.12153
0.13492
0.13173
0.13237
0.13524
0.13205
0.13014
0.12886
0.13747
0.14417
0.12312
0.12918
0.13652
0.13269
0.14034
0.14736
0.10941
0.099524
0.096016
0.052645
0.050731
0.060936
0.050093
0.027132
0.048818
0.050412
-0.0034836
-0.0041214
0.030959
0.021391
-0.0098618
-0.022618
-0.047174
-0.068541
-0.10968
-0.14093
-0.15018
-0.14444
-0.16453
-0.16039
-0.18622
-0.17314
-0.15847
-0.16326
-0.17059
-0.15975
-0.12754
-0.12626
-0.094373
-0.088633
-0.094692
-0.084487
-0.084487
-0.094692
-0.10426
-0.11542
-0.093097
-0.088633
-0.069817
-0.064714
-0.061844
-0.01624
-0.012413
-0.021024
0.0054459
0.030002
0.016289
0.046904
0.075287
0.076563
0.082941
0.082622
0.087406
0.12504
0.1665
0.17447
0.16777
0.1665
0.18435
0.207
0.20859
0.21529
0.22581
0.18308
0.17351
0.14736
0.11898
0.11292
0.10335
0.080071
0.052007
0.06285
0.045947
0.0044891
0.016289
0.022986
0.0092728
-0.0015702
0.02458
-0.018153
-0.0053971
0.0067215
-0.0079484
-0.018472
-0.017516
-0.020067
-0.043028
-0.046218
-0.030591
-0.041753
-0.054828
-0.061525
-0.059612
-0.08927
-0.091822
-0.090227
-0.13424
-0.14253
-0.12499
-0.13774
-0.13264
-0.13743
-0.13583
-0.11574
-0.058017
-0.043028
-0.055147
-0.029315
0.0099106
0.047542
0.058385
0.06859
0.075925
0.059342
0.060936
0.079114
0.052963
0.035104
0.03638
0.016289
-0.012413
0.0057648
0.0095917
0.010548
-0.0028458
-0.014645
-0.012094
-0.00061343
0.030321
-0.0047593
-0.032186
-0.01337
-0.030272
-0.0098618
-0.0038025
-0.017516
-0.038564
-0.028359
-0.0095429
-0.014645
-0.016559
-0.029634
-0.016878
-0.041753
-0.046218
-0.036012
-0.057698
-0.060887
-0.05132
-0.066309
-0.074601
-0.068541
-0.072368
-0.075876
-0.027721
-0.01337
2.4388e-05
0.015651
0.044353
0.069228
0.041164
0.063169
0.092508
0.084536
0.092508
0.096016
0.08613
0.071779
0.063169
0.05105
0.033829
0.050412
0.044672
0.022986
0.023624
0.0089539
-0.0069916
-0.021343
-0.0044404
-0.032823
-0.058655
-0.049088
-0.064714
-0.071093
-0.065671
-0.064395
-0.086719
-0.069179
-0.053871
-0.051639
-0.059293
-0.041434
-0.025488
-0.051001
-0.050044
-0.045261
-0.07173
-0.088314
-0.085443
-0.10426
-0.085762
-0.077152
-0.090546
-0.095968
-0.05132
-0.039202
-0.034737
-0.005716
-0.0098618
-0.0038025
0.020435
0.017564
-0.0012513
-0.0031647
-0.010181
-0.0076295
-0.027721
-0.04845
-0.064077
-0.072687
-0.083849
-0.065352
-0.064077
-0.064714
-0.043985
-0.049407
-0.06312
-0.042391
-0.01911
-0.032504
-0.039839
-0.019748
-0.030591
-0.027721
-0.032504
-0.03665
-0.022618
0.0032135
0.0076782
0.0070404
0.0095917
0.017883
0.025856
0.011824
0.034148
0.042121
0.0076782
-0.0073105
-0.012732
-0.029953
-0.034099
-0.043985
-0.039202
-0.029634
-0.016559
-0.032504
-0.057379
-0.036969
-0.02517
-0.028996
-0.02517
-0.013051
-0.014964
-0.03952
-0.050044
-0.068541
-0.078746
-0.080341
-0.080979
-0.10043
-0.10617
-0.089589
-0.066309
-0.079065
-0.071411
-0.062801
-0.065671
-0.046218
-0.0047593
-0.031229
-0.040158
0.0070404
-0.0041214
-0.012413
-0.034099
-0.043666
-0.028359
-0.0098618
-0.009224
0.004808
-0.014645
-0.02198
-0.0095429
-0.018153
-0.02517
-0.024851
-0.055147
-0.044304
-0.042072
-0.044623
-0.03952
-0.060887
-0.075238
-0.073644
-0.038883
-0.010819
0.0038513
-0.0079484
-0.010181
0.012781
0.0067215
0.023624
0.013419
0.0016189
0.017564
-0.0085862
-0.01337
-0.0047593
-0.014008
-0.020067
-0.035694
-0.027083
-0.02517
-0.0069916
-0.0018891
0.0070404
-0.020067
-0.023575
-0.0076295
-0.019748
-0.022299
-0.029315
-0.056104
-0.066628
-0.066309
-0.070774
-0.082254
-0.061844
-0.057379
-0.068541
-0.068541
-0.060887
-0.047174
-0.042391
-0.029634
-0.027402
-0.049088
-0.064714
-0.053552
-0.071411
-0.074919
-0.046218
-0.06886
-0.091184
-0.065352
-0.070774
-0.096286
-0.091503
-0.080341
-0.075876
-0.076514
-0.080341
-0.084168
-0.06886
-0.038245
-0.064714
-0.075238
-0.06312
-0.024213
-0.015283
-0.025488
0.0035324
0.021072
0.004808
0.027132
0.028407
0.0044891
0.0032135
0.0028946
-0.014964
-0.047493
-0.053234
-0.067903
-0.10266
-0.11733
-0.10617
-0.10298
-0.094373
-0.071093
-0.057061
-0.071411
-0.062801
-0.037288
-0.0105
0.0060837
0.0064026
-0.013689
-0.0025269
0.02458
-0.0069916
-0.00029452
0.0095917
0.00098112
-0.0105
0.008635
0.017564
0.008316
0.013419
0.0073593
0.01023
0.021391
0.025856
-0.0073105
-0.013689
-0.014645
-0.032823
-0.042072
-0.06312
-0.068541
-0.075876
-0.069817
-0.056423
-0.056742
-0.06025
-0.055466
-0.054509
-0.058974
-0.040158
-0.027721
-0.044623
-0.04558
-0.047493
-0.059612
-0.078427
-0.082254
-0.069498
-0.078746
-0.06025
-0.061206
-0.082892
-0.079065
-0.070774
-0.053552
-0.047812
-0.047174
-0.063439
-0.078746
-0.071411
-0.055147
-0.064714
-0.062482
-0.068541
-0.049407
-0.069179
-0.051958
-0.055147
-0.049088
-0.011775
-0.029634
-0.068222
-0.085125
-0.067903
-0.10872
-0.14125
-0.14476
-0.15178
-0.17474
-0.16358
-0.15528
-0.16932
-0.10458
-0.12531
-0.1167
-0.11191
-0.068222
-0.027083
-0.002208
0.02777
0.060617
0.053601
0.057428
0.076563
0.060617
0.055834
0.063487
0.061255
0.049774
0.077838
0.063806
0.057109
0.052963
0.055196
0.057109
0.058385
0.069547
0.046266
0.015332
0.0044891
-0.0069916
0.0022568
0.0025757
-0.021343
-0.05132
-0.052915
-0.036969
-0.03665
-0.048131
-0.033142
-0.033461
-0.04271
-0.037926
-0.011137
-0.038883
-0.049407
-0.043985
-0.061525
-0.067903
-0.081298
-0.10235
-0.10298
-0.084806
-0.085443
-0.094054
-0.11223
-0.11255
-0.10522
-0.061525
-0.05419
-0.045261
-0.084168
-0.11989
-0.10394
-0.10649
-0.083211
-0.056742
-0.054509
-0.075876
-0.049407
-0.045899
-0.062163
-0.058336
-0.032186
-0.023575
-0.035375
-0.046536
-0.052277
-0.056423
-0.051958
-0.08066
-0.089589
-0.093735
-0.091822
-0.10266
-0.12339
-0.10235
-0.073325
-0.080341
-0.067903
-0.056742
-0.035694
-0.026764
-0.0053971
-0.0105
-0.0018891
0.008635
-0.016559
-0.0018891
0.013738
0.014375
0.012143
0.02458
0.030959
0.031596
0.026175
0.026813
0.028407
0.01597
0.022986
0.033829
0.0131
-0.005716
-0.0105
-0.03378
-0.032186
-0.031229
-0.048131
-0.047812
-0.012732
-0.014964
-0.016559
-0.017197
-0.012413
-0.011775
-0.017516
-0.012413
-0.0069916
-0.018791
-0.041115
-0.052915
-0.073963
-0.067903
-0.086719
-0.093097
-0.10522
-0.10107
-0.094054
-0.099794
-0.10171
-0.1049
-0.096924
-0.094373
-0.078746
-0.099157
-0.11159
-0.0982
-0.10681
-0.097881
-0.082892
-0.075238
-0.080979
-0.038883
-0.030591
-0.027721
-0.02517
-0.016878
0.0057648
0.01597
0.016289
0.031278
0.008316
0.0038513
0.0013
-0.050363
-0.041434
-0.046536
-0.073006
-0.087038
-0.062482
-0.059931
-0.084168
-0.069498
-0.041434
-0.032504
-0.020705
-0.018472
-0.047174
-0.057379
-0.031229
-0.039202
-0.037607
-0.023894
-0.029953
-0.034418
-0.031548
-0.013051
-0.014008
-0.023894
-0.011137
-0.0095429
-0.024213
-0.021343
0.0092728
-0.0095429
-0.024851
-0.025488
-0.038245
-0.034737
-0.035056
-0.05419
-0.07173
-0.046536
-0.029953
-0.023894
-0.033461
-0.036969
-0.029315
-0.027721
-0.022937
-0.038245
-0.071411
-0.073963
-0.080979
-0.094373
-0.0982
-0.095011
-0.10617
-0.12499
-0.0864
-0.08066
-0.095968
-0.092141
-0.074601
-0.053234
-0.053234
-0.034418
-0.073325
-0.052915
-0.00093234
-0.060887
-0.05419
-0.043028
-0.043347
-0.05132
-0.044623
-0.031229
-0.03091
-0.032504
-0.0031647
-0.0015702
-0.0044404
0.0076782
0.013419
-0.021024
-0.022937
-0.0085862
-0.036331
-0.038245
-0.050682
-0.061844
-0.073006
-0.01911
-0.0089051
-0.028678
-0.029953
-0.024213
-0.014008
-0.0069916
0.0044891
0.0054459
-0.0047593
-0.02517
-0.016559
-0.010819
-0.021024
-0.018791
-0.034418
-0.056742
-0.026126
-0.010819
-0.028678
-0.020067
-0.019748
-0.014008
-0.0076295
0.0025757
-0.035056
-0.04271
-0.027083
-0.041115
-0.050682
-0.053871
-0.056742
-0.070455
-0.065033
-0.043028
-0.038883
-0.036969
-0.014645
-0.0069916
-0.023894
-0.0105
0.01884
-0.0069916
-0.0047593
-0.0060349
-0.013051
-0.0038025
-0.012413
-0.01911
-0.032823
-0.00061343
-0.00061343
-0.016559
-0.0069916
-0.023256
-0.025488
-0.02804
-0.015602
-0.02198
-0.040477
-0.058655
-0.048131
-0.057379
-0.079384
-0.085762
-0.092778
-0.12467
-0.073006
-0.053552
-0.062482
-0.059931
-0.049407
-0.049088
-0.048131
-0.023894
-0.0864
-0.081935
-0.069179
-0.079065
-0.086081
-0.091822
-0.087676
-0.084487
-0.048131
-0.038245
-0.070136
-0.05132
-0.0041214
-0.014327
-0.0044404
0.0035324
0.015332
0.0044891
-0.0050782
0.014056
0.008635
-0.0047593
-0.014964
-0.029315
-0.047493
-0.03091
-0.0069916
-0.013689
-0.014645
-0.024213
-0.012094
0.0089539
0.022029
-0.013689
-0.024532
-0.02198
-0.025807
-0.03378
-0.03952
-0.043347
-0.049407
-0.055466
-0.029953
-0.041753
-0.060569
-0.034737
-0.02804
-0.031229
-0.030591
-0.015921
-0.052915
-0.050363
-0.039202
-0.050682
-0.054509
-0.067266
-0.059293
-0.060569
-0.049726
-0.031229
-0.028678
-0.030272
-0.026126
-0.01624
-0.024213
-0.01911
-0.0098618
-0.031229
-0.046855
-0.038883
-0.072687
-0.066309
-0.079065
-0.080022
-0.10362
-0.073963
-0.034099
-0.031229
-0.03952
-0.047493
-0.031548
-0.010819
0.014375
-0.0105
-0.011775
-0.005716
-0.010819
-0.031229
-0.027721
-0.0105
-0.053234
-0.054509
-0.042391
-0.052277
-0.052915
-0.03091
-0.040796
-0.048131
-0.03665
-0.01337
-0.040158
-0.048131
-0.036969
-0.034418
-0.026126
-0.041753
-0.052277
-0.050682
-0.01911
-0.018791
-0.017516
-0.0028458
0.012143
0.010867
0.004808
0.012143
0.011186
-0.013051
-0.0060349
0.0079971
-0.017835
-0.026445
-0.022618
-0.028678
-0.037607
-0.0044404
-0.002208
-0.016878
-0.013051
-0.0085862
0.008635
-0.00061343
-0.0018891
-0.012094
-0.010181
-0.014964
-0.050363
-0.060569
-0.039839
-0.040796
-0.053234
-0.053552
-0.04271
-0.061844
-0.064714
-0.016878
-0.011456
-0.03378
-0.021024
0.0060837
-0.012732
-0.022299
-0.022937
-0.018791
0.017246
-0.022299
-0.018791
-0.012732
-0.010181
0.00098112
-0.012094
0.0003433
0.012143
0.0131
-0.0044404
-0.0060349
0.026175
-0.036969
-0.045261
-0.046218
-0.06025
-0.074282
-0.077152
-0.082892
-0.082892
-0.053871
-0.045899
-0.061206
-0.033142
-0.018791
-0.037926
-0.036969
-0.012094
-0.0089051
0.004808
-0.00029452
-0.010819
-0.014645
-0.039202
-0.034737
-0.03091
-0.031867
-0.0047593
0.00098112
-0.01337
-0.0041214
-0.0047593
-0.017835
-0.010819
0.0025757
-0.027402
-0.035694
-0.027721
-0.042072
-0.041753
-0.051001
-0.073325
-0.079065
-0.043347
-0.028678
-0.039839
-0.042072
-0.027721
-0.0095429
-0.011456
-0.0089051
0.0073593
-0.033142
-0.022618
-0.0069916
-0.025807
-0.039839
-0.035375
-0.02517
-0.035694
-0.014008
-0.0053971
-0.015602
0.012143
0.035742
0.027451
0.036061
0.061893
0.026175
0.0099106
0.019478
0.0003433
0.022029
0.035423
0.0089539
-0.010181
-0.023575
-0.020386
-0.0095429
-0.0060349
-0.023894
-0.012094
-0.014645
-0.02804
0.0028946
-0.021343
-0.045899
-0.034418
-0.057698
-0.051639
-0.058336
-0.068222
-0.056742
-0.024213
-0.040477
-0.020067
-0.020705
-0.034099
-0.014008
0.0054459
-0.002208
-0.0041214
-0.0073105
-0.031867
-0.026126
-0.036012
-0.040158
-0.031548
-0.045261
-0.06312
-0.03952
-0.018791
-0.028678
-0.013051
-0.016559
-0.024213
-0.0012513
0.019478
-0.011775
-0.017835
-0.010181
-0.023575
-0.021343
-0.030272
-0.037926
-0.036969
-0.024851
-0.0044404
-0.0063538
-0.0082673
0.015013
0.028088
0.022986
0.027451
0.039888
0.027451
0.027132
0.034467
0.0095917
0.01884
0.016608
0.0022568
-0.02198
0.019478
0.0038513
-0.010181
0.024899
0.026813
0.0092728
0.0016189
0.013419
0.016927
0.012143
-0.011456
-0.03091
-0.03091
-0.02804
-0.023575
-0.046855
-0.033142
-0.0060349
-0.022299
-0.018153
-0.012094
-0.028996
-0.0031647
0.022667
0.03638
-0.0015702
0.0028946
0.0089539
0.0054459
0.0025757
-0.00061343
0.0032135
-0.0085862
0.012462
0.014375
0.0089539
0.036061
0.043077
0.038931
0.029045
0.03064
0.041164
2.4388e-05
0.0064026
0.0028946
-0.036012
-0.020705
-0.0085862
-0.02198
-0.050363
-0.018791
-0.020386
-0.013689
-0.022937
-0.0015702
0.0025757
0.0095917
0.019478
-0.00061343
-0.0038025
0.0057648
-0.0050782
-0.013689
-0.013051
-0.005716
-0.009224
-0.018791
-0.0031647
-0.0031647
0.0035324
0.016608
0.023624
0.012781
0.023943
0.03925
-0.0050782
-0.011456
0.0092728
0.020116
-0.0041214
-0.017516
-0.02517
-0.031229
-0.0034836
0.0092728
0.0067215
0.0054459
0.012143
0.037337
0.038294
0.042758
0.057747
0.046266
0.045629
0.049774
0.041164
0.030959
0.038294
0.027132
0.03064
0.064763
0.055196
0.035742
0.02777
0.045947
0.01884
0.051369
0.043077
-0.02198
-0.00061343
-0.0015702
-0.014008
-0.030272
-0.04845
-0.05132
-0.045899
-0.045261
-0.027402
-0.012094
-0.021343
0.0028946
0.014694
0.011824
0.026813
0.04531
0.025218
0.020435
0.023624
0.01023
0.022667
0.017883
0.015013
0.00066221
0.019797
0.024899
0.017883
0.035104
0.047223
0.08326
0.046585
0.047861
0.058704
0.023943
0.02458
0.01884
0.0054459
-0.00061343
-0.0047593
-0.02517
-0.043985
2.4388e-05
-0.022618
-0.046855
-0.038883
-0.037288
-0.037288
-0.025807
-0.0105
-0.028678
-0.040158
-0.032823
-0.038564
-0.03665
-0.048131
-0.043028
-0.044623
-0.037607
-0.017197
-0.0095429
-0.018472
-0.005716
0.020435
0.020754
0.032872
0.052963
0.043715
0.01023
0.03638
0.0092728
0.013738
0.045947
0.044034
0.029045
0.049455
0.044353
0.043715
0.059661
0.064444
0.046266
0.05105
0.060617
0.058385
0.053282
0.03925
0.020754
-0.0041214
0.012781
0.014694
-0.0066727
-0.01624
0.011824
0.01597
0.016289
0.025218
0.020754
0.027132
0.045629
0.056153
0.02777
0.014375
0.029683
0.039888
0.035104
0.037337
0.033829
0.025218
0.029045
0.04818
0.048499
0.048499
0.065082
0.061574
0.03638
0.04531
0.051369
0.01023
0.022029
0.01597
-0.0073105
-0.028996
-0.032823
-0.048131
-0.047493
-0.014327
-0.0015702
-0.011775
-0.0031647
0.0089539
0.02171
0.031596
0.039569
0.040845
0.032234
0.040207
0.042121
0.031915
0.032234
0.032872
0.023305
0.00098112
0.031278
0.051688
0.03638
0.03925
0.047223
0.046904
0.03925
0.06285
0.045629
0.03351
0.055196
0.037018
0.019797
0.024899
0.02777
0.020754
0.037337
0.060617
0.058066
0.04531
0.053601
0.093465
0.076882
0.09187
0.11419
0.082622
0.078476
0.076244
0.051688
0.052963
0.050412
0.059979
0.030321
0.061574
0.062212
0.042439
0.055196
0.055834
0.064444
0.074968
0.067314
0.052645
0.038294
0.04531
0.042758
0.026813
0.025218
0.029045
0.03638
0.032234
0.054558
0.057109
0.050412
0.066358
0.073374
0.06285
0.074012
0.08613
0.050731
0.041164
0.049455
0.052007
0.054877
0.040845
0.024262
0.017883
0.028726
0.040207
0.048818
0.044353
0.044991
0.052007
0.042439
0.044672
0.062531
0.028088
0.018521
0.049137
0.020754
0.0003433
0.0064026
0.012781
-0.0085862
0.025856
0.046904
0.025856
0.041164
0.060617
0.067314
0.074649
0.089
0.078157
0.078795
0.072736
0.034467
0.010867
0.052963
0.058704
0.027451
0.012781
0.030002
0.059023
0.044034
0.04818
0.057109
0.058704
0.066677
0.087087
0.056153
0.058066
0.070503
0.057747
0.05105
0.050412
0.043715
0.037337
0.061574
0.067314
0.080071
0.081665
0.085811
0.083579
0.07433
0.084217
0.088681
0.069228
0.06285
0.067952
0.044353
0.03351
0.0003433
0.01597
0.03064
0.046266
0.038931
0.032234
0.045629
0.040845
0.054239
0.06572
0.082622
0.071141
0.071141
0.074968
0.059979
0.050731
0.052326
0.06859
0.049137
0.044991
0.070822
0.069547
0.057747
0.071779
0.061255
0.049774
0.073693
0.096335
0.056471
0.078795
0.096973
0.089957
0.067633
0.064444
0.049455
0.079114
0.11483
0.14162
0.14226
0.13556
0.14258
0.13397
0.14959
0.13524
0.13716
0.13014
0.10495
0.097292
0.080071
0.049455
0.034786
0.026494
0.016927
0.040526
0.026494
-0.0079484
0.01597
0.037018
0.035742
0.037018
0.05679
0.034148
0.022986
0.031278
0.032872
0.036699
0.03925
0.037337
0.037018
0.03925
0.063169
0.073055
0.073055
0.090276
0.094422
0.084854
0.098249
0.12185
0.08613
0.067633
0.076244
0.067633
0.061255
0.056153
0.046904
0.040845
0.061893
0.063806
0.048499
0.049455
0.046585
0.073055
0.07752
0.073055
0.073374
0.052645
0.054877
0.05679
0.047542
0.054877
0.065082
0.051369
0.037018
0.058066
0.074649
0.07146
0.076882
0.080071
0.089319
0.098249
0.10399
0.081028
0.080071
0.10431
0.10399
0.090595
0.084854
0.084854
0.090914
0.085492
0.10176
0.1177
0.13269
0.14991
0.14768
0.15151
0.14927
0.16331
0.1228
0.10782
0.13684
0.12217
0.11802
0.12567
0.11675
0.10558
0.12025
0.12057
0.12153
0.12631
0.13046
0.13492
0.1244
0.10909
0.10686
0.094103
0.07146
0.075925
0.056471
0.034467
0.033191
0.020754
0.0003433
0.034148
0.047542
0.031915
0.044034
0.042121
0.035423
0.052645
0.075925
0.046266
0.038612
0.051688
0.03925
0.035104
0.030959
0.040207
0.022029
0.030002
0.054239
0.05392
0.043396
0.081984
0.09506
0.075287
0.08613
0.11738
0.094741
0.084217
0.092508
0.076882
0.06572
0.073374
0.082941
0.081665
0.11005
0.10877
0.10622
0.12567
0.11292
0.11898
0.13397
0.15055
0.15501
0.14545
0.15565
0.14896
0.12759
0.12823
0.13811
0.13269
0.1244
0.14321
0.16394
0.14481
0.1582
0.1531
0.15087
0.17
0.16235
0.13046
0.14226
0.1531
0.12791
0.10048
0.094422
0.091552
0.076882
0.090595
0.096016
0.088044
0.089319
0.10431
0.11164
0.087725
0.092189
0.10782
0.088681
0.083898
0.081665
0.070503
0.068271
0.066039
0.046585
0.030959
0.069547
0.070185
0.048499
0.057109
0.054877
0.081346
0.083579
0.076563
0.057109
0.043715
0.047223
0.052645
0.055834
0.064444
0.075606
0.055834
0.040526
0.071141
0.10845
0.10495
0.13014
0.13078
0.13492
0.14353
0.17638
0.15884
0.1547
0.16937
0.15278
0.14545
0.15788
0.16267
0.15757
0.15023
0.16745
0.17606
0.15693
0.15501
0.14736
0.15438
0.14162
0.16777
0.14417
0.13843
0.14258
0.10813
0.10208
0.1075
0.10239
0.092189
0.13046
0.13524
0.12057
0.13237
0.14034
0.14736
0.15183
0.15693
0.12886
0.14832
0.15374
0.12823
0.10622
0.10686
0.1008
0.085492
0.07752
0.09187
0.10431
0.08613
0.081028
0.07752
0.065401
0.069547
0.075287
0.01023
-0.012094
0.028407
0.027132
0.0099106
-0.0044404
-0.016559
-0.012413
0.011186
0.027132
0.035104
0.030959
0.062531
0.069547
0.081665
0.096654
0.093146
0.082622
0.078476
0.084217
0.081346
0.087406
0.10463
0.097611
0.091552
0.13397
0.14736
0.14991
0.16554
0.17702
0.20349
0.20413
0.21752
0.21401
0.21146
0.21975
0.22677
0.22581
0.19902
0.1783
0.16235
0.16426
0.17383
0.15884
0.14959
0.17032
0.16203
0.13588
0.13365
0.14003
0.11802
0.10526
0.092827
0.074649
0.074012
0.076882
0.079433
0.083579
0.10144
0.079114
0.082622
0.092827
0.078795
0.081028
0.082941
0.10941
0.099524
0.060298
0.040845
0.028726
0.031915
0.04531
0.035423
-0.0076295
-0.024532
0.016608
0.014375
-0.0012513
0.0070404
0.025537
0.049455
0.070822
0.083898
0.056153
0.040845
0.059342
0.058704
0.07146
0.092827
0.064125
0.069547
0.07146
0.099524
0.12312
0.12918
0.12727
0.14864
0.14481
0.16171
0.18467
0.148
0.14736
0.16394
0.1582
0.15278
0.15183
0.15246
0.14194
0.1716
0.17096
0.16076
0.15852
0.1716
0.17064
0.17096
0.17287
0.17511
0.14768
0.14481
0.14768
0.13269
0.11451
0.10909
0.10303
0.093465
0.11164
0.1126
0.098568
0.10782
0.11419
0.10845
0.10718
0.11866
0.098886
0.097611
0.10176
0.066995
0.058704
0.059342
0.048499
0.052963
0.05392
0.057747
0.038612
0.028407
0.037975
0.07433
0.061574
0.050093
0.047542
0.028726
0.022667
0.029364
0.0028946
0.0016189
0.0022568
0.00098112
0.0060837
0.033829
0.030321
0.022986
0.040207
0.066995
0.079433
0.084854
0.080071
0.069228
0.088681
0.089638
0.082303
0.078795
0.085811
0.069547
0.069228
0.055515
0.093784
0.095378
0.083579
0.09506
0.11228
0.11675
0.12121
0.13397
0.10495
0.11228
0.12631
0.1177
0.11196
0.10686
0.10431
0.099843
0.10176
0.11547
0.10335
0.096654
0.1126
0.12153
0.10973
0.11419
0.12823
0.1008
0.089957
0.10622
0.087406
0.083579
0.075925
0.070822
0.054877
0.079752
0.061255
0.067314
0.072417
0.072736
0.084217
0.090276
0.084854
0.054877
0.037337
0.034148
0.031915
0.015013
0.029045
0.025218
0.01597
0.0003433
0.018521
0.03351
0.014694
0.044991
0.062531
0.092508
0.069866
0.091233
0.049137
0.041483
0.047861
0.038294
0.043715
0.037018
0.023305
0.01597
0.031915
0.02171
0.0064026
0.0079971
0.033829
0.050731
0.052645
0.072736
0.084217
0.060617
0.069547
0.085173
0.085811
0.092827
0.10463
0.099843
0.089319
0.12759
0.1311
0.11483
0.11706
0.12185
0.12791
0.13014
0.13429
0.11132
0.097611
0.096654
0.087725
0.075606
0.072417
0.066995
0.059979
0.054239
0.071779
0.075925
0.067314
0.080709
0.083579
0.073374
0.082941
0.10208
0.06859
0.059342
0.070503
0.05679
0.05679
0.051369
0.042758
0.032872
0.049774
0.063169
0.066358
0.058385
0.066039
0.07752
0.07146
0.083579
0.10303
0.090914
0.081665
0.090276
0.066995
0.06572
0.087087
0.074012
0.066995
0.10176
0.11292
0.09793
0.10718
0.086449
0.10718
0.11515
0.11101
0.074012
0.062531
0.072417
0.023943
0.017883
0.0079971
-0.017197
-0.023256
-0.03378
-0.024532
-0.01624
-0.005716
0.012462
-0.00093234
0.0025757
0.026494
0.055196
0.026494
0.040207
0.054239
0.045629
0.048818
0.060298
0.058066
0.055834
0.084536
0.090276
0.087087
0.088044
0.09187
0.094422
0.095378
0.10431
0.10973
0.091233
0.082622
0.08613
0.069547
0.068271
0.069228
0.061255
0.050093
0.082622
0.084854
0.066358
0.06859
0.069866
0.08613
0.096654
0.10208
0.072098
0.063169
0.070185
0.057109
0.048499
0.045947
0.040207
0.034786
0.031915
0.050093
0.054558
0.049137
0.063487
0.066677
0.057747
0.067633
0.081665
0.052007
0.051369
0.059661
0.041802
0.040845
0.035104
0.027451
0.022029
0.048818
0.05392
0.047223
0.050412
0.057747
0.064763
0.066039
0.072417
0.075606
0.055515
0.047861
0.053601
0.041802
0.038612
0.035104
0.028088
0.02171
0.051688
0.050731
0.038931
0.052963
0.056471
0.055196
0.060936
0.077838
0.052007
0.049137
0.056153
0.046585
0.036699
0.028407
0.021072
0.020754
0.026813
0.042439
0.04531
0.040845
0.052007
0.057109
0.050731
0.059023
0.07433
0.045629
0.037656
0.050731
0.036699
0.033191
0.028088
0.020754
0.013738
0.043077
0.045947
0.039569
0.044034
0.051369
0.061255
0.061255
0.069228
0.06572
0.051369
0.046585
0.042121
0.030959
0.03351
0.034467
0.025218
0.014375
0.041164
0.047223
0.037975
0.04531
0.046266
0.046585
0.057747
0.072417
0.044672
0.038294
0.044353
0.03064
0.026494
0.021072
0.014694
0.010867
0.022348
0.036699
0.037656
0.033829
0.04818
0.054558
0.044034
0.056153
0.071779
0.048499
0.039888
0.05105
0.037656
0.034467
0.035104
0.024262
0.017246
0.049137
0.052007
0.046585
0.052326
0.057747
0.06572
0.067952
0.075606
0.07146
0.057109
0.058704
0.050731
0.040207
0.039569
0.042758
0.032872
0.026494
0.049774
0.058704
0.046904
0.059023
0.064125
0.063487
0.070503
0.086449
0.054558
0.052645
0.064125
0.049455
0.046585
0.041164
0.032872
0.029045
0.043396
0.053601
0.055515
0.052963
0.063169
0.072736
0.064444
0.071141
0.085173
0.064444
0.055515
0.063487
0.048499
0.046904
0.043396
0.03638
0.029683
0.06285
0.06285
0.057747
0.063806
0.06572
0.072417
0.075925
0.087725
0.072098
0.06572
0.06285
0.053282
0.041483
0.041483
0.042758
0.034467
0.02458
0.044991
0.048818
0.039569
0.053601
0.061255
0.054239
0.060617
0.076882
0.042758
0.040526
0.051369
0.037018
0.031278
0.026494
0.020754
0.01597
0.032553
0.038931
0.037337
0.03925
0.049137
0.056471
0.051688
0.060936
0.069228
0.049137
0.039888
0.046585
0.031915
0.030959
0.028726
0.017564
0.0070404
0.039569
0.046904
0.031278
0.036699
0.037656
0.048818
0.051688
0.059979
0.038612
0.031915
0.037018
0.028726
0.015651
0.015651
0.016289
0.0064026
0.0032135
0.020435
0.028088
0.020116
0.036699
0.040526
0.031596
0.040207
0.057109
0.022348
0.021072
0.032872
0.015651
0.013419
0.010867
-0.00061343
-0.0038025
0.015013
0.023943
0.02171
0.023305
0.032553
0.040526
0.032553
0.043396
0.052645
0.032872
0.023943
0.030002
0.015332
0.013738
0.015651
0.0067215
-0.0025269
0.03064
0.032553
0.019797
0.03064
0.037975
0.043715
0.049137
0.058385
0.03638
0.033191
0.042121
0.030002
0.020435
0.017883
0.017246
0.010867
0.012462
0.031915
0.03925
0.027132
0.041164
0.044353
0.034786
0.047861
0.065401
0.032872
0.029683
0.038931
0.022348
0.016608
0.011505
0.0067215
-0.0015702
0.025856
0.030959
0.025218
0.029045
0.038294
0.046266
0.045947
0.053282
0.056471
0.042758
0.034786
0.036699
0.022029
0.02171
0.024899
0.014375
0.0028946
0.033829
0.037337
0.023943
0.038612
0.040526
0.038612
0.037975
0.055515
0.031596
0.02458
0.029683
0.018202
0.0089539
0.0032135
-0.002208
-0.0076295
-0.0038025
0.011505
0.014694
0.010548
0.02171
0.028407
0.018521
0.025856
0.048818
0.01597
0.010548
0.021391
0.0028946
0.0003433
-0.0034836
-0.012413
-0.017516
0.012143
0.010867
0.0041702
0.0076782
0.015332
0.022986
0.023305
0.029683
0.025856
0.01023
0.0067215
0.0054459
-0.0098618
-0.013051
-0.0076295
-0.016559
-0.029953
-0.00093234
0.0035324
-0.011456
0.0016189
0.0076782
0.0057648
0.012781
0.027132
-0.0028458
-0.0073105
0.0032135
-0.0082673
-0.014964
-0.020067
-0.027083
-0.029953
-0.022299
-0.0073105
-0.0034836
-0.0073105
0.0035324
0.011505
0.0019378
0.012781
0.02777
0.0003433
-0.0053971
0.0067215
-0.012413
-0.014645
-0.017516
-0.028678
-0.035375
-0.00061343
0.0016189
-0.0060349
-0.0015702
0.0041702
0.0079971
0.010548
0.022029
0.01597
0.0038513
-0.00029452
-0.0038025
-0.017197
-0.017197
-0.014645
-0.023256
-0.032823
-0.0076295
-0.0018891
-0.011137
0.0019378
0.0054459
0.0060837
0.012781
0.031596
-0.0034836
-0.0041214
0.008635
-0.0063538
-0.0095429
-0.016559
-0.02198
-0.026126
-0.010181
0.0013
0.0016189
-0.00061343
0.012143
0.018521
0.01023
0.017883
0.034148
0.010867
0.0028946
0.01023
-0.0066727
-0.009224
-0.0076295
-0.020067
-0.033142
0.0019378
0.0070404
-0.0018891
0.00098112
0.0051269
0.015013
0.020435
0.028407
0.015013
0.0038513
0.0044891
-0.0012513
-0.0085862
-0.011137
-0.011456
-0.022937
-0.025488
-0.00029452
0.0054459
-0.0053971
0.0089539
0.012462
0.0079971
0.016289
0.031915
-0.0012513
-0.0047593
0.0070404
-0.0089051
-0.013689
-0.018791
-0.027721
-0.032186
-0.016878
-0.0069916
-0.0066727
-0.014008
-0.0015702
0.0079971
-0.00061343
0.0092728
0.019159
-0.0034836
-0.010819
-0.0044404
-0.022618
-0.022618
-0.024213
-0.031548
-0.043347
-0.0095429
-0.0082673
-0.018791
-0.011137
-0.0066727
0.0016189
0.0076782
0.015013
-0.00061343
-0.0105
-0.0063538
-0.012094
-0.023575
-0.027402
-0.027402
-0.03091
-0.036012
-0.014327
-0.0082673
-0.018472
-0.0012513
0.0025757
-0.0050782
0.008635
0.024899
-0.0089051
-0.011137
0.0022568
-0.015921
-0.019429
-0.027402
-0.031229
-0.034099
-0.017197
-0.0082673
-0.012094
-0.013689
-0.0060349
0.0032135
2.4388e-05
0.0079971
0.012781
-0.0063538
-0.012094
-0.0073105
-0.022618
-0.024532
-0.024532
-0.033142
-0.041434
-0.011456
-0.0105
-0.023575
-0.011775
-0.0079484
-0.0018891
0.0038513
0.013419
-0.011456
-0.017516
-0.012094
-0.023575
-0.029315
-0.032504
-0.035375
-0.043347
-0.04558
-0.025807
-0.018153
-0.027402
-0.014964
-0.0063538
-0.015602
-0.0050782
0.0131
-0.021024
-0.023894
-0.011456
-0.027083
-0.031867
-0.036331
-0.042072
-0.047174
-0.021343
-0.015921
-0.021024
-0.018791
-0.010181
0.0016189
-0.00093234
0.0073593
0.010867
-0.0050782
-0.011456
-0.0085862
-0.021661
-0.021343
-0.020386
-0.030591
-0.040477
-0.0041214
-0.002208
-0.014964
-0.0038025
2.4388e-05
0.004808
0.0099106
0.023305
-0.0038025
-0.0076295
-0.00029452
-0.010819
-0.020067
-0.022618
-0.027402
-0.031548
-0.03378
-0.013051
-0.0060349
-0.010819
-0.00061343
0.0028946
-0.0073105
0.0041702
0.022986
-0.005716
-0.011456
-0.0031647
-0.018791
-0.022937
-0.026445
-0.037288
-0.040158
-0.0098618
-0.0095429
-0.016878
-0.012413
-0.0047593
0.0044891
0.0028946
0.0092728
0.012143
-0.0034836
-0.0095429
-0.009224
-0.022937
-0.023256
-0.021343
-0.032504
-0.04271
-0.015283
-0.012094
-0.021343
-0.0079484
-0.0066727
-0.0050782
0.0019378
0.012781
-0.01624
-0.018153
-0.0105
-0.022618
-0.027402
-0.032823
-0.038564
-0.042391
-0.036012
-0.021024
-0.017835
-0.02198
-0.0098618
-0.002208
-0.010181
2.4388e-05
0.013738
-0.012732
-0.017516
-0.0079484
-0.023894
-0.02804
-0.031867
-0.039202
-0.043347
-0.014964
-0.012413
-0.022299
-0.017516
-0.0098618
-0.0018891
2.4388e-05
0.0079971
0.0028946
-0.012732
-0.012094
-0.015283
-0.028678
-0.029953
-0.027083
-0.035056
-0.042391
-0.016878
-0.0089051
-0.018791
-0.0069916
-0.00029452
-0.0015702
0.0054459
0.019478
-0.011775
-0.0089051
0.0019378
-0.012413
-0.023256
-0.028678
-0.032504
-0.03378
-0.024851
-0.013689
-0.011775
-0.018791
-0.0085862
0.0013
-0.0028458
0.0076782
0.01597
-0.014008
-0.015283
-0.0038025
-0.020386
-0.024532
-0.024213
-0.032504
-0.040477
-0.0095429
-0.0069916
-0.014645
-0.0069916
-0.0031647
0.0060837
0.012781
0.02171
0.010867
-0.0012513
0.0003433
-0.0069916
-0.017197
-0.017516
-0.015921
-0.022937
-0.031867
-0.0079484
-0.0018891
-0.014008
2.4388e-05
0.0025757
0.0003433
0.008316
0.024262
-0.010819
-0.012732
-0.0038025
-0.017197
-0.022299
-0.028996
-0.036969
-0.039839
-0.024532
-0.014964
-0.014964
-0.017197
-0.0063538
0.0019378
-0.0047593
0.0073593
0.017246
-0.0066727
-0.012094
-0.005716
-0.020705
-0.022299
-0.02198
-0.031867
-0.042391
-0.0066727
-0.0053971
-0.017197
-0.011137
-0.0047593
0.0032135
0.0092728
0.016289
2.4388e-05
-0.011137
-0.0066727
-0.010819
-0.022299
-0.02517
-0.023575
-0.030272
-0.037607
-0.013689
-0.0066727
-0.015921
-0.0031647
0.0044891
-0.00061343
0.008316
0.02458
-0.012094
-0.012413
0.0044891
-0.012413
-0.019429
-0.023575
-0.028996
-0.036331
-0.019748
-0.012094
-0.0098618
-0.0085862
-0.0018891
0.0054459
0.00098112
0.0057648
0.016289
-0.002208
-0.0105
-0.0053971
-0.021024
-0.022618
-0.02198
-0.030272
-0.040477
-0.0089051
-0.0089051
-0.019429
-0.0079484
-0.0053971
0.0019378
0.0070404
0.016927
-0.0038025
-0.011456
-0.0060349
-0.014964
-0.023256
-0.026445
-0.029315
-0.033142
-0.037607
-0.018472
-0.013689
-0.020067
-0.005716
0.00066221
-0.0063538
0.0016189
0.019478
-0.014964
-0.018472
-0.0050782
-0.02198
-0.027721
-0.028678
-0.036331
-0.043666
-0.020386
-0.016559
-0.021024
-0.01624
-0.0047593
2.4388e-05
-0.0031647
0.0044891
0.0092728
-0.0053971
-0.014008
-0.011775
-0.027402
-0.02804
-0.023575
-0.031548
-0.043985
-0.012094
-0.010819
-0.021024
-0.012094
-0.0053971
-0.0031647
0.0044891
0.017246
-0.010819
-0.015283
-0.0085862
-0.018153
-0.02804
-0.029315
-0.033142
-0.038883
-0.037288
-0.017516
-0.011137
-0.015283
-0.0053971
0.0035324
-0.0028458
0.0067215
0.017246
-0.0089051
-0.0082673
0.0016189
-0.015283
-0.01911
-0.024851
-0.035694
-0.042391
-0.011775
-0.0085862
-0.013689
-0.011456
-0.0063538
-0.0018891
0.0038513
0.008316
0.01023
-0.0076295
-0.011137
-0.012094
-0.023256
-0.02517
-0.024213
-0.032823
-0.042391
-0.012413
-0.009224
-0.019429
-0.009224
-0.0038025
-0.0015702
0.0025757
0.016289
-0.0105
-0.014964
-0.0066727
-0.017835
-0.026764
-0.032186
-0.036012
-0.043347
-0.037607
-0.022937
-0.01911
-0.021343
-0.0076295
-0.0031647
-0.0105
0.0003433
0.015332
-0.012413
-0.017835
-0.005716
-0.021024
-0.024213
-0.028678
-0.035694
-0.041115
-0.011456
-0.009224
-0.018472
-0.013689
-0.0066727
0.0016189
0.0038513
0.01023
0.0067215
-0.0076295
-0.012413
-0.014008
-0.027721
-0.029953
-0.026764
-0.035375
-0.045899
-0.019429
-0.014964
-0.026126
-0.014008
-0.0098618
-0.0089051
-0.0031647
0.010867
-0.022299
-0.023256
-0.011775
-0.02517
-0.032823
-0.037288
-0.044942
-0.048131
-0.03952
-0.025488
-0.023256
-0.026126
-0.01624
-0.0079484
-0.016878
-0.0060349
0.0073593
-0.017835
-0.023256
-0.014327
-0.03091
-0.034099
-0.03665
-0.044623
-0.051639
-0.019429
-0.018153
-0.026764
-0.022299
-0.017516
-0.0060349
-0.0018891
0.0054459
-0.0053971
-0.018153
-0.01911
-0.021343
-0.033461
-0.034737
-0.035375
-0.044942
-0.050363
-0.02804
-0.019748
-0.030591
-0.017835
-0.014008
-0.017516
-0.0066727
0.0076782
-0.02517
-0.024851
-0.01337
-0.027721
-0.031548
-0.039839
-0.043347
-0.055147
-0.04271
-0.030591
-0.023575
-0.026126
-0.019748
-0.014327
-0.020705
-0.012413
-0.0012513
-0.024532
-0.03378
-0.023894
-0.043028
-0.03952
-0.040477
-0.049407
-0.061844
-0.028996
-0.027083
-0.03378
-0.028678
-0.023256
-0.014327
-0.012094
-0.0012513
-0.017197
-0.024213
-0.02517
-0.031867
-0.041115
-0.044304
-0.044304
-0.05132
-0.055147
-0.033142
-0.024532
-0.03665
-0.022937
-0.018153
-0.022299
-0.013689
0.0038513
-0.029634
-0.031867
-0.020386
-0.035694
-0.039839
-0.04558
-0.053871
-0.057061
-0.037288
-0.031548
-0.031548
-0.032504
-0.022618
-0.014327
-0.021024
-0.010181
-0.002208
-0.02198
-0.030591
-0.02517
-0.040158
-0.041115
-0.04271
-0.050682
-0.058974
-0.027721
-0.027083
-0.036969
-0.028996
-0.025488
-0.017197
-0.011456
-0.0028458
-0.020705
-0.028996
-0.026126
-0.035375
-0.044942
-0.046855
-0.049088
-0.053552
-0.057698
-0.03665
-0.031867
-0.041115
-0.028678
-0.019748
-0.02517
-0.018153
-0.0028458
-0.033142
-0.03378
-0.023256
-0.039202
-0.045899
-0.047493
-0.056423
-0.058974
-0.037926
-0.029634
-0.033142
-0.033142
-0.02198
-0.015602
-0.020386
-0.011456
-0.00093234
-0.020386
-0.028678
-0.024213
-0.039839
-0.042391
-0.045899
-0.052277
-0.059931
-0.028996
-0.027721
-0.040796
-0.031548
-0.027721
-0.021024
-0.015283
-0.0018891
-0.027402
-0.032186
-0.025488
-0.035056
-0.047493
-0.04845
-0.049726
-0.05419
-0.052915
-0.037288
-0.031867
-0.039839
-0.025807
-0.020386
-0.028359
-0.014964
-0.00061343
-0.035056
-0.03665
-0.023575
-0.040477
-0.046536
-0.050363
-0.057698
-0.065033
-0.04271
-0.037607
-0.038245
-0.037926
-0.031229
-0.023894
-0.023575
-0.01624
-0.015283
-0.031867
-0.038883
-0.037607
-0.051639
-0.052596
-0.052277
-0.058974
-0.069179
-0.039202
-0.037288
-0.049407
-0.036012
-0.032186
-0.028678
-0.022937
-0.010181
-0.037607
-0.04271
-0.033461
-0.045261
-0.052277
-0.056104
-0.061206
-0.06599
-0.063758
-0.049088
-0.044304
-0.050682
-0.03665
-0.03091
-0.039839
-0.028996
-0.012732
-0.043347
-0.046218
-0.036331
-0.053871
-0.055466
-0.058974
-0.06599
-0.071411
-0.040158
-0.039202
-0.045261
-0.041753
-0.035694
-0.024851
-0.023256
-0.015283
-0.01624
-0.031548
-0.035694
-0.036969
-0.050682
-0.050363
-0.047812
-0.055785
-0.064395
-0.037926
-0.032186
-0.044304
-0.032823
-0.026764
-0.026445
-0.017835
-0.0012513
-0.032504
-0.035375
-0.02517
-0.035375
-0.03952
-0.046536
-0.054828
-0.061844
-0.05132
-0.032823
-0.032823
-0.035694
-0.025488
-0.017516
-0.026764
-0.018153
-0.0044404
-0.028996
-0.038245
-0.029953
-0.048769
-0.045899
-0.048769
-0.056104
-0.065033
-0.033461
-0.032823
-0.042391
-0.035375
-0.027721
-0.020067
-0.017516
-0.0085862
-0.014645
-0.027402
-0.028678
-0.034099
-0.046218
-0.044304
-0.043028
-0.053552
-0.059931
-0.032823
-0.02804
-0.039202
-0.025488
-0.019748
-0.021343
-0.014645
0.0022568
-0.029315
-0.03091
-0.016878
-0.032186
-0.037607
-0.043028
-0.049088
-0.050044
-0.038245
-0.027721
-0.025488
-0.027721
-0.017197
-0.0095429
-0.016559
-0.0063538
0.008316
-0.015283
-0.024851
-0.017516
-0.03378
-0.037607
-0.038245
-0.045261
-0.054509
-0.02198
-0.020705
-0.029634
-0.025807
-0.023894
-0.014327
-0.009224
-0.0018891
-0.014327
-0.026764
-0.022937
-0.033461
-0.04558
-0.04845
-0.047493
-0.055147
-0.064077
-0.041753
-0.037607
-0.048131
-0.036331
-0.032186
-0.036331
-0.028996
-0.010819
-0.046218
-0.050044
-0.038564
-0.054509
-0.06025
-0.068541
-0.071093
-0.080979
-0.063758
-0.053552
-0.056742
-0.054509
-0.048131
-0.041434
-0.048769
-0.040796
-0.034737
-0.053871
-0.064714
-0.058336
-0.071411
-0.073006
-0.072687
-0.080022
-0.088952
-0.055147
-0.053871
-0.057698
-0.048769
-0.03952
-0.027721
-0.019429
-0.0069916
-0.022937
-0.029953
-0.022299
-0.026764
-0.035375
-0.035375
-0.035375
-0.044623
-0.049407
-0.025807
-0.022618
-0.034099
-0.021024
-0.017835
-0.027402
-0.022937
-0.0069916
-0.041115
-0.048131
-0.038883
-0.052915
-0.059612
-0.063758
-0.072049
-0.075238
-0.052277
-0.043985
-0.044942
-0.046536
-0.037288
-0.026445
-0.024532
-0.014327
-0.0073105
-0.025488
-0.031867
-0.028359
-0.042072
-0.046536
-0.046218
-0.053234
-0.063758
-0.03378
-0.034737
-0.04558
-0.037288
-0.035056
-0.027721
-0.022299
-0.017197
-0.043347
-0.043666
-0.036012
-0.044304
-0.058017
-0.062801
-0.064077
-0.066947
-0.061525
-0.044623
-0.037288
-0.044942
-0.030272
-0.017835
-0.025807
-0.015921
0.0028946
-0.027721
-0.03378
-0.023256
-0.039839
-0.04271
-0.047174
-0.058336
-0.064077
-0.042072
-0.039202
-0.043347
-0.041115
-0.034737
-0.02517
-0.028996
-0.021024
-0.01624
-0.034737
-0.046536
-0.04271
-0.055466
-0.060569
-0.060569
-0.067266
-0.079065
-0.05132
-0.050363
-0.064077
-0.056742
-0.052915
-0.044623
-0.034737
-0.024213
-0.050363
-0.045261
-0.042072
-0.056423
-0.061525
-0.064395
-0.065033
-0.06599
-0.059293
-0.036969
-0.026126
-0.031548
-0.02804
-0.02804
-0.034099
-0.023256
-0.0012513
-0.035056
-0.044304
-0.037288
-0.053871
-0.059931
-0.061844
-0.066947
-0.067585
-0.040796
-0.040477
-0.050044
-0.041115
-0.02804
-0.016559
-0.014645
0.0038513
0.008316
-0.0076295
-0.013051
-0.009224
-0.020067
-0.026445
-0.02198
-0.028359
-0.03665
-0.010819
-0.0082673
-0.023575
-0.011137
-0.0069916
-0.0063538
-0.0028458
0.010867
-0.022937
-0.027721
-0.020386
-0.035694
-0.043347
-0.050682
-0.056742
-0.059931
-0.058017
-0.045261
-0.040477
-0.045899
-0.035694
-0.027721
-0.033461
-0.020705
-0.0063538
-0.039839
-0.057061
-0.05132
-0.064714
-0.070136
-0.0864
-0.087357
-0.098519
-0.079384
-0.088952
-0.10617
-0.10426
-0.095649
-0.087676
-0.084806
-0.076833
-0.078109
-0.0864
-0.078746
-0.074601
-0.093416
-0.086719
-0.067903
-0.076833
-0.075557
-0.054509
-0.044942
-0.053234
-0.032504
-0.018153
-0.013689
-0.011456
-0.0041214
-0.040477
-0.044304
-0.020386
-0.01624
-0.00093234
-0.013689
-0.032504
-0.028359
0.0019378
0.022986
0.034786
0.037656
0.043715
0.059979
0.062531
0.071141
0.075925
0.061893
0.054877
0.059979
0.046585
0.035104
0.025856
0.015013
0.0016189
0.032234
0.028088
0.010867
0.0131
0.019478
0.027132
0.026175
0.026175
0.0019378
-0.013689
-0.011775
-0.011775
-0.025488
-0.031229
-0.031867
-0.044942
-0.055466
-0.034737
-0.031548
-0.050363
-0.043985
-0.040477
-0.04558
-0.044623
-0.043666
-0.082573
-0.090865
-0.074919
-0.089908
-0.099157
-0.1218
-0.13487
-0.132
-0.099157
-0.089589
-0.096605
-0.095011
-0.077152
-0.053871
-0.049407
-0.042391
-0.03091
-0.053234
-0.04558
-0.041434
-0.043028
-0.035694
-0.042072
-0.051639
-0.061206
-0.02804
-0.022299
-0.020067
-0.02804
-0.015921
-0.0076295
-0.0073105
-0.00029452
-0.012413
-0.024532
-0.009224
-0.015602
-0.040158
-0.043028
-0.039839
-0.056104
-0.063758
-0.044942
-0.035056
-0.049088
-0.032823
-0.040477
-0.035694
-0.037607
-0.015283
-0.043028
-0.039202
-0.022618
-0.027083
-0.034418
-0.041115
-0.040796
-0.044304
0.0054459
0.025537
0.017564
0.025218
0.02777
0.045947
0.049137
0.056471
0.052963
0.028088
0.025856
0.022986
-0.011775
-0.022937
-0.020705
-0.039202
-0.05132
-0.031229
-0.036331
-0.041753
-0.033461
-0.032186
-0.019748
-0.0105
0.0028946
-0.0050782
0.0016189
0.0032135
-0.002208
-0.011456
-0.024851
-0.03378
-0.024532
-0.023894
-0.017835
-0.015921
-0.041753
-0.049407
-0.06312
-0.080979
-0.074282
-0.066628
-0.091822
-0.086719
-0.065352
-0.099476
-0.10585
-0.12084
-0.10649
-0.10394
-0.063439
-0.052915
-0.033461
-0.028996
-0.029315
-0.019429
-0.024851
-0.011456
2.4388e-05
-0.017197
-0.033461
-0.064395
-0.078109
-0.085125
-0.099476
-0.10043
-0.11574
-0.077152
-0.085762
-0.10426
-0.11446
-0.10745
-0.079065
-0.053871
-0.016878
-0.023894
-0.014008
-0.013689
-0.015283
-0.002208
-0.0038025
0.0070404
0.01023
0.025218
0.038294
0.048499
0.034467
0.03638
0.032553
-0.00029452
-0.0085862
-0.0105
-0.047812
-0.059931
-0.058336
-0.10107
-0.10075
-0.11925
-0.12786
-0.13551
-0.11415
-0.096605
-0.084487
-0.04558
-0.042391
-0.026126
-0.02517
-0.009224
-0.009224
-0.01337
-0.0098618
-0.0034836
-0.017197
-0.024532
-0.041753
-0.058017
-0.076195
-0.060887
-0.062163
-0.073963
-0.059931
-0.05419
-0.052915
-0.052915
-0.039839
-0.043028
-0.029953
-0.0012513
-0.012094
-0.0089051
0.0041702
-0.0038025
-0.005716
0.02777
0.043396
0.026175
0.023943
0.03351
0.034467
0.014375
0.012781
0.027132
-0.021343
-0.030272
-0.03665
-0.065033
-0.095968
-0.0982
-0.090865
-0.085762
-0.062163
-0.071411
-0.081935
-0.069498
-0.036331
-0.046855
-0.045261
-0.027083
-0.038883
-0.06312
-0.088952
-0.085762
-0.1202
-0.13551
-0.14699
-0.16995
-0.19324
-0.17506
-0.1792
-0.1926
-0.16549
-0.1556
-0.1454
-0.11829
-0.1049
-0.13296
-0.1049
-0.060569
-0.071411
-0.058017
-0.055147
-0.071093
-0.079065
-0.036331
-0.0095429
-0.022618
-0.055147
-0.035375
-0.032186
-0.055785
-0.060569
-0.052596
-0.10011
-0.10107
-0.1049
-0.10713
-0.10043
-0.10777
-0.10553
-0.11255
-0.094692
-0.061844
-0.038245
-0.016559
-0.02198
0.0057648
0.023624
0.043077
0.048499
0.050412
0.054877
0.039888
0.043715
0.047223
0.037018
0.027132
0.010548
0.021072
0.019797
0.017246
0.023624
0.0003433
-0.022299
-0.005716
0.021072
-0.031548
-0.063758
-0.022618
-0.055785
-0.088314
-0.085443
-0.10617
-0.1218
-0.12052
-0.10649
-0.10904
-0.13073
-0.13105
-0.13711
-0.17474
-0.1792
-0.17123
-0.17888
-0.18016
-0.19068
-0.22162
-0.22353
-0.2264
-0.21333
-0.21141
-0.15879
-0.14349
-0.13615
-0.1218
-0.11702
-0.091503
-0.068541
-0.036969
-0.04271
-0.044304
-0.04271
-0.034737
-0.054509
-0.047174
-0.047812
-0.059293
-0.067266
-0.049088
-0.049726
-0.060569
-0.049407
-0.041753
-0.05419
-0.041753
0.00066221
0.0038513
-0.035694
-0.051001
-0.053871
-0.029315
-0.031229
-0.02804
-0.01624
-0.0015702
-0.002208
-0.0050782
-0.0044404
0.013419
0.01023
-0.023256
-0.025807
-0.013689
-0.047493
-0.078109
-0.080022
-0.11415
-0.12403
-0.13583
-0.13392
-0.1454
-0.12913
-0.11606
-0.16007
-0.16294
-0.13296
-0.10458
-0.087357
-0.073963
-0.099157
-0.12658
-0.096605
-0.10362
-0.12403
-0.14891
-0.13519
-0.12052
-0.14891
-0.13679
-0.10968
-0.11191
-0.1218
-0.11925
-0.13073
-0.10075
-0.057061
-0.073325
-0.0982
-0.034418
-0.020386
-0.049726
-0.047174
-0.015602
0.0028946
0.019478
0.010867
0.010548
0.02777
0.046266
0.05105
0.035104
0.024899
0.017564
-0.018791
-0.04271
-0.049088
-0.065352
-0.079065
-0.095968
-0.11765
-0.12786
-0.10266
-0.096605
-0.10362
-0.08353
-0.069179
-0.064395
-0.067585
-0.049407
-0.049088
-0.047493
-0.037288
-0.047812
-0.052915
-0.062482
-0.066309
-0.066628
-0.0864
-0.08066
-0.10075
-0.11925
-0.10522
-0.10362
-0.11542
-0.1151
-0.10394
-0.13232
-0.1285
-0.1167
-0.13392
-0.13073
-0.10777
-0.11574
-0.12913
-0.081617
-0.073644
-0.063758
-0.046855
-0.037607
-0.02198
-0.035375
-0.04558
-0.038564
-0.046218
-0.057061
-0.058974
-0.065352
-0.083211
-0.10362
-0.132
-0.13519
-0.10617
-0.090227
-0.081298
-0.072687
-0.076195
-0.063439
-0.024851
-0.014645
-0.054509
-0.064077
-0.012413
0.0016189
-0.011775
-0.039839
-0.033461
-0.026445
-0.016559
-0.0069916
-0.0082673
-0.028359
-0.038245
-0.039839
-0.057698
-0.057061
-0.052277
-0.087676
-0.10266
-0.096286
-0.12595
-0.13137
-0.12626
-0.13424
-0.14125
-0.097562
-0.096605
-0.098838
-0.093097
-0.082892
-0.066947
-0.046536
-0.03378
-0.060569
-0.083211
-0.096286
-0.10649
-0.12435
-0.13041
-0.13456
-0.16358
-0.18207
-0.16836
-0.15465
-0.15592
-0.14604
-0.14221
-0.13264
-0.080022
-0.076195
-0.13105
-0.10968
-0.067266
-0.06025
-0.057698
-0.075876
-0.089589
-0.10904
-0.10235
-0.06599
-0.067585
-0.089908
-0.083211
-0.085443
-0.088952
-0.073325
-0.059293
-0.071093
-0.046218
-0.036331
-0.057698
-0.058974
-0.046218
-0.061844
-0.059612
-0.0028458
-0.0069916
-0.014008
-0.0050782
0.0013
0.014056
0.0076782
0.0070404
-0.0028458
-0.018472
-0.0034836
-0.015602
-0.034737
-0.034737
-0.04271
-0.043347
-0.039202
-0.022937
-0.024532
-0.047493
-0.030591
-0.025488
-0.027721
-0.0063538
-0.0050782
-0.052915
-0.05132
-0.055466
-0.043985
-0.049088
-0.08066
-0.085762
-0.084487
-0.085762
-0.080979
-0.088633
-0.095968
-0.093735
-0.098519
-0.11032
-0.12052
-0.10809
-0.13328
-0.15146
-0.14061
-0.1285
-0.13902
-0.17314
-0.15465
-0.16995
-0.13647
-0.12499
-0.12595
-0.091822
-0.083849
-0.076514
-0.074919
-0.02804
-0.021024
-0.009224
-0.029315
-0.05132
-0.056742
-0.051639
-0.028996
-0.033142
-0.051001
-0.020386
-0.021024
-0.02804
-0.010181
-0.01337
-0.034099
-0.038883
-0.018791
-0.051958
-0.062163
-0.058336
-0.094054
-0.094373
-0.065352
-0.06025
-0.080341
-0.079065
-0.079384
-0.072687
-0.080022
-0.057698
-0.041115
-0.050044
-0.039839
-0.016559
-0.052915
-0.085762
-0.082254
-0.072049
-0.063758
-0.075557
-0.069179
-0.094373
-0.064714
-0.062482
-0.073963
-0.043347
-0.040158
-0.052596
-0.043666
-0.038245
-0.059293
-0.072368
-0.069179
-0.089908
-0.10298
-0.10936
-0.11638
-0.11861
-0.12786
-0.10841
-0.081298
-0.08066
-0.070136
-0.066309
-0.068222
-0.048131
-0.016878
-0.02804
-0.029953
-0.026126
-0.04558
-0.044304
-0.05132
-0.060887
-0.072049
-0.056742
-0.069817
-0.075876
-0.083211
-0.066628
-0.062801
-0.077471
-0.053871
-0.044304
-0.044623
-0.049407
-0.043347
-0.048131
-0.059612
-0.046218
-0.028359
-0.028678
-0.0098618
-0.0053971
-0.018791
-0.011775
-0.0095429
-0.014645
-0.011137
0.0076782
-0.044623
-0.052277
-0.048131
-0.043985
-0.053552
-0.084168
-0.089589
-0.091184
-0.073644
-0.057698
-0.061525
-0.06599
-0.053871
-0.044942
-0.052915
-0.044304
-0.030272
-0.082573
-0.093735
-0.082254
-0.0864
-0.088314
-0.098838
-0.11191
-0.12977
-0.091503
-0.060887
-0.072687
-0.077471
-0.071093
-0.044623
-0.036012
-0.033142
-0.029315
-0.03665
-0.029315
-0.040158
-0.072687
-0.08066
-0.075876
-0.09246
-0.10553
-0.069498
-0.079065
-0.10809
-0.090546
-0.082573
-0.078427
-0.057698
-0.024213
-0.06025
-0.068222
-0.051958
-0.047493
-0.036012
-0.030272
-0.035375
-0.041753
-0.0082673
0.022029
0.014375
0.021391
0.020435
0.0073593
-0.027721
-0.024851
0.010548
-0.013689
-0.0047593
-0.0063538
-0.069179
-0.11255
-0.099157
-0.11574
-0.13998
-0.090227
-0.065671
-0.10362
-0.10809
-0.099476
-0.096605
-0.093735
-0.067266
-0.066309
-0.082254
-0.078109
-0.059931
-0.067266
-0.071411
-0.061525
-0.053552
-0.044942
-0.015283
-0.020067
-0.026445
-0.0034836
0.011505
0.011824
0.022029
0.038612
0.0003433
-0.0085862
0.0028946
-0.0095429
-0.02198
-0.02517
-0.038245
-0.049088
-0.04271
-0.028996
-0.027721
-0.026126
-0.010819
-0.0085862
-0.023575
-0.022937
-0.015283
-0.038564
-0.019748
-0.019429
-0.046855
-0.056104
-0.04845
-0.059293
-0.053234
-0.028359
-0.028996
-0.046855
-0.056423
-0.050363
-0.028359
-0.042391
-0.030272
-0.042391
-0.079065
-0.10522
-0.11096
-0.12531
-0.11351
-0.10841
-0.13296
-0.15273
-0.14253
-0.13424
-0.12595
-0.10904
-0.094692
-0.11191
-0.14476
-0.09246
-0.088633
-0.11574
-0.12467
-0.12499
-0.10968
-0.10553
-0.10394
-0.10681
-0.076195
-0.058336
-0.072049
-0.053871
-0.005716
0.019478
-0.0082673
-0.0012513
0.038612
0.020754
0.01597
0.029045
0.016289
0.022986
-0.00061343
-0.0050782
-0.0105
0.011505
0.026175
0.017564
0.021072
0.024899
0.029045
0.040845
0.054558
0.026175
0.0025757
0.021072
0.011824
-0.0079484
-0.01624
-0.025488
-0.031867
-0.028996
-0.011137
-0.021024
-0.036331
-0.019748
-0.017516
-0.021661
-0.024213
-0.01624
-0.058655
-0.059293
-0.058974
-0.092141
-0.095649
-0.11383
-0.14189
-0.1556
-0.12913
-0.12212
-0.13328
-0.14093
-0.12913
-0.132
-0.12563
-0.1202
-0.11415
-0.1151
-0.11797
-0.13328
-0.15369
-0.1285
-0.11606
-0.12084
-0.1403
-0.089589
-0.075238
-0.079703
-0.073963
-0.080341
-0.046218
-0.00093234
-0.002208
-0.029953
-0.03952
-0.018791
-0.012413
-0.022299
-0.019429
-0.038245
-0.047493
-0.034737
0.0073593
0.015651
-0.00029452
0.011505
0.010867
0.016608
0.023305
0.043077
0.012781
0.011505
0.023305
0.0089539
-0.0089051
-0.03665
-0.067585
-0.031229
-0.022618
-0.035056
-0.057379
-0.057379
-0.041434
-0.032186
-0.04845
-0.045261
-0.033142
-0.058336
-0.047174
-0.043666
-0.060887
-0.072687
-0.064077
-0.075557
-0.088633
-0.058655
-0.057061
-0.074919
-0.063439
-0.070774
-0.064395
-0.043347
-0.03952
-0.063439
-0.084806
-0.10585
-0.081298
-0.080979
-0.080979
-0.094054
-0.08927
-0.10235
-0.082573
-0.070455
-0.070455
-0.054828
-0.051639
-0.052277
-0.047174
-0.026764
-0.054509
-0.070774
-0.053552
-0.077152
-0.072368
-0.088314
-0.089908
-0.097562
-0.066309
-0.056104
-0.078109
-0.073963
-0.056742
-0.049726
-0.012094
-0.014008
0.023624
-0.013689
-0.024213
-0.0079484
-0.0053971
0.0003433
-0.0025269
-0.0031647
-0.0085862
0.030321
0.0054459
-0.024213
-0.011775
-0.024851
0.00066221
-0.0063538
-0.020386
-0.10553
-0.095649
-0.064395
-0.076195
-0.088314
-0.12563
-0.12531
-0.13838
-0.11893
-0.090227
-0.067585
-0.075238
-0.067585
-0.056742
-0.051001
-0.035694
-0.019429
-0.047812
-0.045899
-0.037926
-0.052915
-0.050363
-0.05132
-0.058017
-0.069498
-0.037926
-0.03378
-0.038883
-0.035056
-0.030272
-0.022618
-0.029634
-0.026445
-0.01624
-0.040158
-0.050363
-0.049726
-0.064395
-0.066947
-0.062163
-0.071411
-0.087676
-0.056104
-0.046855
-0.062801
-0.045899
-0.042072
-0.032823
-0.026764
-0.014645
-0.042391
-0.046855
-0.029315
-0.052915
-0.050363
-0.059293
-0.065033
-0.062482
-0.073006
-0.04271
-0.023894
-0.029634
-0.0015702
0.00098112
0.0067215
0.017564
0.023943
0.01884
-0.0044404
0.0003433
-0.0069916
0.0003433
0.011186
-0.0095429
-0.059293
-0.048131
-0.021661
-0.035375
-0.050682
-0.050044
-0.01911
-0.027083
-0.014008
-0.032504
-0.057061
-0.057698
-0.042391
-0.044623
-0.033142
-0.03378
-0.034099
-0.035694
-0.0034836
-0.0076295
-0.028359
-0.0063538
0.012143
0.0003433
-0.0105
-0.014645
-0.046536
-0.038564
-0.044304
-0.076195
-0.082573
-0.084168
-0.093735
-0.10841
-0.0982
-0.089908
-0.06312
-0.072049
-0.054509
-0.036012
-0.050682
-0.035375
-0.021024
-0.03952
-0.044623
-0.028359
-0.040796
-0.029315
-0.031867
-0.045261
-0.054828
-0.017197
-0.0089051
-0.040158
-0.031867
-0.02198
-0.014645
-0.0041214
-0.009224
-0.019429
-0.031867
-0.042072
-0.057379
-0.055466
-0.07779
-0.063758
-0.078109
-0.084168
-0.048131
-0.042072
-0.044304
-0.027721
-0.020067
-0.0031647
0.021391
0.021072
0.012143
0.021391
0.030959
0.0035324
0.0032135
-0.0085862
-0.021343
-0.024532
2.4388e-05
-0.0031647
-0.023575
-0.027083
0.015651
-0.0041214
-0.0082673
-0.0034836
-0.014964
-0.014645
-0.0095429
-0.018153
-0.03952
-0.042072
-0.044304
-0.03378
-0.019748
0.020435
0.030321
0.0089539
0.014375
0.013419
0.0028946
0.0064026
0.038294
0.041483
0.025218
0.010867
-0.0073105
-0.043985
-0.032186
-0.017835
-0.046855
-0.072368
-0.048769
-0.05132
-0.050682
-0.016878
-0.027402
-0.034099
-0.021343
2.4388e-05
-0.028678
-0.01624
2.4388e-05
-0.010181
-0.024213
-0.024851
-0.030272
-0.017197
-0.0038025
-0.01337
-0.0089051
-0.00029452
-0.0041214
0.00098112
-0.0098618
0.0032135
0.0041702
-0.029634
-0.062482
-0.055147
-0.046218
-0.058974
-0.052596
-0.067585
-0.09246
-0.039202
-0.033461
-0.046855
-0.045899
-0.050044
-0.03091
-0.0044404
0.0092728
-0.022299
-0.032504
-0.045261
-0.048131
-0.04845
-0.053871
-0.064077
-0.078746
-0.078746
-0.055785
-0.055147
-0.069817
-0.02198
-0.021343
-0.041434
-0.038564
-0.009224
-0.03091
-0.039202
-0.020386
-0.017197
-0.031867
-0.029315
-0.022937
-0.03378
-0.010181
-0.014964
-0.0050782
-0.0089051
0.016289
0.0035324
-0.0025269
0.025218
0.027132
-0.0041214
-0.024532
-0.046218
-0.011456
0.0013
-0.0015702
-0.01911
-0.022618
0.0032135
0.0051269
0.0076782
0.023305
0.028407
0.027451
0.037656
0.041164
0.010867
0.012143
0.01597
-0.014008
-0.033461
-0.055147
-0.039839
-0.05419
-0.065033
-0.04271
-0.037288
-0.039202
-0.021024
-0.016559
-0.027402
-0.021024
-0.012413
-0.0076295
-0.029953
-0.027721
-0.035694
-0.043666
-0.058655
-0.067585
-0.073644
-0.037926
-0.03091
-0.048769
-0.050044
-0.038245
-0.032504
-0.031229
-0.012732
-0.011137
-0.03952
-0.059293
-0.029953
-0.032186
-0.040796
-0.050363
-0.057698
-0.074919
-0.036331
-0.019429
-0.01624
-0.013051
-0.011456
0.008635
0.016608
0.036699
0.014694
0.019797
0.056153
0.032872
0.020116
0.024899
0.035104
0.055515
0.065401
0.063806
0.059023
0.081346
0.081346
0.060617
0.064125
0.066358
0.071779
0.031278
0.0022568
0.00066221
-0.031548
-0.036969
-0.028996
-0.034737
-0.053871
-0.058655
-0.065033
-0.063439
-0.051958
-0.052596
-0.029953
0.0016189
-0.0028458
-0.018153
-0.032504
-0.02198
-0.03378
-0.056742
-0.04845
-0.04845
-0.064714
-0.06312
-0.036012
-0.031867
-0.03665
-0.041753
-0.029953
-0.023256
-0.019429
0.0057648
-0.022618
-0.030591
0.004808
-0.0044404
-0.018153
-0.026126
-0.029634
-0.032186
-0.016878
-0.0018891
0.0032135
0.00066221
0.012781
0.022029
0.01023
0.014694
0.027451
-0.0069916
-0.010181
0.0051269
-0.00029452
-0.002208
-0.012413
-0.02804
-0.027402
-0.0069916
0.0070404
0.0003433
0.012143
0.02777
0.038294
0.037975
0.033829
0.022986
0.011824
0.027451
0.013419
0.0038513
0.0044891
0.020435
-0.0050782
-0.011775
0.020435
0.019797
0.0044891
0.025218
0.021391
0.017883
0.032872
0.054239
0.0076782
-0.0038025
0.008635
-0.019748
-0.034099
-0.039839
-0.050044
-0.045899
-0.046218
-0.034737
-0.032823
-0.043985
0.00066221
-0.005716
-0.026126
-0.030272
-0.0066727
-0.017197
-0.014327
-0.012094
-0.032504
-0.042072
-0.043666
-0.051001
-0.056423
-0.0041214
-0.020705
-0.039202
-0.021343
-0.0073105
-0.0012513
0.015013
0.019797
0.008635
0.0060837
0.0131
0.0054459
-0.0038025
-0.0038025
0.00098112
-0.00029452
-0.002208
0.024262
0.037337
0.032234
0.045947
0.049774
0.046266
0.051688
0.063806
0.0070404
0.023943
0.05392
0.01023
-0.017835
-0.017516
-0.026126
-0.022299
-0.013689
-0.026764
-0.047174
-0.039202
-0.025488
-0.028996
-0.040477
-0.029953
-0.015921
-0.042072
-0.054828
-0.034418
-0.044304
-0.041753
-0.056742
-0.07173
-0.061844
-0.023575
-0.011775
-0.010819
0.00098112
-0.005716
0.0089539
0.042121
0.075925
0.031596
0.008316
-0.0098618
-0.032186
-0.010819
0.021072
-0.010181
-0.026445
-0.036012
-0.014645
-0.017197
-0.028678
-0.01337
-0.009224
-0.0105
-0.0018891
0.016608
-0.016878
-0.013689
-0.0038025
-0.031229
-0.035694
-0.037607
-0.037607
-0.040477
-0.024213
-0.010819
-0.011137
-0.014008
-0.0031647
0.0067215
0.0019378
0.0131
0.02777
0.0060837
-0.0047593
0.0038513
-0.010181
-0.013051
-0.0069916
-0.021661
-0.029315
0.0070404
0.018521
0.0035324
0.023624
0.021391
0.026494
0.031278
0.031915
-0.002208
0.020754
0.033829
-0.005716
-0.031548
-0.03378
-0.0073105
-0.03378
-0.05132
-0.020386
-0.023256
-0.040796
-0.026126
-0.014964
-0.02198
0.0003433
0.0079971
-0.013051
-0.010819
0.0003433
-0.012094
0.0092728
0.0044891
-0.01337
-0.020705
0.019797
0.037337
0.019159
0.022986
0.047542
0.043715
0.0089539
0.036061
0.042758
0.0099106
0.014375
-0.0060349
-0.028359
-0.039202
-0.040477
-0.050363
-0.055466
-0.023256
-0.026126
-0.037607
-0.023894
-0.01624
-0.018791
-0.015921
0.00066221
-0.025488
-0.023575
-0.016559
-0.027083
-0.024851
-0.031867
-0.038564
-0.041434
-0.032504
-0.0082673
-0.0082673
-0.021343
0.00066221
0.020116
-0.00029452
0.0025757
0.015651
-0.015921
-0.02198
-0.017197
-0.03665
-0.049088
-0.064714
-0.081298
-0.094692
-0.043985
-0.033142
-0.044942
-0.06025
-0.050682
-0.039839
-0.022937
0.00066221
-0.005716
-0.015602
-0.01911
-0.01911
-0.026126
-0.0095429
-0.0073105
-0.01337
-0.025807
0.0079971
0.026494
0.018521
0.030959
0.035423
0.047542
0.057747
0.088362
0.052326
0.055196
0.072098
0.074012
0.060936
0.05392
0.050412
0.028407
0.054558
0.069228
0.065401
0.07752
0.069866
0.067952
0.023624
0.052326
0.078795
0.020435
0.0025757
0.0054459
-0.044304
-0.022299
-0.013051
-0.041434
-0.063439
-0.033461
-0.03378
-0.034099
-0.031867
-0.02517
-0.0053971
-0.0034836
0.0044891
0.0044891
-0.0018891
-0.0085862
-0.01337
-0.029315
-0.0085862
-0.0082673
-0.014964
-0.031548
-0.00029452
0.0038513
-0.0034836
0.01023
0.012143
0.010548
0.023943
0.032872
-0.0076295
-0.019429
0.0003433
-0.020705
-0.033461
-0.044942
-0.034737
-0.033142
-0.042391
-0.034418
-0.033142
-0.020386
0.0025757
0.011505
2.4388e-05
0.010548
0.026494
0.015332
0.013738
0.025856
0.0054459
0.013738
0.020435
0.0028946
-0.021343
0.038294
0.03638
0.025856
0.055196
0.032872
0.034467
0.050412
0.069547
0.058704
0.037975
0.030002
0.025218
0.015013
0.0054459
0.0070404
0.0025757
-0.019748
0.014375
0.027451
0.0070404
0.022029
0.023943
0.013419
0.03064
0.041164
0.01884
0.023943
0.02171
0.0025757
0.010867
0.0028946
0.0028946
-0.011456
0.0064026
0.025537
0.024262
0.018202
0.024262
0.032872
0.016608
0.033829
0.035742
0.013419
0.0051269
0.0054459
-0.017197
-0.041115
-0.051001
-0.045261
-0.062482
-0.030591
-0.034099
-0.044623
-0.020067
-0.035694
-0.028359
-0.0034836
0.0095917
0.0003433
-0.011456
0.011186
-0.00029452
0.012781
0.016927
0.0044891
-0.0041214
0.0003433
0.022667
0.038931
0.029364
0.037018
0.040526
0.044672
0.047861
0.070822
0.037656
0.035104
0.024262
0.016608
0.020754
0.019797
0.031596
0.0095917
0.040207
0.045629
0.035104
0.037018
0.053601
0.063169
0.052326
0.032872
0.029045
0.0016189
0.0073593
0.012143
-0.024851
-0.033142
-0.028678
-0.051001
-0.062163
-0.043347
-0.024851
-0.015921
-0.018791
-0.016878
-0.0041214
0.013419
0.02458
0.0076782
-0.0085862
0.017883
0.017246
0.0025757
0.0013
0.00098112
-0.0034836
-0.0066727
0.019159
0.014375
0.004808
0.03638
0.042439
0.026494
0.026175
0.035104
0.004808
0.011824
0.022986
-0.012413
-0.012732
-0.016878
-0.030591
-0.0076295
0.0070404
-0.0028458
-0.0034836
0.012462
0.024262
0.035104
0.02777
0.03351
0.038612
0.039888
0.03638
0.046266
0.038612
0.022348
0.024899
0.01884
-0.0025269
0.037975
0.035742
0.018521
0.032553
0.03638
0.055196
0.064125
0.081028
0.022986
-0.010819
0.023943
0.023624
-0.0047593
-0.015283
0.004808
-0.014008
-0.010819
0.0028946
0.0051269
0.0025757
0.016608
0.024262
0.017883
0.026175
0.055834
0.039569
0.032553
0.045629
0.029045
0.025856
0.02171
0.013738
0.013419
0.025537
0.041483
0.035742
0.03925
0.03925
0.039569
0.030959
0.033829
0.046266
0.0079971
-0.030272
-0.040796
-0.03665
-0.046536
-0.041115
-0.060569
-0.074919
-0.039202
-0.04845
-0.071411
-0.05419
-0.019748
-0.019748
-0.020705
-0.0041214
-0.032186
-0.017516
-0.0041214
-0.015921
-0.019748
-0.024213
-0.043028
-0.026445
-0.010181
0.014375
0.019159
0.0025757
0.022667
0.050412
0.042758
0.039888
0.055834
0.080071
0.083898
0.071141
0.072098
0.078157
0.063169
0.039888
0.039888
0.085811
0.061255
0.070503
0.079114
0.075606
0.057747
0.039569
0.051688
0.058066
0.03925
0.01597
0.038931
0.012781
-0.0063538
-0.0073105
-0.0098618
-0.010181
0.018521
0.031596
0.012781
0.022029
0.027451
0.022986
0.03925
0.065401
0.016927
0.011505
0.019159
0.014056
0.012462
0.015651
2.4388e-05
-0.0095429
-0.010819
0.0054459
0.032553
0.02171
0.008316
0.014694
-0.0085862
0.0131
0.023943
-0.022299
-0.035056
-0.035694
-0.055147
-0.048769
-0.051639
-0.089908
-0.0982
-0.051958
-0.035375
-0.035375
-0.024532
-0.028996
-0.016559
0.0019378
0.037975
0.038612
0.019478
0.01884
0.027132
0.024899
0.03925
0.046266
0.038612
0.040526
0.10431
0.09793
0.10399
0.10941
0.097611
0.10303
0.11228
0.13843
0.10558
0.085811
0.067633
0.015013
0.042758
0.026175
0.0073593
-0.013051
-0.021024
-0.021024
-0.018472
-0.026764
-0.0089051
-0.01337
-0.012094
0.0076782
0.023305
0.0070404
0.0079971
0.023624
0.010867
0.008635
0.012143
0.0057648
-0.0089051
0.034786
0.047223
0.031278
0.018202
0.029683
0.035423
0.036699
0.047542
0.030002
0.013419
0.018521
-0.002208
-0.022618
-0.019748
0.0038513
-0.0089051
-0.012413
0.014056
0.022348
-0.009224
0.0054459
0.02171
0.017564
0.02458
0.046266
0.014056
0.008316
0.017564
2.4388e-05
-0.01911
-0.03378
-0.048131
-0.044623
-0.021661
-0.016559
-0.03091
-0.009224
-0.0066727
-0.0044404
-0.0079484
0.022348
0.02171
-0.033461
-0.020067
-0.0031647
-0.014645
-0.014008
-0.024851
-0.03091
-0.034737
0.022029
0.014694
-0.019429
-0.0041214
0.017246
0.048818
0.049137
0.062212
0.037337
0.034148
0.038612
0.02458
0.012462
-0.0012513
0.024899
0.024899
0.0079971
0.030002
0.026813
0.013419
0.035742
0.037337
0.028407
0.047861
0.065401
0.032234
0.043715
0.054877
0.037656
0.032553
0.026494
0.018202
0.0079971
0.038294
0.049774
0.056471
0.056153
0.055515
0.059661
0.061255
0.053282
0.056153
0.048499
0.062531
0.056471
0.034467
0.07433
0.055834
0.036699
0.028088
0.059342
0.040845
0.039569
0.052645
0.047223
0.031278
0.0041702
-0.0073105
-0.0028458
-0.032186
-0.041115
-0.084487
-0.093097
-0.10107
-0.10841
-0.11797
-0.11351
-0.058017
-0.058974
-0.076833
-0.058974
-0.037288
-0.028996
0.0092728
0.038612
0.0044891
-0.002208
0.022986
0.004808
-0.0079484
0.0025757
0.0054459
0.016608
0.027132
0.02171
0.025856
0.046585
0.061574
0.050731
0.038612
0.050731
0.064125
0.052645
0.046585
0.042758
0.019159
0.017883
0.029045
0.01884
0.0003433
0.034786
0.046266
0.026813
0.034786
0.041802
0.047861
0.055515
0.075925
0.046266
0.047223
0.056471
0.043396
0.050731
0.037975
0.036699
0.027132
0.026175
0.047223
0.043715
0.039888
0.058704
0.064763
0.050093
0.04531
0.053282
0.029683
0.004808
0.00098112
0.0032135
-0.0015702
-0.028359
-0.024213
-0.049407
-0.034737
-0.011775
-0.010819
0.0028946
-0.0095429
-0.019748
-0.013051
0.008635
0.0003433
-0.022618
-0.0089051
-0.014008
-0.025488
-0.024532
-0.027402
-0.039202
-0.036969
0.0089539
0.013419
0.0079971
0.024262
0.03638
0.043396
0.056471
0.064125
0.027132
0.03351
0.062531
0.03925
0.027132
0.037337
0.043077
0.030002
0.017564
0.039569
0.037975
0.034467
0.055515
0.052963
0.045629
0.061574
0.070503
0.044672
0.029045
0.022029
0.008316
0.0067215
0.0032135
-0.012094
-0.020067
0.0092728
0.012781
0.0016189
0.017564
0.026813
0.034786
0.04531
0.050412
0.053601
0.037018
0.035742
0.033829
0.011186
0.008635
0.0016189
-0.0025269
-0.0038025
0.011505
0.012143
0.0003433
-0.014645
-0.017516
-0.022618
-0.017835
0.0044891
-0.036012
-0.052277
