0.0067215
0.01597
0.010548
0.020116
0.03064
0.0019378
-0.0069916
0.0067215
-0.0060349
-0.012094
-0.013051
-0.023575
-0.024532
0.010867
0.004808
-0.0034836
-0.0018891
0.0073593
0.019159
0.022986
0.023624
0.0131
0.004808
-0.0028458
0.0025757
-0.010819
-0.013689
-0.01337
-0.021024
-0.023894
0.00098112
0.0070404
-0.005716
0.0035324
0.010548
0.012143
0.023624
0.030002
-0.0060349
-0.0012513
0.0067215
-0.00061343
-0.010181
-0.014645
-0.021024
-0.021343
-0.0095429
-0.0015702
0.0067215
-0.0038025
0.0073593
0.01597
0.0099106
0.020754
0.031915
0.0003433
-0.005716
0.008635
-0.0050782
-0.010819
-0.013051
-0.023256
-0.022937
0.010867
0.004808
2.4388e-05
-0.00061343
0.01023
0.021391
0.023624
0.024262
0.022029
0.008316
-0.0015702
0.0060837
-0.0069916
-0.011775
-0.0095429
-0.017516
-0.021024
0.008635
0.010548
-0.0034836
0.0035324
0.01023
0.016289
0.025856
0.028088
-0.0012513
2.4388e-05
0.0038513
0.0003433
-0.011456
-0.014327
-0.021024
-0.020705
-0.016878
-0.0031647
0.0076782
-0.005716
0.0067215
0.013738
0.0095917
0.019478
0.032234
-0.0012513
-0.0053971
0.0092728
-0.0041214
-0.0105
-0.013689
-0.025488
-0.021343
0.0064026
0.0044891
0.0028946
-0.002208
0.0089539
0.02171
0.020116
0.023624
0.028407
0.008316
-0.0028458
0.0064026
-0.005716
-0.0105
-0.0069916
-0.018791
-0.022299
0.010867
0.01023
-0.002208
0.0035324
0.010548
0.018202
0.026494
0.028088
0.0028946
0.0022568
0.0025757
0.0016189
-0.0095429
-0.013689
-0.017516
-0.019429
-0.01911
-0.00029452
0.0092728
-0.0047593
0.0079971
0.015332
0.010867
0.022348
0.033191
-0.0018891
-0.0041214
0.010867
-0.00093234
-0.0095429
-0.012413
-0.022618
-0.021343
0.0054459
0.0028946
0.0057648
-0.0025269
0.010548
0.020435
0.017564
0.023943
0.030959
0.0064026
-0.0028458
0.0079971
-0.0063538
-0.011456
-0.0098618
-0.019748
-0.021343
0.012143
0.010548
-0.0025269
-0.00029452
0.01023
0.020116
0.027451
0.027451
0.0073593
0.0044891
0.00098112
0.0028946
-0.0079484
-0.012413
-0.014008
-0.018791
-0.021343
0.0016189
0.0092728
-0.0050782
0.0064026
0.012143
0.0095917
0.023624
0.032553
-0.0041214
-0.0038025
0.0076782
-0.0015702
-0.010181
-0.015283
-0.023894
-0.02198
-0.0015702
2.4388e-05
0.0057648
-0.0031647
0.0099106
0.01884
0.013738
0.023305
0.031915
0.0057648
-0.0047593
0.008316
-0.0038025
-0.0095429
-0.0105
-0.021024
-0.02198
0.0131
0.0070404
-0.0015702
0.0013
0.010548
0.020435
0.025537
0.025218
0.014694
0.0076782
0.00066221
0.0035324
-0.0079484
-0.012732
-0.012094
-0.018472
-0.021024
0.0054459
0.011505
-0.0034836
0.0079971
0.013738
0.015332
0.025537
0.032234
-0.0028458
-0.00093234
0.008635
0.00066221
-0.0082673
-0.013051
-0.020067
-0.019748
-0.0060349
2.4388e-05
0.0092728
-0.0012513
0.011505
0.020435
0.013738
0.026175
0.035104
0.0060837
-0.0012513
0.0131
-0.00061343
-0.0082673
-0.0079484
-0.018791
-0.019748
0.014694
0.0095917
0.0016189
0.00098112
0.011824
0.023624
0.025218
0.026813
0.019478
0.008635
-0.00061343
0.0060837
-0.0060349
-0.010819
-0.0095429
-0.018791
-0.022618
0.0057648
0.0099106
-0.0047593
0.0025757
0.0095917
0.013419
0.02458
0.028726
-0.0038025
-0.00061343
0.0051269
-0.00061343
-0.010819
-0.013689
-0.021024
-0.020386
-0.012094
-0.00093234
0.008316
-0.0044404
0.0092728
0.017246
0.01023
0.021391
0.03351
0.0016189
-0.0047593
0.010867
-0.005716
-0.011775
-0.013051
-0.024851
-0.023894
0.0089539
0.0038513
-0.00061343
-0.0038025
0.0070404
0.01884
0.019159
0.021391
0.021072
0.0064026
-0.0053971
0.0038513
-0.0089051
-0.01337
-0.011775
-0.021024
-0.02517
0.0070404
0.0076782
-0.0041214
0.00066221
0.0092728
0.015651
0.023943
0.025856
-0.00029452
0.00098112
0.0028946
-0.00061343
-0.010819
-0.015602
-0.019429
-0.021343
-0.019429
-0.0041214
0.0060837
-0.0073105
0.0064026
0.013419
0.0073593
0.020435
0.030002
-0.0041214
-0.0047593
0.0070404
-0.0047593
-0.011456
-0.015283
-0.026445
-0.024213
0.0038513
0.0019378
0.0025757
-0.0028458
0.008635
0.01884
0.018202
0.022348
0.028088
0.0076782
-0.0038025
0.0067215
-0.0053971
-0.0098618
-0.009224
-0.019748
-0.022937
0.011505
0.0089539
-0.0031647
0.0019378
0.0089539
0.017883
0.027132
0.028407
0.0054459
0.0028946
0.0016189
0.0032135
-0.009224
-0.012413
-0.014008
-0.018791
-0.019429
0.0013
0.010548
-0.0044404
0.0076782
0.015013
0.011505
0.024262
0.033829
-0.00093234
-0.0038025
0.0099106
-0.00061343
-0.0076295
-0.011775
-0.023256
-0.019748
0.0028946
0.0025757
0.0073593
-0.0028458
0.0089539
0.019478
0.016289
0.021391
0.031596
0.0067215
-0.0050782
0.0073593
-0.0053971
-0.012413
-0.012094
-0.022937
-0.024532
0.010548
0.0060837
-0.0050782
-0.0012513
0.0079971
0.01884
0.023305
0.024899
0.008635
0.0044891
-0.00061343
0.0019378
-0.0095429
-0.013051
-0.013051
-0.018472
-0.023575
0.0019378
0.011186
-0.0044404
0.0054459
0.011824
0.012462
0.025537
0.032234
-0.0079484
-0.0038025
0.008635
-0.00061343
-0.0098618
-0.013051
-0.02517
-0.023256
-0.0053971
-0.0012513
0.0057648
-0.0034836
0.0089539
0.018202
0.012143
0.022667
0.03351
0.0038513
-0.0044404
0.0095917
-0.0031647
-0.010181
-0.0105
-0.021343
-0.020705
0.013738
0.01023
0.0022568
0.0019378
0.014694
0.023305
0.024899
0.028088
0.019478
0.012143
0.0028946
0.0073593
-0.0053971
-0.0098618
-0.0085862
-0.017835
-0.020705
0.0067215
0.012781
-0.002208
0.0060837
0.0131
0.015332
0.02777
0.03064
-0.002208
0.00066221
0.0095917
0.0019378
-0.0069916
-0.012413
-0.021024
-0.018791
-0.0089051
2.4388e-05
0.0095917
-0.0028458
0.008635
0.016608
0.01023
0.019478
0.030959
-0.0028458
-0.0076295
0.0079971
-0.0053971
-0.012413
-0.01624
-0.026445
-0.026126
0.008316
0.0032135
-0.002208
-0.0044404
0.0060837
0.017564
0.018202
0.021391
0.019797
0.0060837
-0.005716
0.0025757
-0.0105
-0.014645
-0.012094
-0.023256
-0.025488
0.0044891
0.0044891
-0.0050782
0.0013
0.0092728
0.015332
0.022348
0.026175
-0.0031647
-0.0015702
0.0025757
-0.00029452
-0.012413
-0.014964
-0.021343
-0.02198
-0.017835
-0.0034836
0.0064026
-0.005716
0.0038513
0.012781
0.0079971
0.019159
0.03064
-0.0044404
-0.0076295
0.008635
-0.0047593
-0.013051
-0.015283
-0.027721
-0.025488
0.0054459
2.4388e-05
-0.00061343
-0.0063538
0.0060837
0.017246
0.016289
0.022348
0.02458
0.0044891
-0.0063538
0.0044891
-0.009224
-0.01337
-0.012413
-0.022618
-0.02517
0.0099106
0.0092728
-0.0063538
-0.0012513
0.0099106
0.016608
0.025537
0.027132
0.0038513
0.0041702
0.00098112
-0.0012513
-0.012094
-0.016878
-0.015283
-0.018472
-0.021024
-0.0041214
0.0044891
-0.0085862
0.0038513
0.010867
0.0067215
0.016608
0.028407
-0.0063538
-0.0105
0.004808
-0.0066727
-0.014964
-0.018791
-0.029953
-0.02804
-0.0025269
-0.002208
-0.00029452
-0.009224
0.0038513
0.013738
0.011824
0.017246
0.026494
0.0016189
-0.0085862
0.00066221
-0.012413
-0.018153
-0.016878
-0.024851
-0.026126
0.0089539
0.0076782
-0.0031647
0.0003433
0.0054459
0.016927
0.024899
0.028407
0.0092728
0.0073593
0.0003433
0.0019378
-0.0063538
-0.0098618
-0.012732
-0.020067
-0.022299
-0.0025269
0.0028946
-0.012732
-0.0038025
0.0044891
0.0032135
0.013419
0.020754
-0.014964
-0.014645
-0.0018891
-0.0105
-0.021024
-0.022299
-0.031229
-0.028996
-0.0076295
-0.0028458
0.0064026
-0.0038025
0.012143
0.022348
0.017246
0.026175
0.040207
0.012781
0.00066221
0.01597
0.0019378
-0.0041214
-0.0066727
-0.020386
-0.023256
0.014694
0.011186
0.0025757
0.0013
0.0095917
0.017246
0.022029
0.020435
0.012462
0.0051269
-0.0038025
-0.0015702
-0.01337
-0.014645
-0.014327
-0.021343
-0.024851
0.0022568
0.0079971
-0.0069916
0.0025757
0.0070404
0.01023
0.022029
0.026813
-0.0044404
-0.0034836
0.004808
-0.0034836
-0.013051
-0.016878
-0.023894
-0.02517
-0.01337
-0.002208
0.0019378
-0.015921
-0.0034836
0.0070404
-0.0044404
0.0022568
0.010867
-0.027083
-0.043985
-0.035694
-0.051001
-0.063758
-0.07779
-0.085762
-0.082573
-0.058336
-0.056104
-0.051639
-0.059293
-0.03952
-0.027402
-0.013689
-0.0063538
-0.0053971
-0.017197
-0.027083
-0.0105
-0.022937
-0.028678
-0.022299
-0.040158
-0.057061
-0.034737
-0.031548
-0.056742
-0.062163
-0.059612
-0.046218
-0.029634
-0.0041214
-0.041115
-0.04271
-0.011137
-0.011775
-0.024532
-0.013051
0.0067215
0.023305
0.037975
0.060298
0.07752
0.070503
0.091233
0.10399
0.095378
0.10686
0.11993
0.087087
0.081028
0.096654
0.08039
0.072736
0.067633
0.054877
0.053601
0.081346
0.075287
0.071779
0.061893
0.066995
0.075606
0.07752
0.077838
0.078157
0.056153
0.041802
0.04818
0.035742
0.030959
0.031278
0.016927
0.012143
0.042758
0.045947
0.030321
0.037018
0.044034
0.052007
0.045947
0.046585
0.019159
0.017564
0.011186
0.0022568
-0.0034836
-0.024851
-0.035694
-0.037288
-0.038245
-0.026764
-0.032504
-0.042391
-0.040477
-0.04558
-0.069179
-0.069817
-0.065671
-0.10139
-0.12116
-0.11957
-0.14795
-0.15082
-0.16517
-0.19132
-0.19547
-0.15752
-0.14285
-0.13424
-0.12754
-0.095011
-0.084487
-0.069498
-0.047493
-0.032504
-0.029634
-0.018791
0.020754
0.03064
0.015651
0.017883
0.031278
0.047542
0.094422
0.081028
0.067952
0.087406
0.10112
0.1126
0.12823
0.12663
0.10016
0.10239
0.10463
0.11292
0.097292
0.094741
0.086768
0.078157
0.074968
0.093146
0.10048
0.089319
0.097611
0.10048
0.096654
0.10463
0.11611
0.073374
0.069228
0.080709
0.072098
0.06285
0.05392
0.039888
0.039888
0.049455
0.050093
0.052326
0.043715
0.050093
0.058066
0.044034
0.047542
0.053282
0.025537
0.01884
0.028088
0.0041702
-0.026126
-0.043985
-0.076195
-0.09533
-0.069498
-0.078427
-0.10203
-0.12658
-0.14253
-0.12212
-0.11957
-0.13424
-0.13519
-0.15624
-0.18367
-0.18558
-0.15656
-0.1285
-0.1167
-0.13487
-0.12626
-0.10617
-0.095968
-0.10266
-0.076195
-0.038564
-0.0095429
-0.023256
-0.050363
-0.088633
-0.063758
-0.055147
-0.041115
-0.053552
-0.049407
-0.055466
-0.052277
-0.043985
-0.03378
-0.0105
0.0016189
0.030959
0.047542
0.048499
0.069228
0.10303
0.077838
0.08613
0.11579
0.10845
0.12057
0.13588
0.12312
0.12791
0.17351
0.16841
0.15374
0.15214
0.16139
0.17861
0.1783
0.17542
0.16107
0.14927
0.1244
0.12376
0.10686
0.1059
0.10048
0.082303
0.07433
0.089957
0.075606
0.060936
0.063806
0.064763
0.041483
0.032553
0.029364
-0.024213
-0.048769
-0.060887
-0.095649
-0.12722
-0.11542
-0.17601
-0.18335
-0.22513
-0.24458
-0.22449
-0.23023
-0.20185
-0.18973
-0.18526
-0.16453
-0.18207
-0.20982
-0.17857
-0.14253
-0.13583
-0.11765
-0.10298
-0.084487
-0.097562
-0.070455
-0.06025
-0.073006
-0.06312
-0.051001
-0.01337
0.0019378
-0.046536
-0.021343
-0.044942
-0.0066727
0.014694
0.0054459
0.034467
0.031596
0.034148
0.060298
0.090276
0.12823
0.14226
0.14927
0.16171
0.17798
0.19711
0.19839
0.15501
0.17224
0.17447
0.1665
0.15565
0.13971
0.11834
0.10208
0.10048
0.11451
0.11069
0.084536
0.090914
0.085492
0.078476
0.081984
0.084536
0.037018
0.035104
0.048818
0.027132
0.013419
0.0003433
-0.028996
-0.038883
-0.027083
-0.046218
-0.052915
-0.07779
-0.092778
-0.096605
-0.12913
-0.1285
-0.12212
-0.1521
-0.18367
-0.1556
-0.14476
-0.14731
-0.16421
-0.13264
-0.12276
-0.098838
-0.067266
-0.048131
-0.04558
-0.040158
-0.037926
-0.029315
-0.0085862
-0.076833
-0.092778
-0.078746
-0.063439
-0.11191
-0.11159
-0.1167
-0.11032
-0.11128
-0.081935
-0.026764
-0.028996
-0.0047593
2.4388e-05
0.0054459
0.040526
0.081984
0.060936
0.060298
0.096335
0.090595
0.071779
0.064125
0.05105
0.042439
0.071779
0.055196
0.065082
0.049137
0.054239
0.090595
0.078157
0.060617
0.061574
0.054558
0.075287
0.05679
0.017883
0.03925
0.023624
-0.022299
-0.055147
0.0035324
0.01597
-0.014645
-0.039202
-0.056104
-0.052915
-0.062482
-0.069179
-0.086081
-0.073963
-0.10362
-0.11415
-0.12722
-0.095011
-0.069817
-0.10011
-0.091503
-0.046218
-0.028678
-0.03665
-0.012094
0.039569
0.12823
0.032872
0.037337
0.0041702
-0.017197
0.034148
0.035742
0.028726
-0.037288
-0.022937
-0.0085862
0.011824
0.0051269
-0.011775
-0.010819
-0.024213
-0.023256
-0.0044404
0.042758
0.063806
0.017564
0.042758
0.062212
0.050093
0.059661
0.067952
0.047223
0.022029
0.057428
0.048499
0.039569
0.03351
0.044991
0.055515
0.029364
0.013419
-0.011456
-0.05419
-0.045261
-0.059293
-0.085443
-0.10011
-0.10745
-0.10553
-0.12499
-0.080341
-0.078427
-0.094692
-0.10936
-0.12754
-0.13296
-0.11319
-0.091822
-0.11733
-0.14476
-0.1438
-0.16358
-0.21652
-0.21141
-0.2162
-0.21046
-0.18686
-0.14412
-0.12499
-0.1556
-0.13137
-0.13583
-0.093416
-0.057698
-0.054828
-0.032186
-0.019429
0.03351
0.031915
0.051369
0.090914
0.066995
0.096016
0.14896
0.18914
0.19807
0.16968
0.1783
0.21178
0.18659
0.17574
0.20572
0.19615
0.16841
0.13811
0.081665
0.069547
0.067633
0.051369
-0.015921
0.0016189
0.025537
0.089
0.072098
0.063487
0.046585
0.0054459
0.0035324
0.008316
0.0099106
-0.042072
-0.041115
-0.014645
-0.036969
-0.078109
-0.088314
-0.089908
-0.088633
-0.10617
-0.13838
-0.091184
-0.061206
-0.056104
-0.048131
-0.089589
-0.09246
-0.086081
-0.07173
-0.082254
-0.097881
-0.09246
-0.067266
-0.096286
-0.073963
-0.087676
-0.080341
-0.080979
-0.068222
-0.081935
-0.086081
-0.066947
-0.058017
-0.11351
-0.12754
-0.08927
-0.072687
-0.10458
-0.11128
-0.11861
-0.11829
-0.068541
-0.069498
-0.067266
-0.026445
-0.032186
0.0079971
0.038931
0.01597
0.0041702
0.0070404
0.012143
0.031596
0.017883
-0.038564
-0.031867
-0.049407
-0.06599
-0.050363
-0.02517
-0.077471
-0.081617
-0.10266
-0.082892
-0.043985
-0.03378
-0.082573
-0.059293
-0.053871
-0.069817
-0.042391
-0.023894
-0.009224
0.0038513
0.052326
0.014375
0.0016189
0.0044891
0.0041702
0.026813
-0.0063538
-0.0028458
0.0054459
-0.040158
-0.047493
-0.02198
-0.040796
-0.056423
-0.089908
-0.081935
-0.053234
-0.0012513
0.02777
0.028088
0.027132
0.028407
0.06572
0.11675
0.15151
0.11292
0.12536
0.11802
0.10303
0.072098
0.064763
0.075287
0.047223
0.018202
0.053282
0.026813
-0.01337
-0.0095429
-0.0047593
-0.034737
-0.058336
-0.057061
-0.10107
-0.10649
-0.11096
-0.12339
-0.14125
-0.11159
-0.091503
-0.10553
-0.10713
-0.10872
-0.083211
-0.055147
-0.04845
-0.012413
-0.046855
0.0003433
0.035742
0.015013
-0.033461
-0.053871
-0.066947
-0.022937
-0.0095429
-0.029634
-0.087357
-0.037607
-0.054828
-0.091184
-0.060569
-0.023256
0.013738
-0.0015702
0.0016189
-0.043985
-0.043985
-0.038564
-0.031229
-0.02517
-0.0069916
-0.0041214
-0.03091
-0.058974
-0.043666
-0.047174
-0.02198
-0.019748
-0.020386
-0.023575
-0.043666
-0.022299
-0.011456
-0.026126
-0.040477
-0.002208
-0.00093234
-0.050044
-0.051958
-0.023256
-0.00061343
-0.012732
0.014694
0.0051269
0.032872
0.028088
0.01884
0.035742
0.049455
0.011186
0.0038513
0.010548
-0.024851
-0.037926
-0.041115
-0.03665
-0.0105
0.025218
-0.015283
-0.026126
-0.026126
-0.020067
0.023624
0.086768
0.097292
0.089319
0.058385
0.054558
0.059661
0.066677
0.071141
0.059023
0.032553
0.027132
0.039888
0.047542
0.03064
0.014694
0.0070404
-0.022299
-0.084806
-0.084806
-0.10171
-0.091184
-0.19898
-0.19419
-0.21301
-0.19419
-0.23342
-0.26595
-0.23724
-0.16836
-0.19324
-0.19993
-0.13743
-0.10617
-0.096286
-0.06599
-0.035694
-0.025807
0.041164
0.08039
0.10335
0.10845
0.058385
0.068909
0.096016
0.11738
0.12536
0.11675
0.084854
0.1228
0.10303
0.08326
0.081665
0.075606
0.020435
0.027451
0.037656
0.021391
-0.005716
-0.019429
-0.028359
-0.031229
-0.0034836
-0.017516
-0.042072
-0.047174
-0.042072
-0.02517
-0.030591
-0.042391
-0.055147
-0.038883
-0.051639
-0.065033
-0.084806
-0.091822
-0.092778
-0.075876
-0.067903
-0.057061
-0.04845
-0.065671
-0.061206
-0.074601
-0.079065
-0.068541
-0.044304
-0.085125
-0.094373
-0.10075
-0.091503
-0.11829
-0.10043
-0.082892
-0.080022
-0.061844
-0.048769
-0.082573
-0.11861
-0.056104
-0.00061343
-0.0076295
-0.044304
-0.027721
-0.05132
-0.080979
-0.063439
-0.035694
-0.06599
-0.049726
-0.06599
-0.026445
-0.051001
-0.013689
0.032872
0.044034
0.020754
0.05392
0.094422
0.12536
0.11005
0.099524
0.089
0.094422
0.073693
0.065401
0.066677
0.034786
0.055834
0.079752
0.020116
0.017564
0.017564
0.0060837
-0.016559
-0.012413
-0.020705
-0.05132
-0.04271
-0.049088
-0.057379
-0.058974
-0.058655
-0.069179
-0.04845
-0.029953
-0.036331
-0.031548
-0.034099
-0.0073105
0.0060837
-0.020386
-0.022618
-0.026445
-0.061844
-0.067266
-0.036012
-0.057061
-0.10075
-0.11542
-0.11223
-0.1151
-0.079065
-0.075238
-0.051001
-0.058017
-0.061206
-0.056423
-0.054828
-0.0095429
-0.024213
-0.050682
-0.027083
-0.031867
-0.088314
-0.094692
-0.10904
-0.10298
-0.1151
-0.10649
-0.10075
-0.084168
-0.014964
-0.034099
-0.011456
-0.012413
0.030002
-0.014964
0.015651
0.059023
0.080071
0.061255
0.082303
0.10909
0.066995
0.081028
0.10367
0.079114
0.07433
0.072736
0.061255
0.019478
0.01597
0.014694
0.011186
-0.026764
-0.025488
-0.062163
-0.06312
-0.076195
-0.093735
-0.094054
-0.062482
-0.073006
-0.060569
-0.06025
-0.064077
-0.054828
-0.029953
-0.022299
-0.026445
-0.040477
-0.044304
-0.024851
-0.01624
-0.030591
-0.031548
-0.02804
-0.031548
0.0092728
0.013738
-0.029315
-0.014008
0.015013
0.0025757
-0.0085862
0.0032135
-0.05132
-0.061844
-0.075876
-0.072368
-0.079065
-0.085762
-0.12371
-0.12212
-0.12084
-0.10809
-0.11319
-0.13487
-0.09246
-0.051639
-0.058017
-0.062801
-0.030591
-0.064077
-0.061206
-0.057379
-0.0038025
-0.0063538
-0.016559
-0.011137
-0.02804
-0.032823
0.0089539
0.035742
0.012462
0.056471
0.053282
0.011505
0.023943
0.032872
0.022986
0.01023
0.032234
-0.012413
-0.041434
-0.036012
-0.035694
-0.04271
0.015013
0.017246
-0.012094
-0.036969
-0.025488
0.0044891
-0.014645
-0.032186
-0.036012
-0.035375
-0.050044
-0.057698
-0.060887
-0.064395
-0.079065
-0.072368
-0.069817
-0.060569
-0.056423
-0.077471
-0.041753
-0.027721
-0.050363
-0.022618
-0.0038025
-0.038564
-0.037288
-0.026445
-0.03378
-0.0079484
0.0028946
-0.00061343
0.0016189
0.03638
0.039569
0.059342
0.057109
0.079752
0.079752
0.070822
0.07146
0.070822
0.01597
-0.0095429
-0.0069916
-0.013689
-0.038883
-0.058974
-0.091503
-0.10075
-0.064714
-0.096286
-0.11128
-0.10235
-0.07779
-0.080022
-0.034737
-0.03665
-0.03378
-0.023894
-0.031867
-0.035056
-0.04271
-0.024213
0.0070404
-0.020705
-0.039839
0.035423
0.056471
0.004808
0.026813
0.032553
-0.020386
-0.0085862
0.023624
-0.033142
-0.062163
-0.05419
-0.06312
-0.069498
-0.085762
-0.10458
-0.11478
-0.099157
-0.088633
-0.071093
-0.099794
-0.085762
-0.078746
-0.050044
-0.013051
-0.015921
-0.058017
-0.056104
-0.042391
-0.046218
-0.038883
-0.042391
-0.058017
-0.061206
-0.020386
-0.016559
-0.036969
-0.020067
-0.0041214
0.0022568
0.01884
0.020754
0.0131
-0.0031647
-0.0031647
0.0016189
-0.009224
-0.014008
0.010867
-0.012413
-0.0060349
0.013738
0.0022568
-0.017835
-0.00061343
0.011505
0.019159
0.028088
0.02458
-0.016878
-0.043985
-0.020067
-0.005716
-0.024213
-0.029953
-0.070136
-0.063758
-0.043028
-0.073006
-0.028678
-0.043985
0.019478
-0.021024
-0.051958
0.014694
0.022986
-0.02198
-0.026126
0.0035324
-0.034737
-0.029315
-0.026764
-0.017197
-0.022299
0.0073593
0.010548
0.011186
-0.0085862
-0.04845
-0.034737
-0.0085862
-0.028678
-0.044304
-0.077152
-0.10649
-0.081617
-0.084806
-0.12563
-0.12722
-0.1167
-0.11064
-0.10872
-0.077152
-0.095649
-0.069817
-0.052596
-0.031229
-0.0085862
-0.0041214
-0.012413
0.0028946
0.0070404
-0.0012513
-0.0079484
0.015013
0.0003433
-0.0050782
-0.0015702
0.03925
0.042758
0.020435
0.02458
0.034467
0.030002
0.034786
0.041483
0.012781
0.0073593
0.017564
-0.00061343
-0.030591
-0.030591
-0.045899
-0.03091
-0.015921
-0.029315
-0.031229
-0.036331
-0.021343
0.0028946
0.0022568
0.012462
0.019159
0.029364
0.036061
0.012143
0.0013
0.034148
0.037975
0.028407
0.014694
0.043396
0.0079971
0.022986
0.036699
0.10271
0.08039
-0.0060349
0.012462
0.0025757
-0.025488
-0.019748
-0.03091
-0.053234
-0.069817
-0.059293
-0.056104
-0.064714
-0.091184
-0.039202
-0.061206
-0.075557
-0.067266
-0.035056
-0.013051
-0.027083
-0.088633
-0.0982
-0.092141
-0.089908
-0.093097
-0.088633
-0.10075
-0.097881
-0.052915
-0.079065
-0.068541
-0.051639
-0.069498
-0.067585
-0.052277
-0.010181
-0.0098618
-0.045899
-0.040158
-0.029315
-0.043347
-0.051001
-0.050044
-0.052915
-0.068222
-0.045899
-0.038883
-0.039202
-0.041753
-0.033461
-0.026764
-0.017516
0.0057648
-0.058336
-0.050682
-0.023256
-0.032823
-0.048131
-0.051958
-0.05132
-0.058017
-0.064395
-0.030272
-0.02198
-0.043028
-0.029315
-0.021661
-0.014008
-0.0012513
0.008635
-0.030591
-0.01911
-0.0015702
-0.012094
-0.021024
-0.030591
-0.034737
-0.034737
-0.005716
0.0131
0.010867
0.019478
0.022348
0.030002
0.034786
0.025218
0.029045
0.01884
0.016289
0.016927
-0.012094
-0.056104
-0.036969
-0.038564
-0.030591
-0.020067
-0.074282
-0.033142
-0.0034836
-0.021343
-0.04558
-0.053552
-0.027083
-0.034418
-0.043347
-0.032186
-0.0085862
-0.047174
-0.060887
-0.051639
-0.073963
-0.046855
-0.01337
-0.026126
-0.035375
-0.024851
-0.040477
-0.079384
-0.072049
0.032872
-0.012413
-0.085125
-0.084806
-0.071093
-0.082254
-0.073006
-0.085443
-0.067903
-0.03378
-0.018153
-0.037607
-0.029315
2.4388e-05
-0.00061343
-0.0050782
0.038294
0.03925
-0.024532
-0.017197
0.017564
-0.022937
-0.038564
-0.029634
-0.045261
-0.048769
-0.014008
-0.023256
-0.035375
-0.046536
-0.028359
-0.0069916
-0.0028458
-0.002208
0.0035324
-0.014645
-0.038564
-0.035694
-0.030272
-0.028996
-0.029634
-0.035056
-0.043028
-0.014964
0.0025757
-0.017516
-0.020386
-0.0044404
0.0095917
0.018521
0.044672
0.029683
0.039569
0.025856
0.021391
0.017564
0.025218
0.020754
0.031596
0.054558
0.060617
0.033191
0.029683
0.062212
0.030959
0.015651
0.038294
0.050412
-0.026764
-0.049407
-0.01337
-0.037607
-0.077471
-0.096605
-0.11733
-0.13519
-0.082892
-0.076195
-0.11702
-0.12276
-0.10394
-0.1151
-0.077152
-0.075557
-0.075876
-0.062801
-0.074282
-0.070774
-0.076195
-0.073644
-0.074919
-0.059293
-0.051639
-0.016878
-0.026126
-0.023256
-0.0076295
0.0032135
0.01023
0.018521
0.0028946
-0.019429
-0.023256
-0.027721
-0.032504
-0.024851
-0.032186
-0.048769
-0.03665
-0.040477
-0.048131
-0.049088
-0.030591
-0.017197
-0.016559
-0.028996
-0.012732
0.015332
-0.019429
-0.015283
0.0003433
-0.032186
-0.029953
-0.041115
-0.027402
-0.010181
-0.02198
-0.021343
0.0057648
-0.027083
-0.02198
-0.0050782
-0.0066727
0.028726
-0.0025269
-0.01911
0.0041702
0.0028946
-0.019748
-0.0085862
0.019797
0.022986
0.017883
0.036699
0.0079971
0.026175
0.014694
0.05679
0.095697
0.07433
0.052007
0.015651
0.0067215
-0.018153
-0.0063538
-0.013051
-0.027083
-0.057379
-0.053234
-0.055466
-0.022937
-0.03378
-0.055785
-0.051639
-0.04558
-0.058336
-0.058017
-0.043666
-0.056742
-0.074601
-0.075238
-0.086719
-0.075876
-0.068222
-0.078746
-0.08353
-0.072368
-0.059612
-0.01337
-0.011456
-0.0025269
0.0025757
0.0060837
0.023305
0.052963
0.032553
0.011186
0.029683
-0.005716
-0.0053971
-0.0050782
-0.023256
-0.043028
0.023943
0.008316
-0.034737
-0.053234
-0.020386
-0.022299
-0.020067
-0.01624
-0.029315
-0.037607
-0.047174
-0.043666
-0.036331
-0.031867
-0.024851
-0.013689
-0.024213
0.0022568
0.018202
0.019159
0.044353
0.038612
0.029364
0.04531
0.07146
0.027132
0.031915
0.03064
0.021072
-0.012094
-0.035694
-0.028359
-0.021024
-0.00093234
-0.020705
-0.013689
-0.032504
-0.015602
-0.011775
-0.017516
0.0032135
0.035423
0.014694
-0.020067
-0.016559
-0.017835
-0.0053971
-0.023256
-0.025807
-0.02517
0.029364
0.016289
-0.014327
-0.0028458
0.0003433
0.020116
0.018202
0.0131
0.014375
0.0028946
-0.025807
-0.03665
-0.034418
-0.044304
-0.026126
-0.036331
-0.067903
-0.01624
-0.017197
-0.028678
-0.027721
-0.020067
-0.01337
0.0070404
0.0067215
-0.037288
-0.053552
-0.063758
-0.043666
-0.026764
-0.044942
-0.055466
-0.042391
-0.036331
-0.031867
-0.018791
-0.011456
0.0095917
0.0073593
0.0095917
0.035104
0.061574
0.014375
0.0089539
0.056471
0.029683
-0.0050782
0.02458
-0.009224
-0.011456
0.027132
0.033829
0.022348
0.0025757
-0.00093234
0.02777
0.0035324
0.0057648
-0.0012513
-0.0089051
-0.024532
-0.036969
-0.056104
-0.050044
-0.04558
-0.047493
-0.062482
-0.024532
-0.037607
-0.049088
-0.0095429
-0.012413
-0.005716
0.0092728
0.0067215
-0.0089051
-0.0098618
-0.011137
-0.012094
-0.024851
-0.026445
-0.035694
-0.0095429
-0.012732
0.0131
0.026494
0.014694
0.037337
0.043396
0.03638
0.063487
0.087725
0.037018
0.038294
0.05392
0.050412
0.011824
-0.031867
0.013738
-0.00093234
-0.00093234
-0.0031647
-0.0015702
-0.027083
-0.010181
-0.019429
-0.029315
-0.029315
-0.019429
-0.029634
-0.043028
-0.036969
-0.06025
-0.062482
-0.054828
-0.058017
-0.055147
-0.011456
-0.028996
-0.022937
0.0073593
0.015651
0.01884
0.018202
0.044034
-0.0034836
-0.015921
0.030959
0.032553
0.019159
0.0003433
0.0016189
0.015332
0.0076782
0.020116
0.02171
0.0060837
0.020435
0.033829
0.0019378
0.012462
0.051369
-0.024213
-0.018153
-0.012413
-0.045261
-0.059612
-0.057379
-0.066628
-0.065352
-0.056742
-0.029953
-0.03378
-0.043028
-0.029634
-0.013051
-0.0079484
0.017564
0.05105
0.013738
0.017883
0.040207
0.029364
0.040207
0.047542
0.039569
0.050412
0.064444
0.049455
0.053282
0.094422
0.096973
0.087406
0.082622
0.078795
0.052645
0.026494
0.032234
0.021072
-0.0044404
-0.0073105
-0.021024
-0.01911
-0.026126
0.0054459
0.022029
-0.014645
-0.019748
-0.01337
-0.0105
0.0019378
0.017883
-0.012413
0.00098112
-0.024213
-0.052596
-0.057698
-0.050044
-0.005716
-0.06312
-0.031229
-0.014008
-0.012413
-0.0053971
0.0092728
0.034786
0.025856
0.037337
0.081028
0.044034
0.028726
0.058385
0.043077
0.026494
0.018521
0.0025757
0.0038513
0.043715
0.047542
-0.014008
-0.046218
0.017564
0.02171
0.00098112
-0.0060349
-0.010181
-0.02517
-0.040158
-0.021343
-0.0089051
-0.036012
0.0054459
0.0016189
-0.010181
0.017564
0.026494
0.044034
0.053601
0.046266
0.054239
0.016608
0.034467
0.05105
0.020116
-0.014964
-0.010181
-0.024213
-0.049407
-0.076195
-0.034418
-0.032823
-0.06025
-0.061844
-0.035375
-0.026445
-0.009224
-0.019429
-0.0095429
0.008316
-0.0031647
0.0032135
0.030321
0.0051269
-0.00093234
0.013419
-0.00061343
0.010548
0.058066
0.048499
0.042758
0.03638
0.040845
0.061255
0.048818
0.028407
0.083898
0.028726
-0.0105
0.0022568
-0.032504
-0.031548
-0.042391
-0.022299
-0.029634
-0.005716
0.0131
0.011505
0.01884
0.033191
0.044034
0.064444
0.081028
0.053601
0.052326
0.096016
0.10016
0.046904
0.023943
0.077838
0.084217
0.0028946
0.016289
0.057109
0.052645
0.040845
0.02458
0.012781
0.017564
0.03925
-0.0038025
-0.016878
-0.018791
-0.040158
-0.042072
-0.04558
-0.075557
-0.079065
-0.043028
-0.030272
-0.015283
-0.02517
-0.054828
-0.04558
-0.020705
-0.01624
0.025537
-0.0050782
-0.022299
-0.018153
-0.025488
-0.036012
-0.0105
-0.009224
-0.0085862
0.014056
-0.011456
-0.009224
0.010548
0.021072
0.024262
0.022986
0.022029
-0.010181
-0.013051
-0.0044404
0.0013
-0.017197
-0.056104
-0.047174
-0.0085862
-0.00061343
-0.0079484
-0.0018891
0.0073593
0.030959
0.045947
0.054877
0.059661
0.05105
0.031915
0.029364
0.032872
0.029683
0.015013
-0.0034836
-0.005716
0.0060837
-0.0095429
0.008635
0.067314
0.026494
0.04818
0.078476
0.058385
0.055515
0.093784
0.076882
0.077838
0.096654
0.088681
0.05679
0.026813
0.025856
0.026494
0.054239
0.028088
0.011186
-0.0089051
-0.0079484
0.0092728
0.013419
0.0032135
-0.038564
-0.0098618
-0.0041214
-0.0085862
-0.050363
-0.06025
-0.076514
-0.027083
-0.020386
-0.002208
0.013419
-0.0076295
-0.0028458
0.0073593
0.015013
0.050412
0.063487
0.021391
0.018202
0.037337
0.025856
0.023624
0.048818
0.047542
0.044672
0.044034
0.053601
0.075606
0.059023
0.074012
0.097292
0.10208
0.099843
0.088681
0.046585
0.030002
0.053282
0.042439
0.021072
0.01884
0.0016189
-0.0060349
0.010867
0.020754
-0.0025269
-0.022299
0.025537
0.067314
0.06572
0.064763
0.037975
0.021391
0.037018
0.025218
0.0099106
-0.0063538
0.01023
0.026813
0.0060837
0.012143
0.04818
0.032872
0.031278
0.044672
0.028407
0.049774
0.064444
0.049774
0.071141
0.050412
0.040207
0.053282
0.040526
0.029364
0.0038513
-0.014645
-0.042391
-0.0034836
0.0038513
-0.00093234
2.4388e-05
-0.022937
-0.015921
-0.019748
-0.048131
-0.047174
-0.027402
-0.036331
-0.027083
-0.0085862
-0.020386
-0.022618
0.013419
0.020754
0.022029
0.01884
0.047223
0.034148
0.023943
0.0067215
0.022029
0.016608
-0.0105
-0.017197
-0.068222
-0.087038
-0.045899
-0.068222
-0.084168
-0.042072
-0.00093234
-0.060887
-0.049726
0.028726
0.01884
0.02458
0.037018
-0.0073105
0.03064
0.050093
0.040845
0.023624
0.018521
0.042439
0.05392
0.069866
0.055196
0.066358
0.060936
0.069866
0.093784
0.094103
0.12121
0.1228
0.092508
0.065082
0.090914
0.085492
0.071779
0.059342
0.042758
0.048818
0.096016
0.086768
0.055196
0.042439
0.060617
0.092508
0.069547
0.063487
0.04531
0.043396
0.063806
0.071779
0.044353
0.034467
0.036061
0.020754
0.039569
0.07752
0.069547
0.055834
0.03638
0.041164
0.070185
0.081028
0.031278
-0.022618
0.0016189
-0.023256
-0.055466
-0.11096
-0.11893
-0.1049
-0.14285
-0.14954
-0.11128
-0.10362
-0.15592
-0.11
-0.070136
-0.080979
-0.068222
-0.050363
-0.06025
-0.038564
0.014375
0.014375
-0.01337
0.0035324
0.030002
0.038931
0.029364
0.041164
0.06285
0.085173
0.11069
0.093784
0.069866
0.087406
0.091552
0.070185
0.072098
0.07433
0.069866
0.057747
0.049137
0.046904
0.025218
0.07146
0.078476
0.066358
0.058704
0.069866
0.067952
0.082622
0.088362
0.068909
0.08613
0.078157
0.038294
0.025218
0.044034
0.069547
0.052007
0.059661
0.06572
0.077838
0.069228
0.074012
0.097611
0.07146
0.072736
0.095378
0.048499
0.044034
0.069228
0.031915
0.0019378
0.008635
-0.011775
-0.024213
-0.00093234
0.021391
0.020435
-0.022937
0.00098112
0.037656
0.008316
0.014694
0.022986
0.0054459
0.0051269
-0.014645
-0.041753
-0.06025
-0.061525
-0.072368
-0.084487
-0.061206
-0.074919
-0.094054
-0.084806
-0.056742
-0.029953
-0.034099
-0.015283
-0.027721
-0.046536
-0.033142
-0.01624
-0.01624
0.0064026
0.022348
0.03351
0.023305
0.054239
0.051688
0.015013
0.060617
0.089319
0.077201
0.074649
0.06572
0.021391
0.052963
0.064444
0.050412
0.023624
0.021391
0.016927
0.014375
0.025218
0.034467
0.046585
0.053601
0.079433
0.096335
0.10271
0.094741
0.11643
0.10048
0.07433
0.12918
0.12344
0.076563
0.09506
0.1126
0.094422
0.10271
0.086449
0.060936
0.044353
0.047223
0.054239
0.04818
0.046585
-0.00093234
-0.036331
-0.072368
-0.066947
-0.071093
-0.061844
-0.069498
-0.087676
-0.11255
-0.10777
-0.097243
-0.083849
-0.032504
0.014375
-0.014008
0.0003433
0.0099106
-0.0038025
0.0131
0.027451
0.041802
0.010548
0.0070404
-0.00029452
0.017246
0.012781
0.058704
0.046904
0.0092728
0.03064
0.03064
0.02458
0.019478
0.039888
0.008635
0.022029
0.041483
0.039569
0.052645
0.073374
0.03925
0.040845
0.082303
0.10877
0.12089
0.1295
0.13429
0.14832
0.12376
0.14609
0.1547
0.1362
0.088681
0.089319
0.07433
0.047861
0.042758
0.025856
0.0044891
0.021072
0.020435
0.0060837
-0.014645
-0.015283
0.011505
0.01597
0.0095917
-0.017835
-0.020386
-0.022618
-0.031229
-0.044304
-0.020386
-0.02804
-0.034418
-0.052915
-0.044623
-0.034418
-0.039202
-0.02517
-0.018791
-0.051958
-0.036969
0.016289
0.015651
-0.029634
-0.024213
-0.063439
-0.027083
-0.0076295
-0.0034836
-0.012413
0.0099106
0.008316
0.044034
0.05679
0.066677
0.10654
0.11324
0.10782
0.14098
0.11515
0.10718
0.10431
0.074649
0.12695
0.11388
0.069228
0.066995
0.08613
0.089319
0.078157
0.060298
0.027451
0.061574
0.057747
0.048818
0.012143
-0.028996
-0.038564
0.011824
-0.0034836
-0.01624
-0.03378
-0.035056
-0.03665
-0.015283
-0.0069916
-0.018153
-0.00061343
0.01884
0.023943
0.042121
0.054877
0.014694
0.03925
0.05679
0.032553
0.0070404
0.018202
0.021072
0.03064
0.040207
0.041164
0.051688
0.031915
0.029683
0.041802
0.032553
0.037656
0.046904
0.032234
0.015013
0.0038513
-0.018472
-0.053552
-0.02517
-0.026126
-0.059612
-0.016559
-0.02517
-0.036012
-0.041753
-0.029634
-0.020067
-0.026126
-0.0079484
0.0019378
0.0079971
0.016608
0.059661
0.071779
0.074649
0.085811
0.066995
0.049774
0.11037
0.14864
0.14896
0.16905
0.18818
0.15565
0.16299
0.14959
0.10877
0.064444
0.042439
0.065401
0.040845
0.016927
0.025218
0.013419
0.019797
0.014375
-0.013689
-0.009224
0.017246
0.033191
0.034467
0.038612
0.054558
0.032872
0.026813
0.054558
0.031915
0.01884
0.0057648
0.022348
0.017883
0.048818
0.044034
0.022348
0.025218
0.049455
0.063169
0.055834
0.050731
0.065401
0.043077
0.050093
0.054239
0.022986
0.032872
0.032553
0.0070404
0.0035324
0.025856
0.016289
-0.0015702
0.0044891
0.012462
0.0076782
0.019159
0.040845
0.011824
0.00098112
0.0099106
-0.0105
-0.019429
0.018521
0.03064
0.031278
0.012462
0.029683
0.059023
0.037975
0.046266
0.083579
0.07752
0.10973
0.090595
0.028726
0.046266
0.055515
0.0060837
0.0041702
-0.01624
0.013738
0.011824
0.035104
0.045947
0.019797
0.017883
0.043396
0.059661
0.049455
0.067633
0.077201
0.05679
0.083898
0.10208
0.063487
0.054877
0.06859
0.065082
0.052963
0.081984
0.072417
0.054877
0.059979
0.066677
0.069866
0.070503
0.066358
0.04531
0.042439
0.043396
0.037337
0.018202
0.023624
0.022667
0.0131
0.010548
0.039569
0.043077
0.026813
0.035104
0.048818
0.035104
0.045629
0.059661
0.033829
0.032553
0.051369
0.041802
0.042758
0.061893
0.070822
0.078476
0.078795
0.097292
0.092827
0.080071
0.10335
0.12855
0.13078
0.1177
0.13716
0.10909
0.07146
0.039888
0.031915
-0.0028458
-0.0047593
0.023624
0.026494
0.0044891
-0.024213
-0.043028
-0.027721
-0.037607
-0.049726
-0.057698
-0.044623
-0.03091
-0.079384
-0.080022
-0.094692
-0.13456
-0.11574
-0.06312
-0.058974
-0.079384
-0.058336
-0.049407
-0.032186
0.01597
0.057109
0.037656
0.046904
0.070822
0.043715
0.06572
0.075287
0.094741
0.10654
0.088044
0.06285
0.061893
0.091552
0.096654
0.10048
0.076244
0.11324
0.11579
0.10845
0.10909
0.12153
0.085173
0.07752
0.092189
0.070503
0.060617
0.055834
0.040845
0.058385
0.082941
0.078157
0.068271
0.067314
0.079752
0.087087
0.082622
0.092189
0.094741
0.072417
0.048818
0.037018
0.04818
0.066039
0.066677
0.072417
0.063487
0.10239
0.11388
0.086768
0.090914
0.14768
0.14577
0.14162
0.12855
0.093465
0.075606
0.087725
0.078476
0.039888
0.029683
-0.012413
-0.022618
-0.047812
-0.058655
-0.081935
-0.069817
-0.035694
-0.079384
-0.12339
-0.11351
-0.10362
-0.11829
-0.10713
-0.10777
-0.12945
-0.13009
-0.13328
-0.15114
-0.14189
-0.072368
-0.047493
-0.053871
-0.055785
-0.0031647
0.0073593
0.0025757
0.039888
0.065401
0.062531
0.063806
0.083898
0.068909
0.073055
0.080709
0.080709
0.087087
0.12057
0.11579
0.10399
0.094103
0.1177
0.12567
0.13173
0.12344
0.10016
0.10558
0.10144
0.085811
0.08039
0.067314
0.048499
0.024899
0.047223
0.071779
0.07146
0.04531
0.048818
0.054239
0.04531
0.064125
0.067314
0.024262
0.017564
0.036699
0.03351
0.03638
0.031278
0.0092728
0.034786
0.07146
0.056471
0.071779
0.078157
0.094741
0.10016
0.10686
0.10303
0.10144
0.096973
0.084217
0.074649
0.062531
0.074012
0.067314
0.032234
0.023305
0.067314
0.056471
0.022667
0.016608
0.042121
0.033829
0.032872
0.05392
0.028726
0.017564
-0.0069916
0.0064026
-0.012732
0.0003433
-0.019748
-0.040158
-0.047493
-0.014645
-0.028678
-0.045899
-0.0089051
-0.025807
-0.041115
-0.023575
-0.013689
-0.049726
-0.045899
-0.018791
-0.025488
-0.038883
-0.05132
-0.049088
-0.021343
0.0092728
0.012781
0.022986
0.019478
0.031278
0.052007
0.055834
0.063487
0.078476
0.052963
0.038612
0.050731
0.044353
0.044991
0.04818
0.041483
0.03925
0.074649
0.075606
0.063806
0.07752
0.090276
0.099205
0.10335
0.099843
0.089319
0.090276
0.083898
0.10208
0.067952
0.040845
0.058066
0.061893
0.040207
0.059661
0.057109
0.032234
0.057747
0.048818
0.040845
0.058385
0.056471
0.01597
0.015332
0.027132
0.017883
0.0038513
0.0019378
-0.0076295
0.011186
0.032234
0.034467
0.045947
0.045629
0.06572
0.080709
0.090276
0.1228
0.14672
0.11037
0.11037
0.16745
0.12918
0.1346
0.11675
0.093146
0.11324
0.1547
0.12886
0.098568
0.091233
0.086449
0.088362
0.079433
0.076244
0.022986
-0.030591
-0.036331
-0.041434
-0.048769
-0.041434
-0.051958
-0.081298
-0.094692
-0.069179
-0.059612
-0.075557
-0.061206
-0.046218
-0.041434
-0.024851
-0.0050782
-0.028678
-0.020386
-0.0095429
-0.010181
-0.01337
-0.015283
-0.018153
-0.002208
0.008635
0.015651
0.030321
0.017564
0.03638
0.043715
0.037337
0.042121
0.052007
0.02171
0.020754
0.03925
0.01597
0.011505
0.013419
0.0013
0.0041702
0.039888
0.03351
0.029045
0.029683
0.044353
0.059661
0.058704
0.061574
0.064763
0.057747
0.04818
0.042121
0.037018
0.052007
0.047542
0.030002
0.028407
0.070185
0.068271
0.045947
0.056471
0.081346
0.083579
0.07752
0.081984
0.06572
0.074012
0.073374
0.063487
0.035742
0.026494
0.037018
0.032553
0.026813
0.039888
0.050412
0.02458
0.030959
0.040207
0.023305
0.029045
0.042758
0.0003433
-0.0028458
0.013419
-0.0025269
-0.0079484
-0.0076295
-0.019748
-0.014008
0.019478
0.01884
0.020754
0.018521
0.035104
0.045947
0.045947
0.053282
0.061893
0.040526
0.038931
0.055196
0.030321
0.020435
0.025218
0.020754
0.023943
0.058385
0.044991
0.029683
0.036699
0.042758
0.046585
0.055196
0.060936
0.039569
0.03064
0.018202
0.022348
0.014056
0.0092728
0.0060837
0.004808
0.0073593
0.029683
0.041483
0.031596
0.044353
0.051369
0.042758
0.067952
0.089
0.044991
0.034148
0.058066
0.063487
0.056153
0.035742
0.020754
0.030959
0.060936
0.063487
0.057428
0.047861
0.059023
0.077838
0.065401
0.074968
0.075606
0.047542
0.048818
0.059023
0.034467
0.021072
0.02458
0.014694
0.0044891
0.038612
0.037656
0.016289
0.017246
0.025856
0.028726
0.034786
0.037656
0.022986
0.017883
0.0073593
0.01023
0.0016189
0.0044891
0.0041702
0.0044891
0.0013
0.029683
0.029364
0.019159
0.037975
0.047223
0.040845
0.053601
0.060936
0.027451
0.029683
0.042758
0.029683
0.020754
0.015651
0.0070404
0.01023
0.027451
0.030002
0.038612
0.029683
0.044034
0.050412
0.044353
0.05105
0.066358
0.034786
0.025218
0.040207
0.027132
0.020435
0.021391
0.0060837
0.0057648
0.044353
0.039569
0.028726
0.029683
0.041164
0.050412
0.052645
0.05392
0.045629
0.038294
0.025856
0.031596
0.018521
0.015651
0.017246
0.0092728
0.0022568
0.035423
0.041483
0.023943
0.032553
0.039569
0.043396
0.056153
0.060936
0.021391
0.028088
0.035742
0.029683
0.018202
0.01597
0.0070404
0.008635
0.019159
0.028407
0.039569
0.026175
0.039569
0.049774
0.041483
0.052645
0.065401
0.029683
0.023943
0.042439
0.026494
0.020754
0.016608
0.0054459
0.0060837
0.040207
0.034467
0.030959
0.02777
0.038612
0.049137
0.050731
0.050731
0.049137
0.036061
0.023305
0.031915
0.017883
0.014056
0.016608
0.0067215
0.0019378
0.036061
0.037975
0.022986
0.030959
0.037018
0.044034
0.054877
0.059342
0.025218
0.030321
0.033829
0.029683
0.019797
0.01597
0.011505
0.010548
0.01597
0.03064
0.041802
0.028088
0.041164
0.048818
0.043396
0.05392
0.06859
0.031278
0.028726
0.04531
0.031596
0.025218
0.023624
0.010548
0.013738
0.045947
0.041483
0.040526
0.035423
0.04818
0.060936
0.056153
0.061255
0.066995
0.047542
0.035423
0.046266
0.032553
0.026813
0.030321
0.018202
0.014694
0.052326
0.05105
0.035423
0.041483
0.049137
0.056471
0.06572
0.066677
0.038612
0.041164
0.03925
0.038612
0.02777
0.022986
0.02171
0.017883
0.01597
0.037018
0.047861
0.032872
0.044672
0.05105
0.047223
0.059979
0.072736
0.031915
0.031278
0.048818
0.037018
0.028726
0.025218
0.014056
0.017564
0.044991
0.042758
0.045947
0.037656
0.053601
0.060936
0.057428
0.064444
0.07433
0.049137
0.037975
0.051369
0.037975
0.032553
0.033191
0.019797
0.018202
0.057747
0.052645
0.040845
0.042758
0.051688
0.062212
0.06859
0.067952
0.049774
0.047542
0.041483
0.044991
0.030959
0.028407
0.028088
0.023305
0.01884
0.043715
0.054877
0.035423
0.048499
0.055515
0.052963
0.06572
0.075925
0.034786
0.037656
0.051688
0.040207
0.031596
0.029364
0.018202
0.01884
0.03925
0.044672
0.048818
0.039888
0.050093
0.061255
0.05392
0.061893
0.074649
0.044353
0.034148
0.048818
0.035742
0.029364
0.029045
0.016608
0.013738
0.055196
0.047861
0.036699
0.037337
0.046904
0.059023
0.061574
0.063487
0.05105
0.044034
0.035104
0.040526
0.027132
0.022986
0.025218
0.016289
0.012781
0.042439
0.047542
0.030002
0.040207
0.046585
0.047861
0.060617
0.067952
0.028407
0.032234
0.042439
0.03351
0.02458
0.019478
0.013419
0.014694
0.025856
0.034148
0.045629
0.03064
0.043077
0.053601
0.046904
0.055515
0.069866
0.034148
0.025856
0.045629
0.029045
0.022667
0.021391
0.0076782
0.0079971
0.04531
0.03925
0.030959
0.030002
0.042121
0.052326
0.054239
0.055196
0.050731
0.037018
0.026175
0.034467
0.020754
0.015651
0.016608
0.0089539
0.0028946
0.037337
0.03925
0.022348
0.029364
0.037018
0.040845
0.053601
0.054877
0.021072
0.023624
0.029364
0.025856
0.014056
0.010867
0.0041702
0.0028946
0.0089539
0.023943
0.03351
0.019159
0.031278
0.041164
0.034148
0.044353
0.059979
0.022348
0.016927
0.036061
0.021072
0.016289
0.010867
-0.0012513
0.0013
0.032872
0.029364
0.026175
0.021391
0.034467
0.043396
0.041483
0.046266
0.049137
0.029683
0.016608
0.028088
0.015332
0.0095917
0.012462
2.4388e-05
-0.002208
0.034148
0.034786
0.018521
0.023943
0.031596
0.040526
0.048818
0.051369
0.022667
0.02458
0.026175
0.024262
0.012781
0.01023
0.0054459
0.0044891
0.004808
0.024262
0.033829
0.018521
0.031596
0.03925
0.032872
0.046904
0.058704
0.01597
0.015332
0.032234
0.020116
0.012781
0.0079971
-0.0044404
-0.0018891
0.026494
0.023305
0.026813
0.019159
0.03064
0.040526
0.035742
0.042121
0.050731
0.024899
0.013419
0.028088
0.012781
0.0076782
0.0079971
-0.0031647
-0.0063538
0.031278
0.029364
0.015332
0.018521
0.026494
0.035742
0.043077
0.042439
0.021391
0.019478
0.015013
0.01597
0.0035324
2.4388e-05
-0.00093234
-0.0069916
-0.0089051
0.015332
0.02458
0.0060837
0.018202
0.025856
0.02171
0.035104
0.044991
0.0032135
0.0041702
0.020754
0.008635
2.4388e-05
-0.0041214
-0.015283
-0.013051
0.01023
0.01023
0.016927
0.0079971
0.020435
0.030959
0.02458
0.03351
0.044991
0.014375
0.0054459
0.022348
0.0076782
0.0019378
0.0025757
-0.010181
-0.010819
0.029045
0.023305
0.011824
0.013738
0.023305
0.035423
0.039888
0.039888
0.023943
0.017883
0.01023
0.01597
0.0028946
-0.00093234
-0.00029452
-0.0082673
-0.013689
0.016289
0.022348
0.0032135
0.0131
0.019159
0.020754
0.033829
0.040845
-0.00093234
0.0016189
0.014056
0.0044891
-0.005716
-0.010181
-0.017835
-0.015602
-0.0038025
0.0028946
0.0131
2.4388e-05
0.011824
0.022986
0.014694
0.025218
0.037018
0.0025757
-0.0060349
0.012143
-0.0028458
-0.0095429
-0.010819
-0.024213
-0.023256
0.016289
0.0092728
0.00066221
-0.0012513
0.0089539
0.021072
0.022029
0.023305
0.019159
0.008635
-0.0044404
0.0022568
-0.0098618
-0.014008
-0.0105
-0.021343
-0.024851
0.0095917
0.0131
-0.0050782
0.0028946
0.011505
0.016289
0.029045
0.030002
-0.0025269
0.0003433
0.0079971
0.0022568
-0.0082673
-0.010819
-0.016878
-0.015921
-0.0085862
0.0038513
0.016289
0.0016189
0.015651
0.023943
0.016608
0.028407
0.042439
0.0038513
-0.00061343
0.019159
0.0051269
-0.0012513
-0.0050782
-0.016559
-0.014645
0.021391
0.014375
0.01023
0.0073593
0.019159
0.031596
0.028407
0.034467
0.035423
0.017564
0.004808
0.016927
0.00098112
-0.0025269
2.4388e-05
-0.010181
-0.015602
0.024262
0.022667
0.0051269
0.012781
0.019159
0.025856
0.036061
0.03925
0.0054459
0.0099106
0.011186
0.0095917
-0.0034836
-0.0063538
-0.010819
-0.013051
-0.013051
0.0057648
0.01597
-0.00061343
0.012462
0.017883
0.012781
0.025856
0.037337
-0.0031647
-0.0069916
0.012143
-0.002208
-0.0095429
-0.013051
-0.025807
-0.022937
0.0060837
0.0028946
0.0032135
-0.0031647
0.0095917
0.020116
0.016289
0.020435
0.028726
0.0054459
-0.0082673
0.004808
-0.0079484
-0.01624
-0.010819
-0.024851
-0.027083
0.012781
0.0089539
-0.0079484
-0.0018891
0.0067215
0.014375
0.023305
0.024262
-0.0018891
-0.0015702
-0.0044404
-0.0018891
-0.016878
-0.019748
-0.020067
-0.02517
-0.026126
-0.0018891
0.0057648
-0.011137
0.0013
0.0076782
0.0057648
0.018521
0.029683
-0.014327
-0.011456
0.0041702
-0.0076295
-0.015921
-0.019748
-0.031548
-0.028678
-0.0050782
-0.0044404
-0.0018891
-0.010181
0.0022568
0.012462
0.0054459
0.015332
0.02458
-0.0063538
-0.01624
0.0013
-0.016559
-0.020386
-0.019429
-0.034737
-0.034418
0.0060837
-0.00093234
-0.012094
-0.010819
-0.0012513
0.0089539
0.014694
0.015013
0.0016189
-0.0047593
-0.012732
-0.0073105
-0.018472
-0.024213
-0.02198
-0.029634
-0.033461
-0.0028458
0.0032135
-0.014645
-0.0038025
0.0028946
0.0025757
0.017564
0.023305
-0.016878
-0.014327
-0.0018891
-0.011456
-0.022299
-0.025488
-0.035694
-0.031548
-0.017835
-0.012094
-0.0041214
-0.015283
-0.0025269
0.0057648
-0.0018891
0.0073593
0.021072
-0.012094
-0.020067
-0.0050782
-0.018153
-0.024851
-0.024851
-0.037288
-0.037926
0.00098112
-0.0063538
-0.01337
-0.014327
-0.0044404
0.0064026
0.0095917
0.010548
0.0028946
-0.0073105
-0.017835
-0.011456
-0.024213
-0.028678
-0.026445
-0.035056
-0.039839
-0.0073105
-0.0031647
-0.021343
-0.011775
-0.0060349
-0.002208
0.010548
0.015013
-0.022937
-0.019429
-0.010819
-0.017516
-0.027083
-0.031867
-0.039839
-0.038245
-0.030591
-0.018791
-0.0085862
-0.023256
-0.0105
-0.0015702
-0.0089051
0.0028946
0.015651
-0.021024
-0.029953
-0.0079484
-0.023575
-0.030591
-0.033142
-0.046855
-0.044304
-0.0069916
-0.013689
-0.020386
-0.023256
-0.011456
0.0003433
2.4388e-05
0.0035324
0.0025757
-0.014645
-0.025488
-0.015283
-0.029634
-0.034418
-0.031548
-0.041434
-0.04558
-0.011775
-0.0089051
-0.026126
-0.018472
-0.010819
-0.0047593
0.0057648
0.0092728
-0.021024
-0.018153
-0.015602
-0.018472
-0.030272
-0.031229
-0.036331
-0.036012
-0.035694
-0.017516
-0.005716
-0.02198
-0.0089051
-0.00093234
-0.0066727
0.0041702
0.018521
-0.021343
-0.025807
-0.0047593
-0.020067
-0.026445
-0.029634
-0.04271
-0.038883
-0.0073105
-0.012413
-0.012094
-0.017197
-0.0063538
0.0057648
0.0016189
0.0057648
0.015332
-0.0089051
-0.022299
-0.0089051
-0.021024
-0.026445
-0.026126
-0.036012
-0.040477
0.0003433
-0.0031647
-0.01911
-0.013051
-0.0050782
0.0041702
0.012462
0.0131
-0.013051
-0.012413
-0.014645
-0.015602
-0.027083
-0.029953
-0.031548
-0.036331
-0.038883
-0.016878
-0.0085862
-0.02517
-0.011775
-0.0053971
-0.010181
0.0038513
0.015013
-0.029634
-0.026764
-0.010819
-0.022618
-0.029315
-0.034099
-0.046218
-0.04271
-0.018791
-0.018791
-0.014008
-0.02198
-0.0079484
0.0022568
-0.0050782
0.0041702
0.014694
-0.014645
-0.024213
-0.0095429
-0.022937
-0.028996
-0.02804
-0.03952
-0.043028
-0.0015702
-0.0069916
-0.020386
-0.018153
-0.0076295
0.0032135
0.0079971
0.008316
-0.0079484
-0.0098618
-0.01911
-0.014645
-0.026764
-0.03091
-0.029315
-0.03665
-0.037926
-0.0095429
-0.0041214
-0.02198
-0.009224
-0.0031647
-0.002208
0.011505
0.017883
-0.021024
-0.017835
-0.005716
-0.014645
-0.023575
-0.028359
-0.038245
-0.034099
-0.017197
-0.013689
-0.0063538
-0.016559
-0.0031647
0.0057648
-0.0012513
0.0092728
0.022029
-0.012413
-0.020705
-0.0028458
-0.017835
-0.023575
-0.024213
-0.036969
-0.037288
0.0022568
-0.0044404
-0.015283
-0.013689
-0.0028458
0.008316
0.010867
0.010867
0.0032135
-0.0085862
-0.017197
-0.011775
-0.023575
-0.028678
-0.025807
-0.035375
-0.038883
-0.0085862
-0.0041214
-0.022299
-0.012732
-0.0063538
-0.0041214
0.008635
0.015013
-0.02517
-0.019748
-0.012094
-0.018472
-0.02804
-0.031229
-0.039202
-0.037607
-0.02804
-0.018153
-0.0079484
-0.020705
-0.0079484
0.0013
-0.0076295
0.0051269
0.017246
-0.021024
-0.026126
-0.0044404
-0.019748
-0.029634
-0.030591
-0.04271
-0.040796
-0.0047593
-0.012732
-0.017516
-0.020386
-0.0076295
0.0035324
0.0019378
0.0044891
0.004808
-0.010819
-0.023894
-0.014008
-0.02804
-0.032823
-0.028359
-0.038245
-0.042391
-0.0063538
-0.0053971
-0.02198
-0.014645
-0.0047593
-0.00029452
0.011824
0.013738
-0.016878
-0.014327
-0.011137
-0.013051
-0.02517
-0.029315
-0.03378
-0.032823
-0.03091
-0.014327
-0.002208
-0.018791
-0.0041214
0.0032135
-0.0047593
0.0073593
0.021391
-0.019429
-0.021343
-0.0041214
-0.01911
-0.027083
-0.029953
-0.040796
-0.038883
-0.0076295
-0.014327
-0.015602
-0.019429
-0.0069916
-0.00029452
-0.002208
0.0041702
0.010548
-0.0105
-0.023575
-0.0098618
-0.022618
-0.030591
-0.025488
-0.03665
-0.03952
-0.0031647
-0.0069916
-0.020067
-0.012413
-0.0069916
2.4388e-05
0.0099106
0.0092728
-0.014964
-0.013689
-0.015283
-0.017197
-0.03378
-0.034099
-0.031548
-0.03665
-0.037607
-0.018472
-0.0079484
-0.024532
-0.010181
-0.0015702
-0.0053971
0.0060837
0.018521
-0.023256
-0.021024
-0.0050782
-0.019748
-0.026445
-0.031229
-0.042391
-0.038245
-0.011137
-0.014327
-0.012413
-0.02198
-0.0085862
0.00066221
-0.0053971
0.00098112
0.012143
-0.013689
-0.025807
-0.012094
-0.024213
-0.032186
-0.035375
-0.046536
-0.047493
-0.0044404
-0.010181
-0.023575
-0.023894
-0.011456
-0.0047593
0.0041702
0.00098112
-0.014645
-0.01911
-0.026126
-0.024213
-0.034737
-0.036012
-0.034737
-0.043666
-0.048131
-0.020067
-0.01337
-0.032823
-0.024213
-0.013051
-0.014327
-0.0041214
0.0032135
-0.03665
-0.036331
-0.024851
-0.034418
-0.043985
-0.047174
-0.058974
-0.055785
-0.038245
-0.034099
-0.026126
-0.036969
-0.023256
-0.014008
-0.020067
-0.012094
0.0022568
-0.028996
-0.038883
-0.019429
-0.037288
-0.043028
-0.042391
-0.056742
-0.055466
-0.017516
-0.027721
-0.041434
-0.039202
-0.029634
-0.017516
-0.015283
-0.015283
-0.021343
-0.034099
-0.04271
-0.032823
-0.04558
-0.050363
-0.039202
-0.047493
-0.049407
-0.015921
-0.011137
-0.028678
-0.014008
-0.0044404
-0.002208
0.011186
0.015651
-0.021343
-0.01624
-0.0095429
-0.016878
-0.024532
-0.028996
-0.037288
-0.034418
-0.026445
-0.014645
-0.0063538
-0.021661
-0.0050782
0.0022568
-0.00029452
0.008635
0.022667
-0.013051
-0.022618
-0.0041214
-0.018472
-0.024851
-0.022618
-0.036012
-0.035056
0.0035324
-0.009224
-0.014008
-0.014645
-0.0041214
0.0095917
0.0032135
0.0022568
0.00098112
-0.017197
-0.030591
-0.015921
-0.028678
-0.041434
-0.03952
-0.049726
-0.053234
-0.017835
-0.016878
-0.035056
-0.027083
-0.018791
-0.012094
-0.0012513
0.00066221
-0.029953
-0.027721
-0.023894
-0.027083
-0.037607
-0.042072
-0.046218
-0.045899
-0.043028
-0.026764
-0.015602
-0.029953
-0.01624
-0.0089051
-0.017835
-0.0044404
0.0099106
-0.028359
-0.033142
-0.01624
-0.028359
-0.036012
-0.039202
-0.052277
-0.045899
-0.015921
-0.022618
-0.023256
-0.027721
-0.01624
-0.002208
-0.0089051
-0.0031647
0.0038513
-0.019748
-0.031229
-0.018791
-0.035056
-0.038564
-0.036969
-0.048131
-0.053871
-0.015283
-0.017516
-0.03378
-0.028996
-0.020067
-0.012413
-0.0044404
-0.0053971
-0.03378
-0.032823
-0.03378
-0.033142
-0.044623
-0.050363
-0.04845
-0.051958
-0.05419
-0.033142
-0.021343
-0.038245
-0.027083
-0.015921
-0.01911
-0.0066727
0.008316
-0.036969
-0.037926
-0.021343
-0.027721
-0.038564
-0.042391
-0.054509
-0.052915
-0.024532
-0.023575
-0.021343
-0.029315
-0.015602
-0.0044404
-0.011775
-0.0089051
0.0013
-0.022299
-0.032504
-0.015602
-0.032186
-0.039839
-0.040477
-0.051958
-0.053234
-0.012732
-0.021343
-0.037288
-0.031229
-0.022299
-0.011775
-0.0060349
-0.0095429
-0.028996
-0.030272
-0.036969
-0.033142
-0.046536
-0.048769
-0.049088
-0.051958
-0.055785
-0.029315
-0.020067
-0.037607
-0.021024
-0.010181
-0.012732
-0.00029452
0.01023
-0.026764
-0.026445
-0.01911
-0.033142
-0.037288
-0.039202
-0.056423
-0.058017
-0.043347
-0.044623
-0.038245
-0.052277
-0.042391
-0.034737
-0.044304
-0.032823
-0.023575
-0.052915
-0.058655
-0.039202
-0.051958
-0.054509
-0.055466
-0.064395
-0.058336
-0.014008
-0.018791
-0.029953
-0.028996
-0.014645
0.0019378
0.0054459
0.0089539
-0.0047593
-0.013689
-0.02198
-0.014008
-0.020067
-0.025807
-0.024532
-0.033461
-0.040477
-0.010819
-0.00093234
-0.021024
-0.0038025
-0.0031647
-0.0041214
0.0073593
0.022986
-0.017835
-0.017835
-0.012094
-0.01911
-0.037926
-0.04558
-0.052277
-0.050682
-0.046855
-0.038883
-0.039202
-0.058017
-0.046855
-0.047493
-0.061525
-0.051958
-0.043985
-0.081935
-0.091184
-0.066309
-0.074282
-0.071411
-0.067585
-0.069817
-0.08066
-0.041753
-0.039839
-0.032823
-0.028359
-0.0060349
0.0051269
0.0060837
0.012143
0.010548
-0.00093234
-0.01624
-0.0063538
-0.022937
-0.031867
-0.031548
-0.04271
-0.047174
-0.0089051
-0.0095429
-0.029634
-0.023575
-0.015921
-0.0105
-0.0044404
0.004808
-0.022937
-0.015921
-0.0050782
-0.018153
-0.028996
-0.027083
-0.023256
-0.021024
-0.014008
-0.0012513
0.015332
-0.0028458
0.0095917
0.017246
0.015013
0.031278
0.048818
0.0041702
-0.0034836
0.014694
-0.0012513
-0.012413
-0.014645
-0.03665
-0.043347
-0.0060349
-0.012094
-0.032186
-0.036331
-0.021024
-0.013051
-0.032823
-0.035056
-0.03665
-0.038245
-0.036331
-0.026445
-0.048131
-0.052915
-0.044304
-0.058655
-0.068541
-0.023575
-0.0105
-0.037607
-0.047174
-0.03378
-0.026126
-0.031867
-0.038883
-0.078427
-0.085443
-0.07779
-0.09246
-0.11351
-0.12148
-0.14891
-0.13615
-0.12945
-0.093097
-0.073644
-0.068541
-0.05132
-0.047812
-0.053552
-0.020386
0.01884
-0.0098618
0.0067215
0.033829
0.028407
0.037337
0.031915
0.020435
0.023305
0.055515
0.059342
0.066677
0.065401
0.064763
0.067952
0.067314
0.063806
0.058066
0.050412
0.048499
0.059023
0.033191
0.029683
0.031915
0.008316
0.0041702
0.054877
0.056153
0.016608
0.038612
0.030002
0.026175
0.0092728
0.024262
0.017246
0.0054459
-0.0060349
-0.023256
-0.053234
-0.054828
-0.06025
-0.046218
-0.054509
-0.040158
-0.035056
-0.044942
-0.035056
-0.043985
-0.042391
-0.010181
-0.0076295
-0.070455
-0.066947
-0.047812
-0.066628
-0.082254
-0.088952
-0.10171
-0.11829
-0.10872
-0.11191
-0.097562
-0.10809
-0.096286
-0.091503
-0.093097
-0.054828
-0.018791
-0.067903
-0.072687
-0.019748
-0.020705
-0.02517
-0.0060349
-0.0038025
-0.00093234
0.066039
0.03351
0.012781
0.010548
0.034148
0.03064
0.0095917
-0.0053971
-0.011456
-0.01337
-0.040796
-0.074601
-0.078109
-0.08066
-0.058017
-0.076833
-0.077152
-0.032504
-0.013689
-0.028359
-0.002208
0.0099106
0.02171
0.044672
0.040207
-0.0041214
0.03925
0.052326
0.020754
0.013738
0.015332
0.0092728
0.0054459
0.0054459
-0.005716
0.011186
0.0013
-0.0025269
0.010867
-0.0076295
0.0051269
-0.0034836
-0.034737
-0.029315
-0.015921
-0.061206
-0.082892
-0.080341
-0.097881
-0.11478
-0.096924
-0.11064
-0.12595
-0.15688
-0.14986
-0.14667
-0.16166
-0.16772
-0.16836
-0.16836
-0.15273
-0.16772
-0.17825
-0.17729
-0.1454
-0.12754
-0.13838
-0.064714
-0.046218
-0.062482
-0.066309
0.025218
0.047542
0.022986
0.025856
-0.009224
-0.012732
-0.0098618
-0.0069916
-0.02517
0.011505
-0.061844
-0.056423
-0.028359
-0.0105
-0.04271
-0.072687
-0.03665
-0.0082673
-0.028678
-0.0066727
0.024899
0.0070404
0.0131
0.016289
0.004808
0.015651
0.014375
0.021391
0.014375
0.059023
0.06572
0.065401
0.069228
0.072736
0.068271
0.069228
0.059661
0.06285
0.040526
0.03925
0.056153
0.024899
-0.014645
-0.024213
-0.040158
-0.058336
-0.036969
-0.053234
-0.080022
-0.085443
-0.088633
-0.11861
-0.11829
-0.14221
-0.21811
-0.23756
-0.22927
-0.19005
-0.23533
-0.24809
-0.25702
-0.24522
-0.27392
-0.19292
-0.17888
-0.22385
-0.18271
-0.10681
-0.088314
-0.074919
-0.069817
-0.01911
-0.010819
0.023624
0.035104
0.062212
0.087087
0.075606
0.068271
0.11388
0.097611
0.081028
0.070185
0.087087
0.089638
0.060936
0.065401
0.050412
0.0051269
-0.002208
0.0051269
-0.041434
-0.046218
-0.031548
-0.057698
-0.029634
0.014694
0.0131
-0.024851
-0.012413
0.0079971
0.069866
0.058704
0.026175
-0.018791
2.4388e-05
-0.032823
-0.030591
-0.029315
-0.065352
-0.10968
-0.11064
-0.15018
-0.12913
-0.082892
-0.082892
-0.092778
-0.097243
-0.10298
-0.082892
-0.11606
-0.11064
-0.10266
-0.082892
-0.11478
-0.12499
-0.10426
-0.11446
-0.093416
-0.1033
-0.081935
-0.034099
-0.088952
-0.063758
-0.029953
-0.053552
-0.011775
0.012781
-0.012094
-0.0028458
0.016608
-0.014008
0.010867
-0.0031647
-0.01624
-0.01911
0.0054459
0.024899
0.0099106
-0.031548
-0.030591
-0.027402
-0.035056
-0.014645
-0.051639
-0.066947
-0.085443
-0.086081
-0.096605
-0.12371
-0.13551
-0.14125
-0.13041
-0.11861
-0.12212
-0.11478
-0.10681
-0.10107
-0.10139
-0.097562
-0.10617
-0.10936
-0.088314
-0.10649
-0.093416
-0.097881
-0.093735
-0.09533
-0.09246
-0.094054
-0.088633
-0.057698
-0.062163
-0.020386
-0.03378
-0.032823
-0.030591
-0.052915
-0.11861
-0.12244
-0.08066
-0.12403
-0.070774
-0.069498
-0.10681
-0.12563
-0.040796
-0.052596
-0.081298
-0.02804
0.0054459
0.027132
0.042121
0.047861
0.078476
0.07433
0.042439
0.05105
0.047861
0.05105
0.04818
0.0060837
-0.067266
-0.043347
-0.023894
-0.032186
-0.042072
-0.064395
-0.099476
-0.11128
-0.10426
-0.15114
-0.13137
-0.11925
-0.13456
-0.15465
-0.132
-0.12786
-0.13296
-0.11733
-0.082573
-0.064395
-0.061525
-0.036969
-0.019429
0.0044891
0.015332
0.026494
0.0099106
0.0131
0.010867
-0.0050782
-0.014645
-0.032823
-0.063439
-0.056423
-0.027083
-0.04558
-0.045899
-0.067266
-0.083211
-0.044942
-0.038883
-0.061844
-0.050363
-0.073006
-0.084487
-0.044623
-0.02517
-0.0041214
0.015332
-0.015602
-0.0085862
0.029045
0.040845
0.023305
0.030002
0.033191
0.066677
0.06285
-0.011456
-0.082892
-0.076514
-0.055466
-0.076195
-0.079384
-0.13711
-0.13647
-0.14763
-0.14827
-0.12722
-0.095011
-0.080341
-0.057698
-0.04271
-0.075557
-0.078427
-0.047812
-0.020386
-0.0105
-0.044304
-0.063439
0.016927
0.020116
-0.032504
-0.038245
-0.032823
-0.065671
-0.022618
0.008316
0.0032135
0.0095917
-0.016559
0.0019378
-0.0044404
-0.047174
-0.052915
-0.035375
-0.087038
-0.087038
-0.092141
-0.093735
-0.093097
-0.072049
-0.072049
-0.0864
-0.077471
-0.062482
-0.061525
-0.069179
-0.062482
-0.069817
-0.061525
-0.087995
-0.093097
-0.090865
-0.10649
-0.11064
-0.10522
-0.087676
-0.051639
-0.036331
-0.047812
-0.061844
-0.039202
-0.021024
0.008635
0.041164
-0.0050782
-0.042072
-0.011456
0.0079971
0.0092728
-0.0025269
0.0044891
-0.034418
-0.01624
0.015013
0.022986
0.0099106
-0.028359
0.018202
0.044034
0.034786
0.081346
0.10622
0.04818
0.06572
0.045629
0.056471
0.075925
0.02777
-0.0089051
0.050412
0.01884
0.0057648
-0.002208
-0.031867
-0.0015702
-0.0085862
-0.024851
-0.10936
-0.12435
-0.098838
-0.084806
-0.13328
-0.1454
-0.12307
-0.15146
-0.11765
-0.044304
-0.080979
-0.13232
-0.093735
-0.061206
-0.06886
-0.074601
-0.04271
-0.080022
-0.094054
-0.06599
-0.071411
-0.06599
-0.056742
-0.052915
-0.050363
-0.047812
-0.052915
-0.02517
-0.013051
0.00098112
0.01023
0.0054459
0.010548
0.015651
-0.012413
-0.026126
-0.01337
-0.015602
-0.012094
-0.014964
-0.033461
-0.042072
0.0003433
0.0016189
0.03351
0.015651
0.025856
0.03638
0.0092728
0.041483
0.008635
0.014375
-0.014327
-0.018153
-0.035694
-0.053552
-0.041115
-0.0085862
-0.047493
-0.046536
0.0028946
-0.025488
-0.036012
-0.011775
-0.015921
-0.025807
0.00066221
0.01597
-0.026445
-0.046218
-0.018791
-0.087038
-0.12052
-0.12563
-0.11606
-0.12339
-0.10777
-0.1151
-0.12595
-0.081935
-0.080341
-0.12212
-0.0982
-0.06025
-0.085762
-0.069817
-0.023575
-0.041753
-0.044942
-0.047493
-0.00061343
0.0013
0.025856
0.022029
0.05105
0.075925
0.087406
0.076563
0.10208
0.094103
0.10558
0.10431
0.11866
0.12025
0.090914
0.069228
0.057109
0.046904
0.020116
0.043077
0.01884
-0.0018891
-0.024213
-0.0053971
-0.0089051
-0.062482
-0.075238
-0.077471
-0.066947
-0.11415
-0.16294
-0.16995
-0.15943
-0.13296
-0.12499
-0.14699
-0.14923
-0.12052
-0.11765
-0.12116
-0.10522
-0.026445
-0.023575
-0.067585
-0.086719
-0.043347
-0.028359
-0.040796
-0.016878
-0.0041214
-0.04845
-0.062163
-0.037607
-0.037607
-0.0085862
-0.023575
-0.031229
-0.0098618
-0.043028
-0.043666
-0.0015702
-0.027721
-0.050044
-0.034099
-0.041753
-0.048131
-0.023894
0.032872
0.004808
0.043396
0.067314
0.064763
0.05392
0.084854
0.148
0.15565
0.10144
0.054239
0.08039
0.06572
0.01597
-0.038883
0.028407
0.030002
-0.022299
-0.049407
-0.054509
-0.074601
-0.099794
-0.10458
-0.08927
-0.10266
-0.10362
-0.085125
-0.11383
-0.13679
-0.11128
-0.12212
-0.1403
-0.12913
-0.1438
-0.13615
-0.12626
-0.11128
-0.079065
-0.079065
-0.067266
-0.070136
-0.071093
-0.05132
-0.037607
-0.049407
-0.068222
-0.056742
-0.072049
-0.087038
-0.095649
-0.11159
-0.072368
-0.026445
-0.04558
-0.070774
-0.035694
-0.014008
0.017246
0.044991
0.041164
0.052963
0.12408
0.14704
0.094422
0.060298
0.041483
0.065082
0.085811
0.14768
0.14864
0.043077
0.0060837
0.0051269
-0.00093234
0.015013
0.0054459
0.012462
-0.028678
-0.044942
-0.064714
-0.089908
-0.12882
-0.11223
-0.11319
-0.10043
-0.077152
-0.073644
-0.043985
-0.028678
0.017564
-0.0044404
-0.014327
0.040207
0.020435
0.022667
0.066358
0.074968
0.041802
0.032872
0.0131
0.016608
0.0057648
0.013738
-0.0047593
-0.029634
-0.015602
-0.040477
-0.049407
-0.063758
-0.090227
-0.10298
-0.11574
-0.10298
-0.079703
-0.11478
-0.13456
-0.14412
-0.13424
-0.12276
-0.08927
-0.086719
-0.10841
-0.085762
-0.085762
-0.058655
-0.056423
-0.057379
-0.061844
-0.068541
-0.083211
-0.073644
-0.09246
-0.070136
-0.071093
-0.058655
-0.068222
-0.061844
-0.048769
-0.04845
-0.039202
-0.023256
-0.0063538
0.0060837
0.035104
-0.0082673
-0.029634
0.022986
0.034148
-0.027402
-0.075238
-0.039839
-0.0050782
0.028407
0.05679
0.043396
0.011505
0.014375
0.035423
-0.002208
0.0038513
0.036699
0.022986
0.046585
-0.0018891
-0.020386
-0.012732
-0.005716
-0.018472
-0.021343
0.027451
0.0019378
0.0076782
0.020116
-0.0041214
-0.037607
0.0013
0.0044891
0.0067215
-0.0050782
-0.044304
-0.026445
-0.05132
-0.10139
-0.10203
-0.078427
-0.071093
-0.054828
-0.03378
-0.058336
-0.047493
-0.026445
-0.032823
-0.022937
0.022029
-0.0085862
-0.011775
-0.0038025
-0.022618
-0.01624
-0.033142
-0.056423
-0.046855
0.0057648
0.0025757
-0.030591
-0.04845
-0.015283
0.0013
-0.015602
-0.012094
0.0095917
-0.020386
-0.035056
-0.028996
-0.058017
-0.083211
-0.081617
-0.085125
-0.11702
-0.10553
-0.10107
-0.12499
-0.11765
-0.093416
-0.12212
-0.11893
-0.083211
-0.11032
-0.082892
-0.072049
-0.054828
-0.082892
-0.04845
-0.027721
-0.023256
-0.02517
0.050731
0.096016
0.064125
0.068271
0.1008
0.13716
0.080071
0.092508
0.10877
0.12185
0.1295
0.066995
0.027132
0.015013
0.0032135
0.016927
0.0057648
-0.053552
-0.038883
-0.011137
-0.03665
-0.072368
-0.057698
-0.0089051
-0.0063538
-0.067903
-0.084168
-0.067903
-0.043347
-0.044304
-0.033142
-0.038245
-0.037607
-0.0041214
-0.012094
-0.035375
-0.022299
-0.016878
-0.012413
-0.022299
-0.045261
-0.044304
-0.06886
-0.070455
-0.072049
-0.094692
-0.088633
-0.082573
-0.085443
-0.08927
-0.084806
-0.040796
-0.042072
-0.04558
-0.030272
-0.026764
-0.010819
-0.0079484
-0.035375
-0.038564
-0.067585
-0.046855
-0.017197
-0.055147
-0.049407
-0.050044
-0.067585
-0.066309
-0.050363
-0.062801
-0.051639
-0.031867
-0.049726
-0.043028
-0.011775
-0.081935
-0.09246
-0.032186
-0.047174
-0.061844
-0.069498
-0.082573
-0.043028
0.0038513
-0.012732
0.012781
0.038612
0.063487
0.06572
0.036699
0.05679
0.089638
0.040207
0.02777
0.077201
0.047861
0.037975
0.024899
0.016608
-0.034737
-0.01624
-0.0018891
-0.023256
-0.0098618
-0.014008
2.4388e-05
-0.021661
-0.053234
-0.093735
-0.12307
-0.052915
-0.058336
-0.10553
-0.12499
-0.11797
-0.12467
-0.1218
-0.11478
-0.091503
-0.081617
-0.077471
-0.051639
-0.078109
-0.082254
-0.039839
-0.059612
-0.046855
-0.033142
-0.068222
-0.083211
-0.039202
-0.065033
-0.066309
-0.049726
-0.041434
-0.010819
-0.017197
-0.010819
0.0070404
0.015013
0.032872
0.03064
0.0067215
-0.011775
-0.005716
-0.013689
-0.01337
-0.021343
-0.018153
-0.049726
-0.027721
-0.020386
-0.0066727
-0.0012513
-0.0066727
0.0032135
0.028726
0.02171
0.01023
0.04531
0.016927
0.019478
0.022348
0.032872
2.4388e-05
-0.056423
-0.022299
-0.0095429
0.053601
0.027132
0.027132
0.03351
0.016608
0.015013
0.012143
-0.039202
-0.024213
-0.0034836
-0.017835
-0.023894
-0.057698
-0.065352
-0.053234
-0.06025
-0.061844
-0.084487
-0.094373
-0.10458
-0.10936
-0.098838
-0.11478
-0.084487
-0.11446
-0.13487
-0.11064
-0.095968
-0.099476
-0.10075
-0.1049
-0.12403
-0.087676
-0.074601
-0.089908
-0.060887
-0.018791
-0.014327
-0.014008
-0.015921
-0.042072
-0.034099
-0.022299
-0.033461
-0.051001
-0.022618
-0.014645
-0.015921
-0.021661
0.022667
0.034786
0.0038513
0.018202
0.024262
0.021391
0.037975
0.06285
0.0070404
-0.012094
0.0022568
0.0079971
-0.023256
-0.050044
-0.088952
-0.023894
0.008316
-0.0031647
0.0041702
-0.015921
0.01023
0.026813
0.029683
0.022029
0.023305
-0.0063538
-0.0063538
0.0131
-0.054828
-0.024851
-0.028359
-0.085125
-0.084487
-0.042391
-0.050044
-0.067266
-0.069179
-0.052277
-0.049407
-0.02198
-0.025488
-0.0076295
-0.02198
-0.088952
-0.069179
-0.073325
-0.076833
-0.042391
-0.072368
-0.10522
-0.074919
-0.076833
-0.10266
-0.084168
-0.086081
-0.095968
-0.053234
-0.009224
-0.060569
-0.068541
-0.042391
-0.03091
-0.023575
-0.016559
-0.043666
-0.044623
-0.034418
-0.02517
0.027132
0.0016189
0.015332
0.018521
0.017246
-0.002208
-0.017835
-0.050682
-0.055785
-0.039839
-0.049407
-0.080979
-0.099794
-0.078109
-0.079703
-0.052915
-0.06599
-0.077152
-0.073325
-0.07779
-0.041434
-0.03378
-0.033142
-0.047812
-0.055147
-0.061844
-0.072049
-0.058974
-0.061525
-0.057379
-0.059612
-0.086081
-0.058017
-0.044942
-0.056742
-0.01337
-0.023575
0.0032135
0.008635
-0.017516
-0.010181
0.0035324
-0.005716
0.0003433
0.0038513
-0.0038025
-0.022618
-0.0028458
0.0073593
0.012143
0.054239
0.061255
0.068909
0.060936
0.052963
0.066039
0.085811
0.058704
0.045629
0.080709
0.059342
0.018521
-0.011137
0.014694
0.052645
0.044991
0.013419
-0.013689
-0.029634
-0.030272
-0.048769
-0.029953
-0.04558
-0.05132
-0.094373
-0.12595
-0.091503
-0.11638
-0.15784
-0.15465
-0.15879
-0.14604
-0.12371
-0.14699
-0.13009
-0.12371
-0.10298
-0.066628
-0.04845
-0.038883
-0.041753
-0.044942
-0.051001
-0.045899
-0.028996
-0.022618
-0.014645
0.0041702
-0.002208
0.022667
0.044353
0.023943
0.035423
0.024262
0.021391
0.069228
0.079114
0.023305
-0.0089051
2.4388e-05
0.011505
0.023305
-0.0028458
-0.049407
-0.05132
-0.011775
-0.020386
-0.026764
-0.034418
-0.027402
-0.061206
-0.042072
-0.0079484
-0.034737
-0.091503
-0.070774
-0.045899
-0.072049
-0.081617
-0.088952
-0.069179
-0.075876
-0.037926
-0.033142
-0.033142
-0.014964
-0.01337
0.0095917
0.028726
0.015651
-0.009224
-0.029953
-0.0079484
0.004808
-0.03091
-0.052596
-0.041753
-0.051001
-0.074919
-0.05419
-0.035694
-0.040477
-0.01911
-0.033461
-0.01337
0.01597
0.013419
-0.0028458
-0.0063538
0.0060837
0.011824
0.0016189
-0.0076295
-0.0079484
0.0028946
-0.012094
-0.0063538
0.020116
0.010548
0.0092728
0.0013
-0.0053971
-0.0025269
0.0089539
-0.00061343
0.019478
0.023305
-0.017516
-0.032823
-0.012094
-0.0066727
-0.015921
0.0022568
-0.044304
0.010548
0.016927
-0.01911
-0.033142
-0.030591
-0.029634
-0.049088
-0.061206
-0.082892
-0.076833
-0.087995
-0.090227
-0.084806
-0.081298
-0.091822
-0.070774
-0.055147
-0.04845
-0.032823
-0.023575
-0.0018891
0.019478
0.025218
0.0013
0.00098112
0.018202
0.026175
0.013419
-0.011456
-0.011456
0.013419
0.030002
0.025856
0.022667
0.0070404
0.0035324
-0.019429
-0.039202
-0.018153
0.03638
-0.050682
-0.077471
-0.03665
-0.025807
-0.033142
-0.040796
-0.069498
-0.074601
-0.015921
0.0073593
0.013738
0.045947
0.09793
0.088681
0.069228
0.08326
0.07752
0.067633
0.040845
0.059979
0.024262
0.025856
-0.012094
-0.045899
-0.02517
-0.0012513
-0.026764
-0.066628
-0.051958
-0.057061
-0.057379
-0.05419
-0.048131
-0.083211
-0.068222
-0.066628
-0.062482
-0.061525
-0.076195
-0.078746
-0.053871
-0.04271
-0.031548
-0.019429
-0.025807
-0.0105
0.0051269
0.0076782
0.02458
0.035742
-0.0015702
0.0041702
0.036699
0.0054459
-0.013051
0.0013
0.0028946
-0.0050782
0.023305
0.026175
0.017564
2.4388e-05
-0.0079484
-0.021024
-0.017197
-0.015283
0.0070404
-0.010181
-0.035694
-0.037288
-0.052915
-0.069817
-0.059612
-0.07173
-0.095011
-0.050044
-0.041753
-0.049407
-0.020386
-0.028996
-0.01911
0.015651
-0.010181
-0.035056
-0.018791
-0.0098618
-0.019429
-0.04845
2.4388e-05
0.033829
0.020754
0.035423
0.072098
0.10845
0.093465
0.09793
0.13429
0.077838
0.081984
0.12918
0.084854
0.066677
0.08326
0.05392
0.040207
0.016927
-0.017516
-0.027083
-0.01337
-0.023575
-0.042391
-0.036012
-0.033461
-0.017197
-0.041753
-0.039202
-0.032823
-0.054828
-0.052596
-0.034737
-0.056423
-0.06599
-0.056423
-0.067585
-0.071411
-0.018472
-0.02517
-0.044623
-0.029634
-0.021024
-0.010181
-0.052915
-0.021024
-0.044304
-0.065033
-0.08927
-0.057061
-0.084168
-0.085762
-0.088952
-0.062482
-0.043028
-0.018153
-0.0015702
0.0032135
0.046266
0.060617
0.04818
0.069228
0.096654
0.071779
0.056471
0.083579
0.048818
0.03351
0.081984
0.018202
-0.0031647
0.018202
0.014694
0.0051269
0.008316
0.028407
-0.0031647
-0.01337
0.015013
0.041483
0.019159
-0.012732
0.015332
0.019478
0.02458
0.025218
-0.0031647
-0.0069916
0.031915
0.03925
0.037656
0.032553
0.035423
0.033829
0.040526
0.053601
0.032234
0.020435
-0.022937
-0.051639
-0.064395
-0.031867
-0.034418
-0.064714
-0.08353
-0.069498
-0.021661
-0.02198
-0.027402
-0.026126
-0.012732
-0.00029452
0.0025757
-0.011775
-0.0105
0.025537
0.018521
0.019478
0.01597
0.015332
0.027132
0.035423
0.023943
-0.018153
0.013738
0.037018
0.043396
-0.00093234
-0.012413
0.014694
-0.024532
-0.03952
-0.011775
-0.071411
-0.096605
-0.084168
-0.067903
-0.059293
-0.027721
-0.016878
-0.038245
-0.044304
0.0095917
0.05679
0.058704
0.052963
0.044991
0.074649
0.081665
0.085492
0.080709
0.075606
0.066677
0.074012
0.044034
0.067314
0.074649
0.0054459
0.0028946
0.021391
0.032234
0.010867
-0.013689
-0.060887
-0.069179
-0.068222
-0.066947
-0.083849
-0.085762
-0.078427
-0.064077
-0.062801
-0.036331
-0.020067
-0.027083
-0.010819
0.0095917
0.011505
0.029045
0.047542
0.018202
0.011186
0.032553
0.026494
0.050093
0.035742
0.039569
0.036699
0.081665
0.074012
0.06572
0.069866
0.088681
0.081665
0.066677
0.072098
0.098886
0.019478
-0.012413
0.040207
-0.0015702
0.026494
0.024262
-0.010181
-0.044304
-0.01337
0.0025757
-0.012094
-0.002208
0.022348
0.043077
0.043396
0.046266
0.024262
0.022029
0.048499
0.044991
0.0070404
-0.0076295
-0.0038025
0.0022568
-0.012413
0.0054459
-0.00029452
-0.054509
-0.039202
0.03351
-0.012732
-0.019748
-0.024532
-0.090865
-0.10426
-0.062163
-0.064714
-0.078109
-0.082892
-0.075557
-0.06886
-0.038564
-0.03091
-0.028996
-0.026445
0.00098112
0.019797
0.026494
0.033191
0.045629
0.042439
0.043077
0.023305
0.026175
0.03638
0.043396
0.04531
0.031278
0.07433
0.068271
0.017883
0.021072
0.028088
0.056153
0.10367
0.075606
0.041164
0.020435
-0.0076295
-0.00061343
-0.010819
-0.0073105
0.0003433
-0.015921
-0.0034836
0.026813
0.023624
-0.012732
0.0025757
-0.002208
0.029045
0.067314
0.059979
0.030959
0.049137
0.062531
0.041164
0.026494
0.040845
0.041483
0.05392
0.069547
0.062531
0.063487
0.044672
0.05105
0.049137
0.026813
0.032234
0.051688
-0.028996
-0.040796
-0.0073105
-0.034418
-0.063439
-0.051958
-0.074919
-0.071093
-0.012732
-0.018791
-0.029953
-0.014327
-0.026126
-0.018472
-0.01624
0.0095917
-0.015283
-0.0105
-0.017516
-0.022937
-0.034737
-0.04271
-0.03952
-0.046218
-0.039202
-0.010181
0.028407
0.016927
0.033829
0.029045
0.017246
0.060936
0.073374
0.02458
0.013419
0.017564
-0.0034836
0.01884
0.043715
-0.036331
-0.042391
-0.019748
-0.009224
-0.009224
-0.027721
-0.015283
-0.0073105
-0.022299
0.0095917
0.022986
-0.017835
-0.030591
-0.027083
-0.035375
0.00066221
-0.012732
0.012462
0.010867
0.067952
0.098249
0.081665
0.062531
0.13205
0.1649
0.16777
0.15214
0.1665
0.16012
0.12695
0.1228
0.12185
0.12918
0.092189
0.077201
0.054877
0.058066
0.05392
0.0089539
0.025218
0.0041702
0.0057648
0.029364
0.031278
-0.049407
-0.046536
-0.055466
-0.053552
-0.051001
-0.068541
-0.080022
-0.073963
-0.075557
-0.067266
-0.057379
-0.072368
-0.047174
-0.027083
-0.035375
-0.023256
0.0025757
-0.022937
-0.024213
-0.0095429
-0.021343
-0.043985
-0.03665
-0.026764
-0.029315
-0.0063538
-0.022937
-0.0073105
-0.0089051
-0.014964
-0.0034836
0.0070404
0.0038513
-0.0079484
-0.014008
-0.039839
-0.029634
-0.054509
-0.02198
-0.012413
-0.022618
-0.032186
2.4388e-05
2.4388e-05
-0.019748
-0.0060349
0.042439
0.098249
0.13333
0.1177
0.09506
0.1244
0.14226
0.13205
0.13524
0.13269
0.18085
0.1649
0.1346
0.13588
0.16586
0.14034
0.085811
0.079752
0.078157
0.05105
0.044034
0.0038513
-0.0038025
-0.037607
-0.054828
-0.050044
-0.044942
-0.080341
-0.08927
-0.059612
-0.052915
-0.058017
-0.055147
-0.027721
-0.012094
-0.023256
-0.022618
-0.0105
-0.025488
-0.052915
-0.028359
-0.021661
-0.039839
-0.028359
-0.024213
-0.036012
-0.0069916
-0.0063538
-0.0063538
0.019797
0.024262
0.029364
0.043715
0.03064
-0.0015702
0.014375
0.011186
0.017246
-0.012413
-0.026126
-0.017516
-0.0031647
-0.02804
-0.0066727
-0.00029452
-0.068541
-0.025807
0.044353
0.052326
0.082941
0.07752
0.017883
0.0022568
0.035742
0.054239
0.04531
0.061255
0.07752
0.077838
0.076244
0.094422
0.11069
0.089319
0.076882
0.088044
0.063487
0.054877
0.077838
0.03925
0.041802
0.02171
-0.014964
-0.019748
-0.048131
-0.067903
-0.083849
-0.021024
-0.070455
-0.10745
-0.064395
-0.067585
-0.066628
-0.014645
-0.0079484
-0.034737
-0.036969
-0.03665
-0.026445
-0.019429
-0.0089051
0.0057648
0.011186
0.01023
0.046266
0.059661
0.039569
0.044034
0.064763
0.083579
0.094741
0.087406
0.043396
0.059023
0.082303
0.059023
0.041164
0.033829
0.029364
0.056471
0.064444
0.059023
0.058704
0.051369
0.069866
0.068271
0.05392
0.063806
0.072736
0.019797
0.0035324
0.01597
-0.031867
-0.013689
-0.018791
-0.068222
-0.043028
0.00066221
-0.062482
-0.074919
-0.070455
-0.064714
0.017883
0.026494
-0.017835
-0.020067
-0.002208
-0.016878
-0.0028458
-0.011775
0.01023
0.048818
0.052963
0.035104
0.083898
0.087406
0.092508
0.11196
0.11675
0.072736
0.10271
0.10718
0.084854
0.077838
0.07146
0.05105
0.008635
-0.0044404
-0.0069916
-0.032504
-0.04271
-0.043985
-0.0063538
-0.033142
-0.020067
-0.012413
-0.010181
-0.0034836
0.0025757
-0.023894
-0.01624
0.016608
-0.005716
0.0032135
-0.0060349
-0.018472
-0.0085862
0.037337
0.016608
-0.0060349
0.026175
0.03638
0.037337
0.036061
0.05105
0.061574
0.049774
0.020116
0.051369
0.040207
0.034467
0.036699
0.043715
0.053601
0.068271
0.062212
0.032234
0.029045
0.056153
-0.0028458
0.0099106
0.04531
-0.015283
-0.012094
-0.024213
-0.06599
-0.10904
-0.086719
-0.088633
-0.10235
-0.10203
-0.059931
-0.056104
-0.1049
-0.065033
-0.046218
0.011824
0.0016189
0.0054459
-0.0050782
-0.0028458
0.023943
0.026175
0.034467
0.044034
0.047542
0.060617
0.12185
0.1177
0.10782
0.091552
0.096973
0.12472
0.13492
0.14704
0.11834
0.097611
0.07752
0.081665
0.047223
0.052963
0.058704
0.008635
0.0099106
0.042439
0.042121
0.029364
0.043715
0.013738
0.015013
0.026175
0.027132
0.0038513
-0.0028458
-0.014964
-0.028678
-0.021343
-0.030591
-0.039202
-0.046218
-0.03665
0.0041702
-0.015283
-0.050682
0.0076782
0.029364
0.02777
0.012462
0.0073593
2.4388e-05
-0.0063538
-0.0038025
-0.02198
-0.012094
-0.022937
-0.034418
-0.047812
-0.029634
-0.042072
-0.040158
-0.039202
-0.014008
-0.029953
-0.011456
0.010548
-0.002208
-0.013689
-0.019748
0.00066221
0.012781
0.038931
0.027132
0.021391
0.040845
0.091552
0.088044
0.085173
0.066358
0.10303
0.11069
0.089
0.083898
0.070503
0.052963
0.03925
0.032234
0.01597
0.015013
0.0057648
-0.0069916
0.0003433
0.017564
0.027132
0.019478
0.035423
0.04531
0.059023
0.05392
0.064125
0.025218
0.038612
0.026175
0.011505
-0.019429
-0.0082673
-0.016559
-0.020705
-0.00061343
0.0019378
-0.01337
-0.038564
-0.033142
-0.017197
-0.011456
-0.0095429
0.037018
-0.032823
-0.043347
0.0035324
0.0038513
-0.0034836
-0.031867
-0.077152
-0.057379
-0.00061343
0.043715
0.022986
0.02458
0.018202
0.028088
0.03351
0.030002
0.037975
0.066039
0.036699
0.034786
0.0013
-0.023894
-0.027083
-0.025488
-0.0095429
0.040526
0.040526
0.023624
0.021072
0.015651
0.0038513
-0.01624
0.056153
0.050731
0.028726
0.028726
0.0070404
-0.013051
-0.026126
-0.0076295
-0.012732
0.0070404
0.0054459
0.022029
0.01597
0.032872
0.042758
0.028726
0.060298
0.084854
0.044991
0.054877
0.099524
0.077201
0.093784
0.077201
0.051688
0.029364
0.058385
0.066039
0.070185
0.068909
0.055834
0.047861
0.026175
0.0092728
0.008316
-0.0034836
-0.012094
-0.011456
-0.042072
-0.04845
-0.041115
-0.041753
-0.044304
-0.0060349
-0.014964
-0.03665
-0.036969
-0.021343
-0.017516
-0.02517
0.017883
0.0099106
-0.015921
-0.0082673
0.02171
-0.0034836
0.00098112
0.019797
0.060617
0.067952
0.10941
0.075925
0.062531
0.10718
0.14066
0.14258
0.13301
0.12121
0.047542
-0.0053971
0.019797
0.022348
-0.0034836
-0.042391
-0.091184
-0.083849
-0.059293
-0.080979
-0.070455
-0.081298
-0.075557
-0.057379
-0.053552
-0.032823
0.0016189
-0.019748
-0.01911
0.014375
-0.0095429
-0.0063538
0.017883
-0.0015702
-0.0031647
0.078795
0.059979
0.011824
0.035104
0.05679
0.05392
0.041802
0.056153
0.033829
0.026175
0.01884
-0.00061343
0.013419
0.029045
0.031278
0.0131
0.0038513
0.022986
0.047223
0.044034
0.055515
0.062531
0.063169
0.086449
0.10526
0.059979
0.050412
0.060617
0.0041702
-0.041115
-0.0079484
-0.0031647
-0.02198
-0.032504
-0.042072
-0.041753
-0.046855
-0.010181
-0.022299
-0.047493
-0.060887
-0.045261
-0.053234
-0.019748
0.008635
-0.05132
-0.033461
-0.017835
-0.026445
0.0025757
0.03638
0.043396
0.04531
0.076563
0.091233
0.064763
0.07752
0.090914
0.038612
0.060617
0.063806
0.081028
0.061255
0.030959
0.014694
0.0064026
-0.011456
-0.0018891
0.0032135
-0.03378
-0.0050782
0.00098112
-0.0012513
0.0041702
0.0041702
-0.038883
-0.036012
-0.040158
-0.040477
-0.052915
-0.063439
-0.060887
-0.065671
-0.035694
-0.01911
-0.01624
-0.038883
-0.02198
-0.0085862
-0.015921
-0.0034836
0.010867
-0.022299
-0.030591
-0.015921
-0.02517
-0.026445
-0.016878
-0.036331
-0.019748
0.01884
0.017564
0.020754
0.032553
0.05679
0.063806
0.068909
0.079114
0.063169
0.065401
0.050093
0.07433
0.063169
0.028407
0.029045
0.025537
0.022029
0.042121
0.033191
0.016927
0.03638
0.01884
0.021391
0.03064
0.02171
-0.021024
-0.021343
-0.0063538
-0.036012
-0.016878
0.0035324
-0.015283
-0.018153
-0.022618
0.0099106
0.082941
0.088362
0.064444
0.041483
0.022986
0.043077
0.079114
0.055196
0.039888
0.03638
0.00098112
-0.0089051
-0.031867
-0.055147
-0.08066
-0.032504
-0.045899
-0.059612
-0.050682
-0.046536
-0.052277
-0.058655
-0.043028
-0.011775
-0.031229
-0.05132
-0.053234
-0.05132
-0.046536
-0.037607
-0.04558
-0.031229
0.0095917
-0.00061343
0.0028946
0.028088
0.033191
0.037337
0.069547
0.075925
0.044991
0.043715
0.028726
0.011186
0.026813
0.029045
0.033829
-0.0012513
0.033829
0.022348
0.03925
0.031915
0.017246
0.041164
0.029683
0.054558
0.087087
0.030002
0.021391
0.055196
0.022667
0.029683
0.033829
0.039569
0.03064
0.034467
0.040845
0.036699
0.033829
0.065401
0.073374
0.032872
0.029364
0.037018
0.017564
0.0060837
-0.0031647
-0.04558
-0.041753
-0.031548
-0.049407
-0.029634
0.02458
0.0076782
-0.030272
-0.043985
0.011824
0.037656
0.028088
0.021391
0.01597
-0.0018891
-0.0073105
-0.00029452
0.0054459
-0.024851
-0.040477
-0.042391
-0.043347
-0.0038025
-0.0044404
-0.02198
-0.014964
-0.0015702
-0.002208
0.013419
0.037337
0.0019378
0.0028946
0.01597
0.0003433
-0.0047593
-0.0066727
-0.025488
-0.02198
0.0016189
-0.0050782
0.00066221
-0.0015702
0.0095917
0.019478
0.011824
0.010548
0.021391
-0.0034836
-0.014964
0.0051269
-0.017516
-0.017197
0.01023
-0.0095429
-0.0050782
0.058385
0.07433
0.082303
0.088681
0.10622
0.11738
0.12249
0.11675
0.083579
0.083898
0.098568
0.12376
0.070503
0.060617
0.05105
0.016289
-0.011775
-0.01624
0.05105
0.020435
-0.011775
-0.012413
-0.020067
-0.025488
-0.00093234
-0.041434
-0.017516
0.008635
-0.011137
-0.046218
-0.037288
-0.033461
-0.043985
-0.071411
-0.033461
-0.02198
-0.012094
0.0013
-0.0063538
-0.043028
-0.029634
-0.026445
-0.071093
-0.068222
-0.04558
-0.078746
-0.090546
-0.09246
-0.10904
-0.11223
-0.055785
-0.055466
-0.066947
-0.060569
-0.041434
-0.024851
-0.0105
-0.002208
0.0099106
0.0013
-0.012732
0.0044891
0.0067215
0.01884
0.023943
0.015651
0.014375
0.047223
0.055834
0.044672
0.058385
0.059979
0.070503
0.075287
0.080071
0.05105
0.047542
0.051688
0.049137
0.035104
0.03351
0.013738
0.016927
0.017564
0.035104
0.057109
0.022029
0.039569
0.047861
0.043077
0.059661
0.081028
0.055196
0.011824
0.0099106
-0.015921
0.0131
0.020754
-0.0028458
-0.0018891
0.033829
0.020754
0.022348
0.031278
0.040526
0.05105
0.040526
0.038931
0.036699
0.018521
2.4388e-05
0.020435
0.0041702
-0.011775
-0.021343
-0.023894
-0.048769
-0.041753
-0.050682
-0.074282
-0.059931
-0.040477
-0.04271
-0.03091
-0.035375
-0.078746
-0.071093
-0.06599
-0.061525
-0.067585
-0.073006
-0.084168
-0.083849
-0.053871
-0.036012
-0.03378
-0.047812
-0.027721
-0.012732
-0.017197
-0.00029452
0.015332
-0.02198
-0.01624
0.00066221
-0.017197
-0.021024
-0.015921
-0.021661
-0.019429
0.01023
0.0054459
0.011824
0.014694
0.027132
0.038612
0.031596
0.042758
0.05105
0.033191
0.019797
0.038612
0.028407
0.032872
0.05679
0.046904
0.052007
0.09506
0.081028
0.064444
0.096016
0.10112
0.12631
0.13524
0.11132
0.080071
0.082622
0.062212
0.044991
0.01884
0.019797
0.020754
0.008635
-0.011775
-0.005716
0.0025757
-0.0066727
0.026494
0.021391
0.0064026
0.02458
0.023943
-0.021661
-0.020705
-0.010181
-0.011775
-0.028678
-0.021661
-0.04271
-0.059612
-0.050682
-0.065671
-0.040796
-0.047493
-0.048769
-0.041753
-0.041434
-0.04271
-0.030591
-0.049088
-0.056742
-0.04845
-0.057698
-0.055785
-0.059293
-0.071411
-0.062482
-0.012413
-0.017197
-0.032504
-0.02804
-0.010819
0.0067215
0.0131
0.020435
0.012462
0.0013
-0.0063538
0.00066221
-0.0069916
-0.0079484
-0.0066727
-0.0079484
-0.01337
0.017246
0.024899
0.016927
0.027132
0.026175
0.024899
0.044991
0.051688
0.0035324
0.0089539
0.029045
0.015013
0.0003433
-0.0047593
-0.011775
-0.0031647
0.004808
0.0076782
0.018202
0.0095917
0.020754
0.038612
0.027132
0.035104
0.048499
0.008635
0.0057648
0.022348
-0.0041214
-0.010819
-0.0069916
-0.032504
-0.026126
0.011824
0.0051269
-0.0025269
-0.0031647
0.014694
0.024899
0.027451
0.032553
0.027451
0.01884
0.014375
0.022348
0.012781
0.014056
0.011824
0.0057648
0.0044891
0.033191
0.044353
0.028407
0.037337
0.046585
0.052963
0.082622
0.088362
0.036061
0.046904
0.066039
0.051688
0.040845
0.038612
0.032234
0.03351
0.037975
0.043077
0.034786
0.034786
0.046266
0.031596
-0.005716
-0.013051
0.026175
-0.0098618
-0.030272
-0.022937
-0.047812
-0.060569
-0.062482
-0.069498
-0.071411
-0.035375
-0.037926
-0.039202
-0.035694
-0.023256
-0.0085862
-0.0073105
-0.00029452
0.0044891
-0.0085862
-0.01911
-0.0066727
-0.019748
-0.022299
-0.014964
-0.023256
-0.027083
0.013419
0.015651
-0.0018891
0.010867
0.019797
0.027451
0.038931
0.042121
0.014694
0.020116
0.019478
0.012781
2.4388e-05
0.00066221
0.0041702
0.0003433
-0.002208
0.013419
0.027451
0.015013
0.029683
0.035423
0.031596
0.044034
0.058704
0.017564
0.020754
0.033829
0.019478
0.0079971
-0.0018891
-0.015921
0.00066221
0.037337
0.021072
0.020435
0.014056
0.026175
0.035104
0.028726
0.034467
0.044353
0.020116
0.0038513
0.019159
0.0038513
0.0028946
-0.0012513
-0.011456
-0.012413
0.028088
0.027451
0.013419
0.016289
0.026175
0.035742
0.048499
0.048818
0.022986
0.023305
0.021072
0.021391
0.0057648
0.0025757
0.004808
0.0003433
-0.0018891
0.020754
0.037018
0.021072
0.032553
0.037656
0.034467
0.046266
0.057747
0.014056
0.023305
0.041483
0.02171
0.012143
0.0095917
-0.00061343
0.0028946
0.023305
0.022029
0.027132
0.023943
0.037337
0.046904
0.037975
0.044034
0.058385
0.029364
0.021391
0.036699
0.016289
0.015013
0.02171
0.0016189
-0.0038025
0.037975
0.042121
0.028726
0.02777
0.040526
0.049455
0.052007
0.049455
0.041164
0.037337
0.025856
0.025537
0.0073593
0.0076782
0.011505
-0.0028458
0.00066221
0.033829
0.036699
0.0095917
0.029364
0.043396
0.040845
0.055834
0.057747
0.0041702
0.01884
0.042758
0.027132
0.01884
0.010548
-0.005716
-0.0050782
0.015013
0.023624
0.034467
0.019797
0.028726
0.040207
0.030002
0.041802
0.055196
0.019797
0.013419
0.030002
0.010548
0.0003433
0.0057648
-0.0050782
-0.0073105
0.032234
0.02458
0.014375
0.017246
0.030959
0.044034
0.044034
0.041802
0.038294
0.029045
0.016289
0.020754
0.0079971
0.0051269
0.01023
-0.0034836
-0.0095429
0.026813
0.032234
0.01023
0.021391
0.029045
0.034148
0.043077
0.049137
0.0089539
0.0131
0.02458
0.01597
0.0022568
-0.0053971
-0.0079484
-0.0050782
-0.00029452
0.0131
0.023305
0.0095917
0.025218
0.036061
0.022986
0.031915
0.048818
0.012781
0.0095917
0.027451
0.0079971
0.00098112
-0.00061343
-0.012094
-0.0105
0.029364
0.021072
0.012143
0.0092728
0.022348
0.039888
0.035104
0.033191
0.044672
0.021391
2.4388e-05
0.010867
-0.00061343
-0.00061343
0.0038513
-0.010181
-0.015921
0.022348
0.024899
0.0051269
0.014694
0.01597
0.029683
0.040526
0.051688
0.011824
0.015651
0.018202
0.0099106
0.0003433
-0.0015702
-0.005716
-0.012413
-0.0066727
0.016608
0.025856
0.0067215
0.020435
0.030321
0.022986
0.034786
0.049455
0.0044891
0.0022568
0.02171
0.0044891
-0.0018891
-0.0063538
-0.017516
-0.01337
0.015332
0.011505
0.011186
0.0057648
0.021391
0.031915
0.026175
0.032553
0.040526
0.017883
0.0044891
0.018521
0.0022568
-0.0038025
-0.0015702
-0.013689
-0.01624
0.03064
0.025218
0.0054459
0.010548
0.024262
0.034148
0.040845
0.039888
0.01884
0.016927
0.011824
0.0079971
-0.0031647
-0.0041214
-0.005716
-0.011775
-0.015283
0.0095917
0.017883
-0.00029452
0.014375
0.020116
0.01597
0.029683
0.040526
-0.0053971
-0.002208
0.014375
-0.0028458
-0.0079484
-0.012413
-0.022299
-0.01911
-0.002208
0.0070404
0.013419
-0.00093234
0.012143
0.026813
0.018202
0.028726
0.04531
0.012143
0.00098112
0.02458
-0.002208
-0.0079484
-0.011775
-0.014645
-0.01337
0.028726
0.017883
0.0035324
0.0099106
0.020435
0.026494
0.034786
0.037656
0.021391
0.016927
0.01023
0.008635
-0.002208
-0.0050782
0.0003433
-0.009224
-0.014964
0.015013
0.022986
0.0025757
0.016927
0.02458
0.024899
0.035423
0.045629
0.0019378
0.004808
0.020116
0.0073593
-0.002208
-0.0063538
-0.014645
-0.014964
-0.00061343
0.008316
0.014694
0.0038513
0.01884
0.028407
0.020435
0.029683
0.042758
0.0064026
-0.00061343
0.018521
-0.00061343
-0.0060349
-0.009224
-0.017835
-0.017197
0.020754
0.01597
0.0057648
0.0060837
0.019159
0.03064
0.030002
0.031915
0.028407
0.015013
0.0025757
0.011186
-0.0044404
-0.0095429
-0.005716
-0.015283
-0.020705
0.014056
0.016289
-0.0025269
0.008316
0.014694
0.017246
0.03351
0.035104
-0.0047593
2.4388e-05
0.0095917
-0.00093234
-0.0105
-0.013051
-0.020386
-0.019748
-0.010819
0.0019378
0.011824
-0.0018891
0.014694
0.02458
0.014375
0.025856
0.042439
0.0016189
-0.00093234
0.017246
-0.0012513
-0.009224
-0.010181
-0.020705
-0.019748
0.015332
0.01023
0.0057648
2.4388e-05
0.017564
0.029683
0.022986
0.028407
0.030002
0.0089539
-0.00061343
0.010548
-0.0018891
-0.0079484
-0.0085862
-0.019748
-0.022618
0.021072
0.015651
-0.0034836
0.0044891
0.014694
0.022986
0.029045
0.032872
0.0003433
-0.00093234
0.0038513
-0.0015702
-0.014327
-0.017516
-0.01911
-0.022937
-0.022618
-0.0047593
0.0070404
-0.0098618
0.0054459
0.013738
0.0073593
0.019159
0.032872
-0.0098618
-0.012413
0.008316
-0.0073105
-0.015921
-0.020705
-0.032186
-0.027402
0.0016189
-0.00061343
-0.0015702
-0.0073105
0.0073593
0.017246
0.010548
0.020435
0.027451
0.00066221
-0.012413
0.0025757
-0.012094
-0.020386
-0.017197
-0.028359
-0.027083
0.011824
0.0060837
-0.0105
-0.0044404
0.008316
0.021072
0.022986
0.023943
0.0032135
0.0019378
-0.00029452
-0.00093234
-0.014327
-0.017197
-0.01624
-0.02198
-0.024213
2.4388e-05
0.008635
-0.0085862
0.0067215
0.0131
0.010867
0.022348
0.035742
-0.011456
-0.0082673
0.0095917
-0.002208
-0.013051
-0.018153
-0.027402
-0.024213
-0.0015702
-0.0012513
0.0044891
-0.0047593
0.010867
0.021391
0.0131
0.022986
0.033829
0.00066221
-0.0066727
0.012143
-0.0069916
-0.011775
-0.011775
-0.023256
-0.026445
0.016289
0.011505
-0.0015702
0.00066221
0.012781
0.022667
0.02777
0.028726
0.013419
0.0079971
-0.00061343
0.0051269
-0.0085862
-0.014008
-0.011775
-0.018472
-0.022299
0.0070404
0.017246
-0.0044404
0.008316
0.015332
0.015013
0.02777
0.038294
-0.005716
-0.0031647
0.0131
-0.00093234
-0.011775
-0.014008
-0.021343
-0.018153
-0.005716
2.4388e-05
0.0092728
-0.0018891
0.0131
0.023943
0.0131
0.023624
0.037656
0.0032135
-0.005716
0.013419
-0.0031647
-0.0095429
-0.012732
-0.023894
-0.024213
0.014694
0.011505
0.0013
-0.00029452
0.0076782
0.02458
0.025537
0.025537
0.020754
0.0073593
-0.0038025
0.0019378
-0.01337
-0.016559
-0.014645
-0.024532
-0.029634
0.0051269
0.0070404
-0.0085862
2.4388e-05
0.0035324
0.012143
0.022029
0.027132
-0.011456
-0.0079484
0.00098112
-0.0076295
-0.01911
-0.022299
-0.02517
-0.026764
-0.02198
-0.0073105
0.0038513
-0.010819
0.004808
0.012781
0.0054459
0.017883
0.032234
-0.0098618
-0.01337
0.008316
-0.0095429
-0.014645
-0.018153
-0.031548
-0.027083
0.008316
0.0032135
-0.0012513
-0.0028458
0.0099106
0.021391
0.017564
0.024899
0.02777
0.0060837
-0.0038025
0.0070404
-0.0085862
-0.012732
-0.009224
-0.019429
-0.024213
0.016289
0.014375
-0.0031647
0.0054459
0.015651
0.022029
0.031278
0.032553
0.0025757
0.0051269
0.008316
0.0019378
-0.0095429
-0.012413
-0.014008
-0.017197
-0.016559
0.0054459
0.014375
-0.0028458
0.015013
0.023624
0.016289
0.028407
0.042439
-0.00093234
-0.0015702
0.018202
0.0041702
-0.0041214
-0.0079484
-0.018791
-0.015921
0.013738
0.012462
0.013419
0.0070404
0.020754
0.033191
0.025856
0.031915
0.041483
0.015332
0.0032135
0.018202
0.0022568
-0.0044404
-0.0041214
-0.014645
-0.019748
0.024899
0.021391
0.0025757
0.0089539
0.017883
0.028407
0.035104
0.036699
0.013738
0.011505
0.0076782
0.0054459
-0.0073105
-0.0098618
-0.0085862
-0.015283
-0.018791
0.0076782
0.016289
-0.0034836
0.012781
0.017246
0.014694
0.022029
0.03638
-0.0073105
0.0038513
0.018521
-0.0050782
-0.011456
-0.017516
-0.023256
-0.018153
0.0025757
0.0022568
0.0076782
0.0013
0.015332
0.026175
0.016289
0.02777
0.038294
0.0060837
-0.0028458
0.014375
-0.002208
-0.0076295
-0.009224
-0.019748
-0.021343
0.022029
0.015651
0.0035324
0.004808
0.016608
0.027451
0.030959
0.032553
0.02171
0.0131
0.0051269
0.0092728
-0.0050782
-0.0089051
-0.0060349
-0.014008
-0.018153
0.013738
0.017564
-0.0015702
0.012781
0.019478
0.020754
0.034467
0.041483
-0.0018891
0.0019378
0.014694
0.0025757
-0.0060349
-0.009224
-0.017197
-0.014964
-0.0044404
0.0057648
0.015013
0.0016189
0.017564
0.02777
0.017883
0.02777
0.041802
0.0060837
-0.00061343
0.019159
0.00098112
-0.005716
-0.0076295
-0.018791
-0.018791
0.02171
0.015651
0.0064026
0.0060837
0.017883
0.031278
0.028726
0.032553
0.028726
0.016289
0.0041702
0.0099106
-0.0041214
-0.0073105
-0.0047593
-0.01337
-0.018153
0.017246
0.018202
-0.00093234
0.016289
0.019797
0.022348
0.037018
0.042758
0.0070404
0.010867
0.015651
0.008635
-0.0038025
-0.0038025
-0.0105
-0.0089051
-0.005716
0.01023
0.020754
0.0044891
0.020754
0.025218
0.01884
0.033829
0.04531
0.0028946
2.4388e-05
0.020116
0.0028946
-0.0047593
-0.0076295
-0.020067
-0.018153
0.017564
0.012781
0.0064026
0.0044891
0.017246
0.02777
0.024262
0.029683
0.032553
0.012143
-0.00061343
0.012462
-0.0034836
-0.0095429
-0.0060349
-0.015921
-0.019429
0.021072
0.018521
-0.00029452
0.0095917
0.017246
0.026494
0.034786
0.035104
0.010867
0.0089539
0.0095917
0.0070404
-0.0044404
-0.009224
-0.0095429
-0.014327
-0.014645
0.0073593
0.017564
-0.00093234
0.014694
0.022986
0.016289
0.028407
0.041164
-0.0012513
-0.002208
0.01597
0.00098112
-0.0073105
-0.010181
-0.02198
-0.018791
0.008635
0.0076782
0.0076782
0.0013
0.016608
0.027132
0.020116
0.027132
0.036699
0.0095917
-0.0018891
0.013419
-0.0015702
-0.0069916
-0.0085862
-0.019429
-0.021343
0.020435
0.019159
0.0054459
0.0051269
0.014375
0.025537
0.034786
0.034786
0.015013
0.0095917
0.0057648
0.008316
-0.005716
-0.010181
-0.0085862
-0.014645
-0.019429
0.0095917
0.01597
-0.0012513
0.012781
0.019159
0.018521
0.03064
0.041164
-0.0047593
-0.002208
0.01597
0.0028946
-0.005716
-0.0095429
-0.019748
-0.018791
2.4388e-05
0.008635
0.013738
0.0028946
0.017564
0.028088
0.020116
0.027451
0.042121
0.01023
0.0003433
0.017564
0.00066221
-0.0060349
-0.0044404
-0.017516
-0.019429
0.02458
0.018202
0.0051269
0.0076782
0.017883
0.029364
0.03351
0.033191
0.024899
0.015332
0.0051269
0.010867
-0.0034836
-0.0079484
-0.0050782
-0.01337
-0.017835
0.01597
0.01884
0.0003433
0.014056
0.019159
0.021391
0.032553
0.037975
-0.0015702
0.0044891
0.016608
0.0038513
-0.0060349
-0.0085862
-0.015283
-0.017197
-0.0034836
0.0051269
0.01597
0.0025757
0.01884
0.028407
0.017883
0.030002
0.043077
0.0060837
0.0003433
0.017564
0.0022568
-0.002208
-0.005716
-0.020067
-0.017835
0.023624
0.016608
0.0070404
0.0073593
0.01884
0.027451
0.03064
0.038612
0.033191
0.017246
0.0041702
0.0131
0.0003433
-0.0044404
2.4388e-05
-0.0105
-0.016878
0.021072
0.022348
0.0028946
0.013738
0.020116
0.028726
0.039888
0.042121
0.0032135
0.0092728
0.014056
0.0095917
-0.0012513
-0.0060349
-0.011775
-0.012413
-0.0073105
0.0070404
0.019797
0.0044891
0.017883
0.028726
0.01884
0.033191
0.047861
0.0041702
0.0003433
0.022029
0.0057648
-0.0012513
-0.0047593
-0.018153
-0.014645
0.020116
0.015013
0.010867
0.0073593
0.021391
0.032234
0.027451
0.035742
0.042439
0.017564
0.0067215
0.019159
0.0028946
-0.0025269
0.0022568
-0.0095429
-0.011775
0.031596
0.026813
0.010548
0.015013
0.023943
0.03638
0.04531
0.044353
0.019159
0.018202
0.020116
0.017246
0.0051269
-0.00061343
2.4388e-05
-0.0038025
-0.0041214
0.017883
0.028407
0.010548
0.025856
0.03351
0.028407
0.039888
0.053282
0.0095917
0.010548
0.028726
0.014694
0.0067215
0.0025757
-0.0098618
-0.0069916
0.021391
0.020754
0.022348
0.01597
0.028407
0.041164
0.033829
0.042439
0.052326
0.023624
0.0131
0.02777
0.0131
0.0054459
0.0076782
-0.0041214
-0.0063538
0.035423
0.031915
0.01597
0.020435
0.030002
0.040207
0.047223
0.047861
0.028726
0.028088
0.019797
0.023943
0.0076782
0.0057648
0.0060837
2.4388e-05
-0.002208
0.025218
0.032553
0.013738
0.026813
0.03351
0.032234
0.044672
0.055834
0.011824
0.0131
0.028726
0.017883
0.0076782
0.0041702
-0.0060349
-0.0031647
0.013738
0.019159
0.027132
0.017883
0.030959
0.041164
0.030959
0.040845
0.055196
0.022029
0.013419
0.031915
0.014375
0.008316
0.0060837
-0.0050782
-0.0060349
0.035423
0.029045
0.018202
0.019478
0.029683
0.041483
0.04531
0.046904
0.037975
0.028726
0.01884
0.023943
0.0089539
0.0057648
0.010548
0.00098112
-0.0031647
0.03064
0.034467
0.015651
0.02777
0.034786
0.03638
0.049137
0.056153
0.016289
0.018202
0.027451
0.020116
0.0092728
0.0060837
0.0003433
-0.002208
0.008316
0.020754
0.028407
0.01597
0.031915
0.040207
0.030002
0.043715
0.057109
0.017883
0.014375
0.033191
0.017246
0.0095917
0.0067215
-0.0053971
-0.0047593
0.035104
0.02777
0.02171
0.019159
0.031278
0.043077
0.040845
0.044353
0.045947
0.028407
0.01597
0.023943
0.011505
0.0051269
0.008635
-0.00061343
-0.0066727
0.031915
0.03351
0.015013
0.023943
0.032234
0.036699
0.048499
0.052963
0.020435
0.022029
0.026494
0.020754
0.01023
0.0076782
0.0051269
0.0032135
0.0054459
0.023624
0.034786
0.016927
0.032872
0.043396
0.035104
0.046585
0.060936
0.019797
0.016927
0.036061
0.021391
0.014375
0.01023
-0.00093234
0.00098112
0.033829
0.03064
0.028407
0.024899
0.037975
0.050731
0.04531
0.050412
0.057747
0.03638
0.021391
0.03638
0.022029
0.01597
0.01884
0.0067215
0.0038513
0.045629
0.041483
0.026813
0.032553
0.042758
0.051688
0.060298
0.06285
0.035742
0.034467
0.034467
0.032234
0.018202
0.0131
0.01597
0.010548
0.0070404
0.029683
0.037975
0.020435
0.030321
0.042121
0.03638
0.049455
0.061574
0.017564
0.02171
0.039569
0.026813
0.018521
0.014694
0.0054459
0.0095917
0.037018
0.038612
0.043715
0.036699
0.05679
0.062212
0.054558
0.067314
0.076563
0.044353
0.038931
0.050412
0.031596
0.025537
0.024899
0.014694
0.004808
0.049455
0.041164
0.027451
0.035742
0.045629
0.052007
0.055196
0.052963
0.041802
0.040526
0.03064
0.03638
0.022667
0.020116
0.016608
0.0051269
0.0013
0.026813
0.036061
0.017246
0.024262
0.027132
0.024262
0.035104
0.044991
0.00066221
0.0057648
0.025856
0.015651
0.0079971
0.0073593
0.0016189
0.0060837
0.031278
0.040526
0.050093
0.035742
0.058704
0.08039
0.067314
0.078476
0.090595
0.061255
0.049455
0.067952
0.045629
0.037975
0.041802
0.025218
0.022986
0.064125
0.055196
0.04531
0.037018
0.042758
0.05679
0.067314
0.063806
0.054558
0.040845
0.035742
0.051369
0.046266
0.038294
0.02777
0.028407
0.030002
0.065401
0.069228
0.050093
0.05679
0.060936
0.067314
0.083579
0.088362
0.041164
0.046585
0.05392
0.042439
0.043715
0.044034
0.030002
0.013738
0.016608
0.046904
0.058704
0.032553
0.036061
0.052645
0.042439
0.05105
0.07146
0.024899
0.01023
0.018521
-0.0047593
-0.014008
-0.016878
-0.024851
-0.024213
0.0095917
-0.005716
-0.010181
-0.0105
0.010867
0.032872
0.015651
0.021391
0.038612
0.012781
0.021072
0.040207
0.042439
0.049455
0.052007
0.039888
0.04818
0.089638
0.09793
0.079752
0.088681
0.11419
0.12057
0.1177
0.12249
0.089638
0.089
0.092189
0.073055
0.070503
0.061574
0.059023
0.051688
0.047542
0.057747
0.07146
0.070503
0.084854
0.085811
0.073374
0.089638
0.10335
0.061574
0.064763
0.084217
0.071779
0.064444
0.061255
0.044034
0.038612
0.07433
0.068271
0.061574
0.057747
0.07146
0.076882
0.063487
0.063806
0.071779
0.04531
0.03638
0.04531
0.018521
0.010867
0.00066221
0.0038513
0.0070404
0.030002
0.014375
-0.018472
-0.0063538
0.0035324
0.01023
0.022986
0.012143
-0.031548
-0.030591
-0.029953
-0.035694
-0.04271
-0.040796
-0.010819
-0.026764
-0.058336
-0.033142
-0.0028458
-0.0073105
0.021072
0.03925
0.02777
0.037018
0.045629
0.004808
-0.0069916
0.017564
-0.00029452
-0.012094
-0.043347
-0.050044
-0.013689
0.0022568
-0.011456
-0.017516
-0.030272
-0.010181
0.020116
-0.002208
0.014694
0.025856
0.012143
-0.0066727
0.014694
0.011505
0.0079971
-0.014964
-0.041115
-0.018791
0.044034
0.041483
0.034467
0.020116
0.019159
0.03064
0.043077
0.06572
0.049137
0.021391
0.018521
0.023624
0.015013
0.014375
0.018521
0.010548
-0.01624
0.0016189
0.0079971
0.0003433
0.01023
0.019159
0.024899
0.03064
0.041802
-0.0025269
-0.0015702
0.01023
-0.0028458
-0.017516
-0.018472
-0.023894
-0.035056
-0.021343
-0.014645
-0.013051
-0.013051
-0.013689
0.0019378
-0.013051
-0.0012513
0.017564
-0.014327
-0.00093234
0.015013
0.0064026
0.0079971
-0.010819
-0.017835
-0.029634
-0.0085862
0.022667
0.012143
-0.0085862
-0.022299
-0.036969
-0.039202
-0.040158
-0.036331
-0.039202
-0.066947
-0.06599
-0.082892
-0.096924
-0.057379
-0.055466
-0.052915
-0.0031647
0.014694
-0.016878
0.0067215
0.0051269
0.0041702
0.0064026
0.0073593
-0.031229
-0.046855
-0.031548
-0.038245
-0.077152
-0.10139
-0.087357
-0.10713
-0.10107
-0.061525
-0.013689
-0.0012513
0.017246
0.016289
0.01884
0.055834
0.12504
0.10686
0.11962
0.11738
0.082622
0.10239
0.090276
0.044672
0.053601
0.09187
0.044353
0.055515
0.044991
0.01884
0.011505
-0.0015702
0.032234
0.0028946
-0.036012
-0.053234
-0.041434
-0.032504
-0.054509
-0.039839
-0.047812
-0.052277
-0.015283
-0.030272
-0.057698
-0.03952
-0.04558
-0.046536
-0.038883
-0.024851
-0.082254
-0.073963
-0.049407
-0.085443
-0.10809
-0.093097
-0.09246
-0.11957
-0.094054
-0.09533
-0.10235
-0.10011
-0.082892
-0.058655
-0.058336
-0.023575
-0.0025269
-0.056742
-0.051639
-0.0018891
-0.0066727
-0.019748
0.010548
0.014375
0.02777
0.060936
0.065082
0.10622
0.084217
0.08039
0.10144
0.084536
0.076882
0.097611
0.059023
0.012143
0.038294
-0.00061343
-0.017197
-0.032186
-0.052915
-0.042391
-0.028678
-0.022299
-0.036969
-0.021343
-0.0034836
0.030321
0.066677
0.059661
0.031915
0.037975
0.03925
0.042439
0.01597
0.039888
0.014056
0.037337
0.017564
0.013738
0.031915
0.0038513
0.018521
-0.014964
-0.011775
-0.0076295
0.0060837
-0.036969
-0.025488
-0.0079484
-0.036331
-0.032504
-0.081935
-0.055147
-0.029953
-0.024851
-0.067903
-0.029953
-0.021661
-0.054828
-0.054509
-0.080979
-0.067585
-0.065671
-0.12754
-0.11893
-0.079703
-0.081935
-0.13519
-0.16868
-0.15943
-0.15369
-0.097243
-0.061844
-0.071093
-0.061525
-0.012094
0.016608
0.014694
0.0099106
0.029045
0.040207
0.010867
0.028088
0.038931
0.035104
0.058066
0.033829
0.004808
0.041164
0.04531
0.019159
0.028407
0.042439
0.03925
0.038612
0.040526
0.0070404
0.0099106
0.036699
0.015013
0.034786
0.055834
0.019797
0.012143
-0.0015702
0.0044891
0.031278
0.017883
0.044353
0.087725
0.011824
-0.028996
-0.014327
-0.0076295
0.0032135
-0.046536
-0.043347
-0.072049
-0.10107
-0.05419
-0.036969
0.0025757
-0.051639
-0.072049
-0.041115
-0.024532
-0.034737
-0.020386
0.015332
0.014056
-0.019429
-0.036331
-0.024851
-0.030272
-0.027721
-0.02198
-0.074282
-0.091503
-0.058655
-0.023894
-0.016878
-0.018472
-0.04271
-0.068222
-0.026126
-0.053552
-0.10936
-0.090227
-0.057698
-0.044942
-0.10777
-0.1049
-0.059612
-0.06312
-0.066947
-0.046855
-0.029953
-0.043347
0.018521
-0.002208
-0.01337
-0.014008
-0.005716
-0.025807
-0.0063538
0.020435
-0.032823
-0.03665
-0.031229
-0.036012
-0.028678
0.011824
0.01597
0.025218
0.019797
0.022986
0.053601
0.059023
0.064125
0.078157
0.031596
0.043077
0.059342
0.037337
0.013419
-0.0085862
-0.00061343
0.046266
0.086768
0.097611
0.065082
0.092508
0.082941
0.075606
0.12408
0.1295
0.057109
0.058066
0.073374
0.023305
-0.025488
-0.030591
-0.073963
-0.13774
-0.14859
-0.10872
-0.11542
-0.16517
-0.16453
-0.13806
-0.08066
-0.051958
-0.070455
-0.099794
-0.056742
-0.00093234
0.013738
0.036699
0.10399
0.077201
0.018521
0.060936
0.066358
0.091233
0.062531
0.033829
0.013738
-0.0098618
-0.063758
-0.078427
-0.067903
-0.097243
-0.094692
-0.11478
-0.14827
-0.13169
-0.084806
-0.10617
-0.081617
-0.073963
-0.054509
-0.03378
-0.018472
0.0022568
0.014375
0.014056
0.0054459
-0.0066727
-0.018472
-0.039839
-0.067585
-0.058974
-0.069179
-0.073963
-0.077152
-0.059293
-0.042391
-0.070774
-0.041753
-0.031548
-0.036012
-0.044304
-0.011137
-0.026764
-0.017516
-0.005716
-0.030591
-0.037607
-0.034099
-0.035375
-0.03091
-0.014327
0.01023
0.029364
0.014056
0.015013
0.041164
0.086449
0.097611
0.14385
0.18276
0.14991
0.18659
0.17511
0.17096
0.19073
0.19902
0.17734
0.22581
0.20189
0.15055
0.11451
0.081346
0.021391
-0.061525
-0.034418
-0.066628
-0.082573
-0.09246
-0.12595
-0.19929
-0.18941
-0.21843
-0.21141
-0.18462
-0.12435
-0.11351
-0.13328
-0.069498
-0.065352
-0.055785
-0.075557
-0.039839
-0.095968
-0.11989
-0.14317
-0.12563
-0.12913
-0.16358
-0.17538
-0.18718
-0.19164
-0.21237
-0.17952
-0.17091
-0.11351
-0.074282
-0.097562
-0.11128
-0.053552
-0.059612
-0.043347
0.018202
0.024262
0.029683
0.040207
0.03351
0.047542
0.10303
0.11515
0.11037
0.11515
0.11356
0.13811
0.1362
0.12886
0.12249
0.11292
0.11419
0.11515
0.088044
0.06285
0.059661
0.062531
0.060298
0.10239
0.11675
0.074968
0.062531
0.089638
0.08326
0.066677
0.094103
0.064125
0.059342
0.039569
0.01597
0.027132
0.0067215
-0.009224
-0.048769
-0.11032
-0.081935
-0.010181
-0.038564
-0.10553
-0.11223
-0.044304
0.00098112
-0.033142
-0.09246
-0.11223
-0.094692
-0.11989
-0.12467
-0.087676
-0.08353
-0.09246
-0.051001
-0.037288
-0.070136
-0.06025
-0.038245
0.004808
0.022348
-0.0076295
0.00098112
0.042439
0.038294
0.042439
0.011824
-0.013051
0.01884
0.0032135
-0.02517
0.022986
0.0016189
-0.061206
-0.031867
-0.027721
-0.040796
-0.038564
-0.052915
-0.077152
-0.092141
-0.089589
-0.077471
-0.0864
-0.084806
-0.08066
-0.088952
-0.094373
-0.061206
-0.036969
-0.056742
-0.045899
-0.033142
-0.024851
-0.0082673
-0.0047593
-0.043347
-0.036331
-0.015602
-0.027083
-0.015921
-0.0047593
-0.026445
-0.027083
-0.0098618
-0.016559
-0.029315
-0.053234
-0.044942
-0.031867
-0.055147
-0.044623
-0.043985
-0.055785
-0.075876
-0.057061
-0.061844
-0.061206
-0.065352
-0.011456
0.06572
0.11993
0.12121
0.10909
0.11069
0.1075
0.13971
0.18276
0.20413
0.21912
0.20381
0.12408
0.04531
0.024899
0.033829
-0.0018891
-0.058655
-0.097881
-0.070774
-0.042391
-0.12403
-0.15847
-0.13679
-0.12435
-0.1336
-0.099794
-0.13424
-0.14476
-0.15465
-0.13073
-0.070774
-0.11096
-0.1033
-0.073963
-0.073006
-0.084806
-0.061525
-0.072368
-0.037926
-0.064077
-0.089589
-0.095968
-0.073963
-0.082573
-0.090546
-0.081298
-0.13232
-0.14221
-0.13998
-0.11829
-0.10362
-0.074601
-0.10011
-0.09246
-0.05419
-0.053234
-0.04558
-0.046218
-0.05419
-0.04845
-0.057061
-0.071411
-0.069179
-0.084806
-0.094373
-0.087357
-0.089908
-0.087357
-0.049726
-0.014645
-0.053234
-0.038564
-0.022618
-0.014327
0.011505
0.029683
0.017246
0.030002
0.048818
0.032553
0.016608
0.035104
0.047223
0.044034
0.038294
0.068271
0.064763
0.027132
0.056471
0.095378
0.093465
0.12599
0.14098
0.05679
0.072736
0.15725
0.070503
-0.022618
-0.022937
0.014056
-0.0018891
0.0070404
-0.047174
-0.073963
-0.083211
-0.08066
-0.05419
-0.054509
-0.028359
-0.053234
-0.089589
-0.087038
-0.03091
-0.052596
-0.028359
0.0032135
-0.014964
-0.031548
-0.0060349
0.034786
-0.013051
-0.085762
-0.065033
-0.040158
-0.074282
-0.11957
-0.18175
-0.17123
-0.15433
-0.1977
-0.2331
-0.21237
-0.20886
-0.20631
-0.19515
-0.18175
-0.12786
-0.12913
-0.11957
-0.11606
-0.10362
-0.071093
-0.030591
-0.055466
-0.046855
-0.01911
-0.03665
-0.025488
-0.005716
-0.018791
-0.0031647
0.02171
0.010548
0.020435
0.0032135
0.016289
0.044353
0.042121
0.030959
0.044353
0.029364
-0.018153
-0.0098618
0.019159
-0.0041214
-0.014008
-0.012094
-0.04558
-0.005716
-0.017835
-0.051001
-0.034099
-0.034418
-0.05132
-0.047812
-0.042072
-0.072687
-0.11957
-0.11765
-0.091184
-0.11638
-0.13328
-0.12626
-0.12882
-0.13424
-0.052915
-0.010819
-0.036012
-0.028996
-0.034418
-0.00061343
0.03925
0.052007
0.0070404
0.0070404
0.058385
0.022667
0.030002
0.022029
0.016608
-0.0047593
-0.016559
-0.013689
-0.03091
-0.038883
-0.021024
-0.0076295
-0.049088
-0.08353
-0.061844
-0.11064
-0.1336
-0.080341
-0.084806
-0.11765
-0.11861
-0.11957
-0.1218
-0.08353
-0.060569
-0.042391
-0.050044
-0.044942
-0.032186
-0.0082673
0.0016189
-0.0066727
-0.012094
-0.034418
-0.027721
-0.025488
-0.014645
0.0035324
-0.028996
-0.044623
-0.0060349
0.024899
0.0073593
0.023305
0.021072
-0.00061343
0.0060837
0.014694
-0.0047593
-0.017197
-0.0076295
-0.01624
-0.043028
-0.063758
-0.093735
-0.08353
-0.051958
-0.036012
0.0041702
-0.011137
-0.02198
-0.005716
-0.032504
-0.024851
0.0064026
-0.0105
-0.035694
-0.038245
-0.075876
-0.073006
-0.076514
-0.13105
-0.11765
-0.089589
-0.10235
-0.12722
-0.093735
-0.073006
-0.059293
-0.080341
-0.097881
-0.069179
-0.064077
-0.06025
-0.0089051
-0.058336
-0.057698
-0.012413
-0.054828
-0.08353
-0.052915
-0.043666
-0.056423
-0.04271
-0.015602
-0.01624
-0.026126
-0.044942
-0.13551
-0.084168
-0.01911
-0.061206
-0.10713
-0.10777
-0.087995
-0.069498
-0.040796
-0.040158
-0.044304
-0.062482
-0.034737
-0.043028
-0.04558
-0.020067
0.0038513
-0.043347
-0.061844
-0.027083
-0.019748
-0.050682
-0.069817
-0.080341
-0.046218
-0.017516
-0.03378
-0.048131
-0.030272
-0.018153
0.0073593
-0.0076295
-0.027083
0.014056
-0.026764
-0.066309
-0.047812
-0.04271
-0.03378
-0.047493
-0.047812
-0.06312
-0.028996
-0.01911
-0.043347
-0.041115
-0.035375
-0.034737
-0.0095429
-0.010819
-0.058655
-0.046855
-0.047812
-0.067266
-0.083849
-0.091822
-0.10872
-0.13743
-0.12563
-0.091503
-0.083849
-0.15592
-0.13169
-0.086719
-0.12658
-0.10394
-0.057061
-0.052915
-0.099794
-0.055785
-0.053552
-0.033142
-0.0069916
-0.015602
-0.014327
0.037018
0.063169
0.065401
0.084854
0.093784
0.073374
0.052963
0.042758
0.049774
0.020435
-0.041115
-0.067585
-0.061525
-0.07779
-0.099476
-0.12945
-0.12052
-0.10936
-0.11032
-0.11797
-0.067266
-0.069498
-0.043666
-0.047174
-0.029315
-0.069498
-0.062163
-0.020386
-0.013051
-0.03378
-0.052915
-0.066309
-0.090546
-0.12052
-0.090227
-0.05132
-0.054509
-0.083849
-0.090865
-0.088952
-0.087038
-0.064395
-0.10809
-0.10713
-0.097881
-0.086081
-0.099476
-0.088952
-0.080022
-0.061206
-0.057379
-0.069817
-0.025488
-0.03952
-0.040477
0.0051269
-0.0095429
-0.0050782
0.021072
-0.016878
-0.041115
-0.024851
-0.028678
-0.050363
-0.046855
-0.059612
-0.076833
-0.03378
-0.027721
-0.0085862
0.011824
-0.010819
-0.0060349
0.048818
0.060298
0.054239
0.068271
0.057747
0.074649
0.046585
0.075925
0.042121
0.0079971
-0.012094
0.032234
-0.032186
-0.017835
-0.012413
-0.037926
-0.076514
-0.10075
-0.095968
-0.14125
-0.14636
-0.13615
-0.14891
-0.15465
-0.1741
-0.17729
-0.14795
-0.12307
-0.11733
-0.088633
-0.087038
-0.048131
-0.041434
-0.043028
-0.044623
-0.024213
-0.037288
-0.057698
-0.035375
-0.053871
-0.09246
-0.095968
-0.074919
-0.085762
-0.054509
-0.084168
-0.10904
-0.10266
-0.070455
-0.076514
-0.081617
-0.055147
-0.051958
-0.065033
-0.087357
-0.062482
-0.074282
-0.083211
-0.071093
-0.060887
-0.06599
-0.04271
-0.043028
-0.055466
-0.031548
-0.018153
-0.012732
0.0013
-0.0105
-0.041753
-0.01911
-0.032186
-0.046536
-0.045261
-0.044304
-0.02198
0.040845
0.048818
0.03638
0.061574
0.069866
0.057109
0.081028
0.093465
0.10813
0.16171
0.15629
0.16012
0.08613
0.034148
-0.010819
0.023624
0.055196
0.0041702
-0.031229
-0.075876
-0.083211
-0.089908
-0.10904
-0.11351
-0.12435
-0.132
-0.15465
-0.17314
-0.17761
-0.17251
-0.17697
-0.15528
-0.14412
-0.15879
-0.14476
-0.10458
-0.099476
-0.10043
-0.073006
-0.061844
-0.047812
-0.040477
-0.028678
-0.078746
-0.06025
-0.057698
-0.081617
-0.094054
-0.093416
-0.093097
-0.08927
-0.093097
-0.066947
-0.058974
-0.08066
-0.055466
-0.028359
-0.016559
-0.0028458
0.019478
0.0025757
0.008635
0.018521
-0.015283
-0.0079484
0.004808
0.0057648
0.0016189
0.017246
0.024262
0.0054459
-0.01911
-0.022299
-0.042072
-0.031867
0.0044891
-0.016878
-0.055466
-0.053552
-0.02804
-0.052277
-0.072368
-0.058336
-0.062801
-0.042391
0.0095917
0.0057648
-0.021024
-0.058336
0.025856
0.046904
0.027451
0.025856
0.03064
0.040526
0.010548
0.0067215
-0.085762
-0.049726
0.032872
-0.012413
-0.056742
-0.014645
0.029364
-0.026764
-0.052915
-0.017516
-0.0038025
-0.015921
-0.017516
-0.03378
-0.02804
-0.052277
-0.089589
-0.069817
-0.076833
-0.097562
-0.085762
-0.069498
-0.072049
-0.082254
-0.095011
-0.08066
-0.064395
-0.069498
-0.041434
-0.053552
-0.088633
-0.079384
-0.045899
-0.052915
-0.073325
-0.061206
-0.081617
-0.083849
-0.037288
-0.046218
-0.056423
-0.066309
-0.028359
-0.013689
-0.028678
-0.053871
-0.044623
-0.053552
-0.059293
-0.050363
-0.069498
-0.095011
-0.065671
-0.06886
-0.096286
-0.051639
-0.034418
-0.038883
-0.020067
-0.0031647
-0.015921
0.017564
0.03638
0.008316
0.013419
0.028407
0.0064026
-0.020705
0.014375
0.01023
0.0013
-0.011137
0.044672
0.050093
0.033191
0.042758
0.053601
0.0089539
0.0054459
0.028407
0.060936
0.020754
-0.0073105
-0.071093
-0.05419
-0.032823
-0.03665
-0.053234
-0.050044
-0.05132
-0.091822
-0.075238
-0.021024
-0.024213
-0.074601
-0.06025
-0.044623
-0.072049
-0.088633
-0.085443
-0.1167
-0.11351
-0.1151
-0.10809
-0.12467
-0.10139
-0.079065
-0.13105
-0.10553
-0.091822
-0.088952
-0.08066
-0.055147
-0.082573
-0.074282
-0.058336
-0.053552
-0.062801
-0.062482
-0.040796
-0.017197
-0.034099
-0.0085862
0.020116
0.020754
0.061574
0.060936
0.04818
0.079752
0.081028
0.05679
0.03638
0.062531
0.045947
0.03064
0.012143
-0.017516
-0.052915
-0.04845
-0.0076295
-0.018153
-0.047174
-0.060887
-0.059931
-0.054828
-0.059293
-0.032823
-0.055785
-0.082254
-0.075876
-0.054509
-0.10553
-0.10235
-0.056742
-0.053552
-0.01337
-0.027083
-0.053871
0.0032135
0.035742
0.024899
0.069547
0.059342
0.032872
0.028088
0.06859
0.11292
0.038612
0.019797
0.012143
0.015332
0.017564
0.05105
0.011505
-0.066628
-0.029634
-0.039202
-0.048131
-0.097243
-0.051639
-0.10203
-0.11191
-0.11255
-0.13679
-0.14349
-0.13041
-0.13009
-0.12595
-0.10968
-0.08066
-0.064077
-0.071093
-0.045899
-0.036969
-0.032186
-0.013051
0.0025757
-0.026764
-0.023575
0.0070404
-0.019429
-0.027083
-0.043666
-0.046855
-0.044623
-0.011137
-0.03378
-0.026764
-0.026445
-0.02198
-0.017835
-0.032504
-0.047174
-0.050682
-0.026445
-0.041115
-0.036969
-0.041434
-0.044942
-0.032186
-0.023894
-0.019429
0.019159
0.044991
0.034467
0.016608
0.08613
0.054877
0.09187
0.096335
0.064125
0.084536
0.09793
0.080071
0.06572
0.032234
0.029364
-0.0076295
-0.013689
-0.015921
0.050731
0.037018
-0.028996
-0.038883
-0.067903
-0.04558
-0.018791
-0.090865
-0.11223
-0.092778
-0.11446
-0.10936
-0.11957
-0.14093
-0.10171
-0.053552
-0.086719
-0.092141
-0.088952
-0.060887
-0.044304
-0.043985
-0.046218
-0.048131
-0.061525
-0.084487
-0.066309
-0.078746
-0.0864
-0.076833
-0.088314
-0.074601
-0.041115
-0.038564
-0.052277
-0.031548
-0.028678
-0.026126
-0.0053971
0.0095917
-0.02517
-0.018791
-0.025488
-0.026126
-0.032823
-0.030591
-0.029315
-0.025807
-0.051639
-0.048769
-0.0053971
-0.0069916
0.012781
0.0016189
-0.0076295
0.030002
0.022348
0.048818
0.054239
0.065082
0.0054459
0.01023
0.044991
0.028726
0.042758
0.055515
0.071779
0.037337
0.015651
0.062531
0.076882
0.035104
-0.014327
-0.002208
0.00066221
-0.025807
-0.035694
-0.073644
-0.078427
-0.066628
-0.09246
-0.12212
-0.063439
-0.035375
-0.074282
-0.086719
-0.052596
-0.026764
-0.011775
-0.014327
-0.049088
-0.047493
-0.046218
-0.041434
-0.063758
-0.064714
-0.045261
-0.045899
-0.06025
-0.051001
-0.035694
-0.016559
-0.0085862
-0.010181
-0.022937
0.008316
0.014056
-0.034418
-0.021343
0.013738
-0.018791
-0.02198
-0.019748
-0.027083
-0.017197
0.011505
-0.00093234
0.0051269
-0.00061343
0.020754
0.02777
0.023943
0.0092728
0.031278
0.0051269
0.0095917
0.008635
-0.036969
-0.038883
-0.022618
-0.051001
-0.036331
0.019159
-0.0095429
-0.036331
-0.020705
-0.0015702
0.0035324
0.0022568
-0.014645
0.010867
-0.014964
-0.021024
-0.0082673
-0.022299
-0.014964
-0.040158
-0.042391
-0.056742
-0.022299
-0.0044404
-0.039202
-0.028678
-0.021024
-0.0034836
-0.015921
-0.015602
-0.032823
-0.014645
-0.0034836
-0.032504
-0.025807
-0.023256
-0.017197
-0.0095429
0.008635
0.025218
0.046266
0.02171
0.040526
0.076882
0.067314
0.04531
0.066358
0.046585
0.027132
0.0060837
-0.0073105
-0.011456
-0.021343
-0.035056
-0.038245
-0.022937
-0.082254
-0.061525
-0.044942
-0.032823
-0.029953
-0.04845
-0.058336
-0.053552
-0.070774
-0.093735
-0.086081
-0.087038
-0.08927
-0.080979
-0.092778
-0.11
-0.062801
-0.042391
-0.059612
-0.055466
-0.053234
-0.032504
0.0064026
0.008635
-0.026126
-0.0060349
-0.0038025
0.0095917
-0.012094
-0.0047593
0.022348
0.0095917
-0.00093234
0.021072
0.027451
0.019159
0.035423
0.0079971
0.03925
0.056471
0.056153
0.011824
-0.01624
-0.033142
-0.018791
-0.0073105
-0.023256
-0.039839
-0.046536
-0.024851
-0.035694
-0.01624
-0.05132
-0.040796
-0.019748
-0.023256
-0.014327
-0.0105
-0.02804
-0.038245
-0.021024
-0.027083
2.4388e-05
-0.017516
0.0060837
0.0092728
0.040207
0.029045
0.017883
0.02458
0.046585
0.061574
0.060617
0.042439
0.019159
0.0003433
-0.0060349
-0.00061343
-0.028996
-0.065352
-0.074601
-0.044623
-0.050044
-0.036012
-0.041434
-0.060887
-0.042391
-0.036331
-0.049407
-0.033461
-0.023894
-0.06312
-0.076833
-0.057698
-0.056742
-0.065671
-0.075876
-0.08353
-0.064714
-0.039202
-0.073006
-0.072049
-0.046218
-0.025488
0.0016189
0.0054459
0.025856
0.014375
-0.014327
0.025856
0.080709
0.046904
0.029683
0.047861
0.062212
0.059342
0.084854
0.1177
0.078157
0.098249
0.088362
0.077201
0.085811
0.081028
0.059661
0.081984
0.07752
0.0019378
-0.015283
0.0028946
-0.011456
2.4388e-05
-0.021024
-0.013051
0.0003433
-0.038564
-0.02517
-0.011137
-0.015602
-0.033142
-0.02198
-0.031867
-0.047174
-0.046855
-0.074601
-0.073006
-0.058336
-0.067903
-0.056423
-0.022299
-0.016559
-0.028359
-0.032823
0.015332
0.017883
0.020754
0.045947
0.054558
0.015013
-0.0105
0.0032135
-0.046855
-0.017835
0.0079971
-0.020386
-0.03378
-0.014008
-0.024851
-0.022618
-0.031548
-0.024213
-0.01337
0.00066221
-0.0015702
-0.043028
-0.04845
-0.034099
-0.037607
-0.054828
-0.04558
-0.048131
-0.060887
-0.067266
-0.064077
-0.018791
-0.024532
-0.030272
-0.017516
0.00066221
0.035742
0.03638
0.059342
0.11069
0.14864
0.14098
0.12312
0.14098
0.15374
0.15278
0.18786
0.21242
0.20221
0.17255
0.10909
0.067633
0.15661
0.13811
0.09793
0.037018
-0.0025269
-0.0089051
-0.07173
-0.075557
-0.056742
-0.065671
-0.074282
-0.033461
-0.041753
-0.043028
-0.032823
-0.047812
-0.034418
-0.027083
-0.015283
-0.030591
-0.032186
-0.049088
-0.040477
-0.073644
-0.073325
-0.063439
-0.051001
-0.053871
-0.051001
-0.033142
-0.047493
-0.059612
-0.054828
-0.04271
-0.026445
-0.045899
-0.063439
-0.059612
-0.051001
-0.092778
-0.10904
-0.11128
-0.11159
-0.092141
-0.088952
-0.065352
-0.029953
-0.034099
0.0092728
0.016608
0.023305
0.044353
0.06859
0.077201
0.06859
0.07752
0.036699
0.064444
0.069547
0.022986
0.035423
0.092827
0.044672
0.047861
0.047861
0.10622
0.076882
0.051369
0.083579
0.099524
0.096335
0.10877
0.12025
0.11005
0.12025
0.093465
0.098568
0.13142
0.14449
0.13046
0.09793
0.092508
0.10845
0.096335
0.11069
0.069547
-0.00029452
-0.0082673
0.0095917
-0.035694
-0.088314
-0.10298
-0.11925
-0.1151
-0.13105
-0.13838
-0.15497
-0.16772
-0.14699
-0.14476
-0.15305
-0.12116
-0.10617
-0.13169
-0.09246
-0.062482
-0.073006
-0.068541
-0.062482
-0.029634
-0.017835
0.028407
0.075925
0.069228
0.07752
0.074968
0.077838
0.093146
0.099843
0.11579
0.06572
0.059342
0.051369
0.008635
0.027132
0.023305
-0.027721
-0.041753
-0.012413
-0.02517
-0.056104
-0.040477
-0.023894
-0.031548
-0.030591
0.022029
-0.015283
0.0041702
-0.020705
0.029045
0.02777
0.028088
0.052326
0.070822
0.066995
0.073374
0.097611
0.11388
0.14449
0.13524
0.088681
0.11706
0.16905
0.096016
0.09187
0.093465
0.049137
0.032872
0.031915
0.039569
0.04818
0.022348
0.008316
0.030321
0.016608
0.0079971
0.0092728
-0.04558
-0.021661
0.021391
-0.03665
-0.045899
-0.031229
-0.070455
-0.076833
-0.054509
-0.075876
-0.078746
-0.035056
-0.034099
-0.022618
-0.016878
-0.009224
0.018202
0.030002
0.035104
0.04818
0.039888
-0.030591
-0.0018891
0.023943
0.031278
0.025856
-0.0060349
-0.022299
0.014694
0.01597
0.00098112
0.0016189
-0.014327
-0.043028
-0.032186
-0.017835
-0.050363
-0.054828
-0.042072
-0.042391
-0.052596
-0.059293
-0.046536
-0.03378
-0.035375
0.0054459
0.050731
0.052326
0.076563
0.12249
0.11898
0.13046
0.13652
0.075287
0.096973
0.15852
0.11419
0.10367
0.12344
0.04818
0.037337
0.089638
0.070185
0.058066
0.074012
0.06859
0.075606
0.048818
0.043396
0.048818
0.023624
0.03064
0.036699
-0.021024
-0.02198
-0.049407
-0.0031647
0.021072
0.0067215
-0.021343
-0.037607
0.00066221
0.011824
0.026813
0.030959
0.026494
-0.0041214
0.0089539
0.028088
0.035423
0.018202
0.0064026
0.0044891
0.020754
-0.013051
0.0060837
0.053601
0.014375
-0.0082673
0.0022568
0.0003433
0.0028946
0.0019378
-0.028996
-0.023894
-0.041753
-0.084168
-0.070774
-0.069179
-0.1269
-0.10394
-0.035375
-0.033142
-0.043347
-0.064077
-0.019748
0.0092728
-0.0050782
0.014694
0.026494
0.030959
0.047861
0.046585
0.055515
0.075287
0.073055
0.088362
0.067952
0.11738
0.12121
0.11164
0.11738
0.12376
0.099205
0.11132
0.084536
0.073693
0.068271
0.075925
0.054558
0.015332
-0.0015702
0.011824
0.0095917
-0.012094
0.028407
0.04531
0.035423
0.030959
0.03351
0.043077
0.029045
0.061574
0.026494
0.02171
0.048499
0.031278
0.013738
-0.021661
-0.024851
-0.0034836
0.021072
0.014694
0.012143
0.0089539
0.041802
0.066995
0.02458
0.01023
0.022986
-0.00029452
0.02171
0.020435
-0.0082673
0.0079971
0.02458
-0.018791
-0.02517
0.033191
0.0054459
0.017564
0.037656
0.030002
0.034786
0.056471
0.03925
0.0041702
0.017883
-0.018153
-0.017197
-0.04271
-0.024851
-0.023894
-0.053234
-0.052596
-0.055147
-0.054509
-0.049726
-0.015283
-0.026764
-0.010819
-0.012094
-0.020705
-0.074282
-0.059612
-0.017835
-0.0085862
0.0060837
-0.002208
-0.0034836
0.01023
0.043396
0.075287
0.091233
0.10048
0.1177
0.11292
0.14545
0.17351
0.17287
0.1429
0.11962
0.10526
0.10176
0.097611
0.084854
0.037656
0.014694
0.056471
0.066039
0.066677
0.054239
0.046266
0.064125
0.074649
0.078795
0.066995
0.068909
0.056471
0.056471
0.03064
0.024899
0.03638
-0.0028458
0.022986
0.041802
0.0076782
-0.028996
-0.017516
-0.012094
0.0022568
-0.0015702
0.011186
-0.017197
-0.01624
-0.031867
-0.044623
-0.058336
-0.079065
-0.094054
-0.080341
-0.06599
-0.078746
-0.064714
-0.07779
-0.073325
-0.076833
-0.070455
-0.078109
-0.065033
-0.066309
-0.04845
-0.045899
-0.020705
-0.024532
-0.022299
-0.048769
0.014694
0.07433
0.042121
0.035104
0.063806
0.073374
0.1228
0.12982
0.10239
0.081028
0.061574
0.050731
0.074649
0.10495
0.10973
0.087725
0.067952
0.040207
0.067952
0.058385
0.045947
0.082941
0.098249
0.044034
0.047542
0.046585
0.014375
0.022986
0.0028946
-0.034737
-0.037926
-0.028996
-0.026126
-0.029315
-0.027402
-0.0069916
0.015013
0.010548
0.037975
0.047861
0.042758
0.063806
0.071779
0.029364
0.025537
0.055834
0.034148
-0.011456
0.0076782
0.020435
0.0095917
0.021072
0.015651
0.052326
0.059023
0.058066
0.084536
0.047223
0.035104
0.059023
0.066995
0.019159
-0.0038025
0.0003433
0.0131
-0.00029452
-0.06599
-0.08927
-0.01624
0.0019378
0.020116
-0.024851
-0.051639
-0.039839
0.0016189
0.040207
0.025537
0.031915
0.037656
0.032553
0.010867
-0.0079484
-0.014008
0.033829
0.013419
0.012143
-0.0063538
0.0025757
0.037337
0.0070404
-0.023894
-0.00061343
0.0051269
-0.059931
-0.069817
-0.023894
-0.050682
-0.03952
-0.023575
-0.054509
-0.090227
-0.040477
-0.022937
-0.018472
-0.018153
-0.01337
0.021391
0.03925
0.060298
0.080071
0.044991
0.034148
0.058704
0.03925
0.037656
0.055196
0.047223
0.047223
0.094741
0.10463
0.094103
0.088362
0.091552
0.11866
0.12185
0.12121
0.11101
0.11547
0.13843
0.10909
0.095378
0.098886
0.057747
0.039888
0.024262
0.026494
0.028726
-0.013689
-0.01911
-0.031867
-0.10458
-0.085443
-0.10171
-0.13456
-0.13615
-0.11191
-0.079703
-0.11191
-0.10585
-0.093097
-0.099157
-0.071093
0.010548
0.044991
0.032553
0.065082
0.10909
0.08039
0.074649
0.074649
0.060617
0.081028
0.048818
0.022029
0.025856
0.058704
0.016289
0.015013
0.05392
0.057109
0.038612
0.058704
0.074012
0.10367
0.12057
0.11962
0.12025
0.10239
0.066358
0.085492
0.073693
0.055834
0.011186
0.02777
0.032234
0.044353
0.031915
0.0057648
-0.012094
-0.0060349
0.0041702
0.0057648
0.0095917
-0.018153
0.0064026
0.0089539
-0.014327
-0.021343
-0.01911
-0.022937
-0.022299
-0.033142
2.4388e-05
0.0079971
-0.009224
-0.017516
-0.0069916
-0.048769
-0.049088
-0.00029452
-0.049407
-0.061525
-0.041115
-0.087676
-0.091503
-0.090546
-0.086081
-0.071093
-0.03665
-0.030591
-0.033142
-0.023575
0.010867
0.037656
0.040207
0.069228
0.064763
0.035423
0.03351
0.026494
0.008635
0.0076782
0.011505
-0.031867
-0.028359
0.0095917
-0.013051
-0.014645
0.0038513
0.022029
0.055196
0.092189
0.068271
0.031596
0.057109
0.081028
0.11037
0.12121
0.1413
0.12759
0.11005
0.11037
0.088044
0.097611
0.073693
0.10303
0.090276
0.043715
0.02458
0.046904
2.4388e-05
-0.017835
-0.032186
-0.049726
-0.05132
-0.06886
-0.08353
-0.06025
-0.035056
-0.035694
-0.042391
-0.051639
-0.032186
-0.013689
-0.021343
-0.0041214
0.0051269
-0.0050782
-0.011775
0.00098112
-0.016559
-0.002208
-0.011456
-0.027721
-0.01337
0.041802
0.038612
0.0131
0.038612
0.066358
0.069547
0.063806
0.065082
0.038294
0.04818
0.044034
0.059023
0.044034
0.057109
0.056471
0.037337
0.030002
0.04818
0.067633
0.060617
0.043077
0.047861
0.060936
0.058704
0.022029
-0.024213
-0.018791
-0.059931
-0.074601
-0.04558
-0.068222
-0.095011
-0.098838
-0.081298
-0.09533
-0.07779
-0.060887
-0.049407
-0.018791
-0.011137
0.011505
0.049137
0.054239
0.021072
0.052326
0.057109
0.063169
0.064125
0.079752
0.078157
0.11898
0.089319
0.074012
0.058066
0.060617
0.080071
0.058066
0.04818
0.037337
0.0057648
-0.028678
-0.034099
-0.05132
-0.049407
-0.055466
-0.064077
-0.070455
-0.032823
-0.025488
-0.027083
-0.0089051
0.0025757
-0.0012513
0.00098112
0.0038513
-0.02804
-0.0050782
0.02171
0.018202
-0.021024
0.0092728
0.034467
-0.0041214
-0.005716
0.025856
0.072417
0.055834
0.061574
0.046266
0.04818
0.050731
0.043077
0.032234
0.028726
0.037975
-0.014964
-0.02198
-0.017835
-0.062801
-0.067266
-0.030272
-0.032823
-0.020067
0.015013
-0.0012513
0.0064026
0.008635
-0.011456
-0.005716
0.015013
-0.0025269
-0.027721
-0.051958
0.0070404
0.031278
-0.019429
-0.041753
-0.018791
-0.00093234
-0.0031647
0.0092728
0.018202
0.017883
0.023305
0.050412
0.03064
0.010867
0.023943
0.029683
0.024262
