0.27301
0.26057
0.26057
0.24686
0.24144
0.24271
0.23379
0.22486
0.22996
0.22677
0.22581
0.22454
0.22549
0.22517
0.21943
0.21082
0.21529
0.20508
0.19233
0.18722
0.17479
0.17064
0.17
0.16267
0.14609
0.15278
0.15661
0.15087
0.15214
0.14896
0.1413
0.14098
0.13907
0.12599
0.12057
0.11101
0.10176
0.090914
0.087725
0.080709
0.079114
0.065082
0.066995
0.069547
0.061255
0.065082
0.060617
0.047223
0.043715
0.052645
0.031596
0.017246
0.012462
-0.00029452
-0.0073105
-0.010181
-0.020386
-0.02804
-0.027083
-0.03091
-0.030272
-0.033142
-0.031548
-0.031229
-0.035694
-0.043666
-0.037607
-0.047812
-0.064077
-0.065671
-0.075876
-0.076833
-0.074601
-0.08066
-0.091503
-0.082892
-0.078427
-0.080341
-0.074601
-0.073325
-0.074282
-0.07173
-0.073006
-0.08066
-0.082573
-0.086719
-0.092778
-0.098838
-0.097562
-0.10043
-0.096605
-0.10777
-0.099157
-0.087676
-0.091184
-0.081617
-0.078427
-0.084168
-0.079065
-0.064077
-0.075876
-0.082254
-0.075557
-0.083211
-0.083849
-0.079703
-0.082254
-0.079065
-0.071093
-0.069179
-0.06025
-0.060569
-0.06599
-0.059293
-0.059931
-0.06312
-0.053234
-0.068541
-0.084168
-0.091184
-0.10394
-0.10872
-0.10617
-0.1167
-0.13105
-0.12531
-0.12499
-0.13105
-0.12595
-0.12499
-0.1285
-0.12595
-0.13073
-0.1387
-0.14923
-0.1572
-0.16166
-0.1741
-0.17697
-0.18207
-0.18718
-0.20503
-0.20057
-0.19898
-0.20599
-0.21046
-0.21365
-0.22481
-0.22066
-0.21205
-0.23533
-0.24426
-0.24267
-0.25191
-0.25638
-0.25574
-0.26116
-0.25734
-0.25574
-0.25606
-0.25
-0.2516
-0.2433
-0.23756
-0.23661
-0.23565
-0.21556
-0.23087
-0.24394
-0.23916
-0.2398
-0.23565
-0.228
-0.2264
-0.23342
-0.22098
-0.2162
-0.21811
-0.21652
-0.21109
-0.20854
-0.20408
-0.20663
-0.20631
-0.21237
-0.22194
-0.22321
-0.23469
-0.23214
-0.23469
-0.23342
-0.24299
-0.23214
-0.22513
-0.22959
-0.22353
-0.22162
-0.22608
-0.21811
-0.21333
-0.22002
-0.21939
-0.21907
-0.21939
-0.2213
-0.21907
-0.21779
-0.21205
-0.2095
-0.20248
-0.18781
-0.18431
-0.17601
-0.16836
-0.17059
-0.16453
-0.14476
-0.1556
-0.16421
-0.15241
-0.15815
-0.1556
-0.14699
-0.1505
-0.15273
-0.13774
-0.132
-0.1269
-0.11861
-0.11446
-0.11
-0.10298
-0.10203
-0.096924
-0.096605
-0.10553
-0.10235
-0.10585
-0.097881
-0.093416
-0.094054
-0.10171
-0.084487
-0.074919
-0.076195
-0.065671
-0.060569
-0.060569
-0.055147
-0.047812
-0.053234
-0.053871
-0.051639
-0.058655
-0.059931
-0.055785
-0.059931
-0.053552
-0.053552
-0.04845
-0.038564
-0.040158
-0.034099
-0.030591
-0.034737
-0.034099
-0.016878
-0.031229
-0.040796
-0.035375
-0.041434
-0.043028
-0.036331
-0.041434
-0.043985
-0.033142
-0.028678
-0.024532
-0.017516
-0.013051
-0.0098618
-0.0079484
-0.011775
-0.0047593
-0.010181
-0.019748
-0.015921
-0.022937
-0.02198
-0.01911
-0.02198
-0.034418
-0.02198
-0.012413
-0.015921
-0.0079484
-0.0047593
-0.0063538
-0.00061343
0.0041702
-0.0041214
-0.0060349
-0.0053971
-0.0098618
-0.013051
-0.0095429
-0.011775
-0.0060349
-0.012413
-0.0053971
0.0016189
0.0013
0.008635
0.015332
0.0076782
0.0089539
0.020754
0.0076782
-0.0031647
-0.00029452
-0.0066727
-0.011456
-0.0076295
-0.012413
-0.014008
-0.0038025
-0.005716
-0.0047593
-0.00029452
0.0076782
0.014694
0.010867
0.0054459
0.015332
0.0044891
-0.0034836
-0.0015702
-0.0085862
-0.0069916
-0.0069916
-0.010181
-0.02198
-0.005716
0.0022568
-0.00029452
0.0054459
0.0095917
0.0089539
0.020435
0.025856
0.022986
0.027451
0.028088
0.030002
0.031278
0.039569
0.040845
0.049774
0.048499
0.06572
0.083579
0.088681
0.10367
0.10845
0.10941
0.11898
0.14034
0.13142
0.1311
0.14513
0.14577
0.1464
0.15374
0.1547
0.16554
0.18085
0.18691
0.19424
0.19807
0.20859
0.2172
0.22294
0.22613
0.24112
0.23889
0.23666
0.24463
0.24463
0.25611
0.27205
0.28067
0.28609
0.30426
0.3167
0.32499
0.34349
0.36135
0.3639
0.37283
0.38176
0.38846
0.39101
0.39133
0.39388
0.39292
0.39388
0.39483
0.40408
0.39165
0.3993
0.41556
0.42449
0.44012
0.44299
0.4331
0.43629
0.45575
0.45001
0.44969
0.44235
0.43597
0.43438
0.43821
0.42992
0.42258
0.41588
0.406
0.39962
0.3926
0.38814
0.38017
0.36326
0.34604
0.34955
0.33073
0.31096
0.29884
0.28704
0.28162
0.27684
0.26631
0.24527
0.24973
0.25133
0.24782
0.2475
0.24909
0.24144
0.24303
0.23474
0.23155
0.22773
0.21848
0.21146
0.20413
0.20349
0.19871
0.20158
0.18691
0.19169
0.1952
0.18404
0.18914
0.18691
0.17766
0.17702
0.18308
0.16618
0.16618
0.16777
0.15151
0.14449
0.14736
0.14736
0.15406
0.15438
0.15757
0.16331
0.16841
0.17893
0.18244
0.18053
0.1818
0.19647
0.18117
0.17255
0.17447
0.16873
0.16873
0.17064
0.16363
0.15151
0.1649
0.16873
0.1649
0.16777
0.16905
0.16235
0.16394
0.16171
0.16044
0.15214
0.13811
0.1362
0.12567
0.12504
0.12249
0.1177
0.096973
0.10813
0.12025
0.11643
0.11419
0.10973
0.10112
0.10813
0.11164
0.10016
0.093784
0.092508
0.081028
0.072736
0.073055
0.067633
0.064125
0.06285
0.067314
0.07146
0.067952
0.074649
0.069866
0.063487
0.065082
0.072417
0.066677
0.058385
0.059979
0.050731
0.054558
0.065401
0.062212
0.056471
0.075606
0.075925
0.082303
0.092508
0.10048
0.10973
0.11419
0.1059
0.11419
0.11611
0.10941
0.10239
0.095378
0.10048
0.10176
0.10495
0.090595
0.10048
0.10813
0.10431
0.10909
0.11069
0.10845
0.11132
0.11356
0.10112
0.091233
0.092189
0.081665
0.075606
0.084854
0.07433
0.082303
0.078476
0.074649
0.082303
0.07752
0.088044
0.085811
0.084854
0.083898
0.099843
0.081984
0.06859
0.068271
0.058704
0.05679
0.058704
0.050731
0.040526
0.04818
0.049774
0.05679
0.055196
0.059023
0.056153
0.058704
0.055515
0.060617
0.053282
0.043396
0.043077
0.035104
0.039569
0.042439
0.042758
0.027451
0.040526
0.049774
0.048818
0.054877
0.053282
0.049137
0.054239
0.058066
0.04818
0.044034
0.040526
0.03351
0.026813
0.028407
0.027451
0.032234
0.023943
0.029045
0.037018
0.03351
0.042439
0.044672
0.037337
0.03925
0.050731
0.034786
0.023305
0.023624
0.013419
0.0070404
0.010548
0.0079971
0.00066221
0.0057648
0.0060837
0.017564
0.028407
0.02777
0.027451
0.028407
0.028726
0.041483
0.035104
0.029683
0.031596
0.025218
0.028088
0.035742
0.034467
0.027451
0.041164
0.055515
0.059979
0.06572
0.06859
0.07146
0.085492
0.084854
0.075925
0.076563
0.080709
0.08039
0.072417
0.069866
0.066677
0.067952
0.057428
0.066677
0.079433
0.069228
0.071141
0.07433
0.06285
0.06859
0.081984
0.06859
0.056471
0.057747
0.044672
0.042439
0.042121
0.037975
0.034467
0.039569
0.042121
0.04531
0.044353
0.049137
0.053282
0.049455
0.042439
0.053601
0.044991
0.037656
0.034148
0.022348
0.023305
0.028407
0.025537
0.016927
0.028407
0.031915
0.028088
0.032872
0.033829
0.026494
0.031596
0.035742
0.028407
0.02458
0.016608
0.014375
0.0067215
0.0019378
-0.00061343
0.0044891
-0.0060349
0.0035324
0.014694
0.016289
0.020435
0.01884
0.011505
0.02458
0.03638
0.02777
0.01884
0.023305
0.017883
0.023305
0.024262
0.017564
0.022348
0.03638
0.038931
0.04531
0.044991
0.052326
0.060617
0.060617
0.057109
0.067314
0.054558
0.040845
0.041164
0.033829
0.031915
0.035423
0.027451
0.014375
0.025218
0.031596
0.029045
0.030959
0.029045
0.028726
0.037337
0.040845
0.038612
0.032872
0.022667
0.020116
0.013738
0.019478
0.025537
0.030002
0.013738
0.023943
0.034148
0.034467
0.044353
0.043396
0.035423
0.037656
0.052963
0.041483
0.031596
0.031278
0.023305
0.016608
0.022348
0.017246
0.015013
0.010867
0.014375
0.020754
0.022348
0.030002
0.031915
0.020754
0.017883
0.029045
0.019159
0.011824
0.012781
0.008316
0.0035324
0.0054459
0.0032135
-0.011775
-0.0060349
0.0057648
0.012143
0.011824
0.014375
0.017246
0.017246
0.0099106
0.012781
0.008316
0.0067215
0.0057648
-0.0050782
-0.0063538
-0.00029452
-0.00029452
-0.012413
0.0019378
0.014375
0.0044891
0.012781
0.021072
0.022029
0.02777
0.033191
0.022986
0.019478
0.025218
0.017246
0.011824
0.014694
0.017883
0.026813
0.022348
0.025856
0.031278
0.032234
0.039888
0.040845
0.036699
0.038612
0.050093
0.03351
0.026494
0.028088
0.01597
0.015013
0.017246
0.013738
0.0057648
0.016927
0.017883
0.01597
0.018521
0.026494
0.031915
0.032872
0.026494
0.028726
0.027451
0.01597
0.012781
0.0070404
0.0076782
0.01023
0.008635
-0.0063538
0.0038513
0.012781
0.010548
0.01597
0.02171
0.013738
0.013419
0.021391
0.0092728
0.0070404
0.0032135
-0.0015702
-0.0044404
-0.0044404
-0.0073105
-0.002208
-0.0095429
-0.0053971
0.0067215
0.0051269
0.0131
0.014694
0.0089539
0.01023
0.026494
0.012781
0.0028946
0.0054459
-0.0031647
-0.005716
-0.0041214
-0.0085862
-0.0089051
-0.0012513
-0.0047593
-0.0028458
0.0016189
0.0067215
0.010867
0.0076782
0.0057648
0.011505
0.0051269
-0.0034836
-0.0095429
-0.021661
-0.0095429
0.0041702
-0.0050782
-0.020067
-0.0050782
0.0032135
0.0028946
0.0092728
0.012143
0.0131
0.021072
0.021391
0.010867
0.0073593
0.0073593
0.0016189
-0.0050782
-0.0044404
-0.0073105
-0.0031647
-0.012732
-0.0076295
0.00098112
-0.0012513
0.00098112
-0.00029452
-0.0038025
0.0025757
0.020754
0.0079971
-0.0038025
-0.00029452
-0.0076295
-0.0089051
2.4388e-05
-0.0069916
-0.0079484
0.0028946
0.012462
0.016927
0.019478
0.027132
0.028726
0.027451
0.026494
0.031278
0.022667
0.010548
0.012143
0.0044891
0.0054459
0.004808
-0.00093234
-0.014645
-0.0015702
0.0060837
0.0044891
0.01023
0.010867
0.0095917
0.016289
0.013738
0.01023
0.013738
0.010867
0.0076782
-0.00093234
0.0022568
0.0038513
0.011505
0.0013
0.0070404
0.018521
0.019797
0.028726
0.028088
0.016608
0.020754
0.040207
0.024899
0.01597
0.016289
0.00098112
0.0019378
0.0131
0.0051269
2.4388e-05
0.0070404
0.011186
0.0131
0.014694
0.021072
0.024899
0.021391
0.015013
0.026494
0.016289
0.0038513
0.0041702
-0.005716
-0.0060349
-0.0012513
-0.0066727
-0.01624
-0.0031647
0.00066221
0.00098112
0.0067215
0.0076782
0.0092728
0.013419
0.011824
0.011186
0.012462
0.0038513
-0.002208
-0.0063538
-0.0044404
-0.0038025
-0.002208
-0.012413
-0.0038025
0.0070404
0.0051269
0.0076782
0.0064026
0.0003433
0.0073593
0.018202
0.0003433
-0.0066727
-0.0076295
-0.018153
-0.018153
-0.005716
-0.0073105
-0.002208
2.4388e-05
-0.0041214
0.0060837
0.019159
0.031278
0.037975
0.037018
0.038612
0.052963
0.045629
0.03638
0.037975
0.029364
0.02777
0.033829
0.028726
0.022029
0.030002
0.031915
0.030002
0.034148
0.035742
0.032234
0.031596
0.025856
0.026494
0.019478
0.0092728
0.0032135
-0.0050782
-0.0031647
-0.0018891
-0.002208
-0.020067
-0.01337
-0.0015702
0.00098112
0.011824
0.010548
0.0019378
0.0095917
0.025218
0.008316
0.0016189
0.004808
-0.00029452
0.00098112
0.0051269
-0.0015702
-0.00061343
0.0019378
0.0076782
0.018202
0.014375
0.019797
0.027132
0.01884
0.015651
0.031915
0.019159
0.008316
0.0092728
0.0003433
2.4388e-05
0.00098112
-0.0053971
-0.013689
-0.00029452
0.0028946
0.0032135
0.0057648
0.0076782
0.0095917
0.0067215
0.010548
0.014375
0.0060837
-0.0044404
-0.0085862
-0.014327
-0.011456
-0.005716
-0.0050782
-0.020705
-0.0098618
-0.00061343
-0.0012513
0.0092728
0.008635
0.00098112
0.0057648
0.013738
0.0041702
-0.0018891
-0.0025269
-0.013051
-0.01624
-0.011775
-0.020705
-0.018153
-0.016559
-0.012413
-0.00061343
0.00098112
0.0054459
0.0099106
0.0070404
0.0076782
0.02458
0.01597
0.0035324
0.0038513
-0.0034836
-0.0038025
0.0022568
-0.0041214
-0.014645
-0.0044404
-0.0038025
-0.0044404
-0.0038025
0.0013
0.0003433
0.0025757
-0.0034836
-0.00029452
-0.0015702
-0.015602
-0.01337
-0.018153
-0.014964
-0.0073105
-0.013051
-0.024851
-0.005716
0.0057648
0.0051269
0.012781
0.015332
0.0131
0.015332
0.025856
0.017883
0.013419
0.015651
0.0099106
0.0025757
0.0041702
0.0016189
0.0099106
0.0028946
0.011824
0.025856
0.023943
0.029045
0.030002
0.025856
0.028088
0.043715
0.029045
0.020435
0.022986
0.015332
0.016608
0.022029
0.014694
0.0054459
0.015332
0.022029
0.024899
0.031278
0.034148
0.034148
0.031596
0.029364
0.034786
0.02777
0.017246
0.018202
0.01023
0.010548
0.014375
0.0067215
-0.0063538
0.0057648
0.012781
0.013419
0.020435
0.01884
0.012143
0.019797
0.022667
0.0089539
0.0054459
0.004808
-0.00061343
-0.0047593
-0.00029452
-0.0079484
-0.0066727
-0.015283
-0.002208
0.0089539
0.0089539
0.015332
0.016608
0.014056
0.015651
0.032553
0.017246
0.0057648
0.0054459
-0.0031647
-0.0025269
0.0076782
-0.0038025
-0.0079484
0.0028946
0.0038513
0.0089539
0.0054459
0.0131
0.019159
0.018521
0.016927
0.026813
0.022348
0.008635
0.0095917
-0.0041214
-0.0066727
0.0089539
0.0076782
-0.0105
0.0028946
0.0064026
0.0054459
0.010867
0.013738
0.0070404
0.01023
0.013419
0.0038513
0.0022568
-0.0063538
-0.014964
-0.018153
-0.014645
-0.01911
-0.01624
-0.027083
-0.018791
-0.010819
-0.012413
-0.0028458
-0.00061343
-0.0098618
-0.0050782
0.011186
-0.0015702
-0.013689
-0.0073105
-0.015921
-0.015921
-0.014645
-0.018791
-0.018472
-0.010819
-0.011775
-0.0050782
0.00066221
0.0076782
0.015332
0.0099106
0.0028946
0.01597
0.012462
0.00066221
-0.0060349
-0.009224
-0.0082673
-0.0034836
-0.0044404
-0.017516
-0.0085862
-0.0034836
-0.0038025
0.0067215
0.013419
0.0073593
0.012462
0.012143
0.015013
0.012462
0.014694
0.01023
-0.0053971
-0.0038025
0.0013
0.013419
0.0032135
0.008316
0.016608
0.014056
0.022348
0.028726
0.022986
0.023624
0.035423
0.02171
0.012781
0.011505
0.010867
0.011505
0.011824
0.0054459
-0.00029452
0.0016189
0.0060837
0.012143
0.015651
0.020116
0.022348
0.016289
0.014375
0.027132
0.0095917
-0.0073105
-0.013689
-0.023575
-0.0089051
-0.005716
-0.017516
-0.030591
-0.018791
-0.01337
-0.014327
-0.0073105
2.4388e-05
-0.002208
0.0035324
0.0044891
0.0060837
0.008635
0.0044891
0.00098112
-0.0041214
-0.0028458
-0.0034836
-0.00093234
-0.010181
0.00098112
0.0073593
0.0035324
0.011505
0.010867
0.0025757
0.0099106
0.018521
0.0025757
-0.0053971
-0.0038025
-0.01337
-0.014645
-0.0050782
-0.0089051
-0.0034836
-0.0053971
-0.0034836
0.010548
0.011186
0.019797
0.023305
0.019797
0.022348
0.035742
0.01884
0.0092728
0.012781
0.00066221
-0.00029452
-0.00061343
-0.0060349
-0.015283
-0.0018891
0.0016189
0.0019378
0.00066221
0.0051269
0.013738
0.01597
0.012143
0.0099106
0.010867
0.0051269
0.0013
-0.0076295
-0.0031647
0.0028946
0.0076782
-0.014964
-0.0044404
0.008635
0.0057648
0.011505
0.015013
0.004808
0.0079971
0.011186
-0.0050782
-0.011456
-0.014008
-0.022299
-0.02804
-0.027402
-0.035056
-0.030591
-0.028359
-0.03378
-0.018791
-0.012413
-0.012413
-0.0050782
-0.0053971
-0.0085862
0.017564
0.0099106
-0.0015702
0.010548
0.0035324
-0.0025269
0.0057648
0.0028946
0.0032135
0.016289
0.019797
0.022986
0.029045
0.037018
0.03638
0.039888
0.035104
0.044034
0.036061
0.028726
0.029045
0.022029
0.022029
0.02458
0.021391
0.0070404
0.019478
0.026494
0.02171
0.029683
0.02777
0.020754
0.02458
0.029364
0.020754
0.015332
0.0131
0.00098112
-0.0085862
-0.0041214
-0.005716
-0.0012513
-0.0085862
-0.0079484
0.0025757
0.00066221
0.0095917
0.011186
0.0035324
0.0025757
0.019159
0.0032135
-0.0047593
-0.00093234
-0.0082673
-0.012094
-0.010181
-0.014645
-0.016878
-0.011456
-0.0050782
-0.0053971
-0.0069916
2.4388e-05
0.0054459
0.0016189
-0.0034836
0.0019378
-0.0041214
-0.012094
-0.014645
-0.027083
-0.027721
-0.021343
-0.026126
-0.035375
-0.02804
-0.025807
-0.022299
-0.011775
-0.013051
-0.017516
-0.012732
-0.0098618
-0.015921
-0.019748
-0.026126
-0.033142
-0.031548
-0.023894
-0.028996
-0.022299
-0.033461
-0.016559
0.00098112
0.0025757
0.0035324
0.0095917
0.0057648
0.016289
0.035104
0.021072
0.01597
0.020116
0.011505
0.0089539
0.0076782
0.0060837
0.011505
0.016289
0.012462
0.015651
0.012143
0.020116
0.025537
0.023624
0.021072
0.03064
0.019478
0.0060837
0.0057648
2.4388e-05
-0.0018891
0.0057648
-0.0025269
-0.015602
0.0028946
0.0073593
0.0003433
0.008635
0.013419
0.010548
0.008635
0.0092728
0.00098112
0.0019378
-0.0015702
-0.0069916
-0.015283
-0.018153
-0.01911
-0.018153
-0.030591
-0.017197
-0.0041214
-0.0089051
0.0041702
0.01023
0.0019378
0.00098112
0.019797
0.0060837
0.0032135
0.0038513
-0.0015702
0.0019378
0.00098112
-0.0063538
-0.014008
-0.0034836
-0.00093234
-0.00029452
-0.00093234
0.00098112
0.0060837
-0.0012513
-0.0060349
0.0019378
-0.0038025
-0.014008
-0.0076295
-0.023575
-0.032186
-0.023894
-0.020067
-0.029315
-0.012413
-0.0028458
0.0016189
0.0057648
0.0073593
0.0079971
0.020435
0.022986
0.01884
0.016608
0.022029
0.023624
0.014056
0.015013
0.014694
0.020754
0.01597
0.01023
0.018521
0.01884
0.032234
0.028407
0.0099106
0.010867
0.021391
0.0070404
0.0003433
0.0013
-0.011775
-0.019429
-0.0082673
-0.013051
-0.016878
-0.0098618
-0.0015702
0.0070404
0.0028946
0.018202
0.031915
0.029045
0.023943
0.037656
0.029045
0.018202
0.022667
0.013419
0.014694
0.019797
0.0131
-0.0025269
0.0035324
0.0076782
0.01597
0.018202
0.014056
0.010867
0.008316
0.0038513
0.0073593
0.0003433
-0.0089051
-0.019429
-0.02198
-0.021343
-0.023256
-0.020386
-0.026126
-0.015921
-0.012413
-0.013051
0.0044891
0.0067215
0.0028946
0.0067215
0.015013
0.0060837
0.011824
0.015651
0.010548
0.01023
0.014375
0.0064026
0.0070404
0.01597
0.023943
0.035742
0.03638
0.041164
0.039569
0.026494
0.026813
0.041802
0.025537
0.017883
0.017564
0.0038513
-0.0050782
0.0022568
-0.005716
-0.013051
-0.0085862
-0.0095429
-0.0047593
0.0060837
0.0073593
0.0035324
0.0016189
-0.00093234
-0.00029452
-0.0038025
-0.013051
-0.017516
-0.023575
-0.024851
-0.021661
-0.022937
-0.040477
-0.026126
-0.013689
-0.01337
-0.00061343
-0.0015702
-0.0098618
-0.0012513
0.013738
0.0013
2.4388e-05
-0.002208
-0.010181
-0.012094
-0.010181
-0.010819
-0.0079484
-0.01337
-0.0095429
0.00066221
-0.0041214
0.0025757
0.0099106
0.0051269
-0.0012513
0.011824
0.0070404
-0.00029452
0.0089539
-0.0018891
-0.009224
-0.0034836
-0.009224
-0.014327
-0.0015702
0.0057648
0.0044891
0.0051269
0.010548
0.011824
0.011505
0.0067215
0.010548
0.0028946
-0.011456
-0.013689
-0.018791
-0.018153
-0.019748
-0.020386
-0.034099
-0.023894
-0.014008
-0.014964
-0.005716
-0.0025269
-0.0095429
-0.002208
0.0041702
-0.005716
-0.0044404
-0.00061343
-0.0060349
-0.0066727
-0.0060349
-0.0066727
-0.0098618
-0.014645
-0.0073105
0.0038513
-0.0018891
0.0035324
0.0038513
-0.0069916
-0.020067
2.4388e-05
-0.0105
-0.026126
-0.026764
-0.040158
-0.041434
-0.034737
-0.044304
-0.037607
-0.015283
-0.020067
-0.0073105
0.0038513
0.0057648
0.01597
0.022986
0.028726
0.037656
0.035104
0.027132
0.027132
0.020754
0.020435
0.023305
0.020754
0.0067215
0.014694
0.016289
0.008635
0.015013
0.015013
0.0092728
0.016927
0.012143
0.0076782
-0.0031647
-0.0073105
-0.0085862
-0.012094
-0.013689
-0.020386
-0.012413
-0.0028458
-0.0012513
-0.0015702
-0.0085862
0.012462
0.027132
0.020435
0.018202
0.033191
0.013419
0.011186
0.015013
0.0057648
0.004808
0.0073593
-0.0012513
-0.0038025
-0.00029452
-0.0012513
0.0041702
-0.00093234
0.0076782
0.010867
0.0095917
0.011186
0.029683
0.012462
0.0013
-0.00029452
-0.00061343
-0.00061343
0.0131
0.014375
0.01023
0.015332
0.019797
0.020754
0.029045
0.03638
0.031915
0.038294
0.034467
0.032553
0.024262
0.015013
0.012143
0.0003433
0.0064026
0.0003433
0.0019378
-0.011775
-0.0066727
-0.0018891
-0.0044404
0.0044891
0.0076782
0.00098112
0.00098112
0.0092728
-0.0050782
-0.0098618
0.004808
-0.0069916
-0.0085862
0.0013
-0.012413
-0.0063538
0.004808
0.012781
0.018202
0.019478
0.028407
0.034467
0.029045
0.027132
0.043077
0.028407
0.013419
-0.0089051
-0.0063538
-0.0041214
-0.0047593
-0.018791
-0.036012
-0.026126
-0.022618
-0.018153
-0.020386
-0.017835
-0.018472
-0.021661
-0.019429
-0.0098618
-0.012094
-0.02517
-0.024532
-0.028359
-0.024213
-0.031229
-0.017197
-0.023575
-0.01337
-0.019748
-0.012732
0.0076782
-0.00061343
-0.005716
-0.0066727
0.0044891
-0.011137
-0.01624
-0.014964
-0.020705
-0.010181
-0.014645
-0.024532
-0.015283
-0.018153
-0.01624
-0.0031647
0.014375
0.015013
0.020435
0.02171
0.035423
0.047542
0.032553
0.03064
0.042121
0.032553
0.038612
0.044034
0.037018
0.03064
0.04818
0.047223
0.035423
0.042758
0.050412
0.050412
0.052645
0.048499
0.040207
0.036061
0.03064
0.022029
0.013419
0.010867
0.019478
0.018202
0.0032135
0.018202
0.022986
0.016289
0.018202
0.024262
0.021391
0.017883
0.020754
0.0079971
0.0025757
0.0016189
-0.0105
-0.025488
-0.032504
-0.037288
-0.039202
-0.04271
-0.036331
-0.032823
-0.043028
-0.038883
-0.032504
-0.044623
-0.041434
-0.025488
-0.03952
-0.040158
-0.033142
-0.049407
-0.044942
-0.043985
-0.051958
-0.046218
-0.044942
-0.037607
-0.026445
-0.024851
-0.023894
-0.019748
-0.020067
-0.026126
-0.019429
-0.030272
-0.043347
-0.044942
-0.056423
-0.067903
-0.056742
-0.050682
-0.072049
-0.073644
-0.053234
-0.057379
-0.056423
-0.039839
-0.039202
-0.02804
-0.011775
-0.005716
0.020116
0.021072
0.015651
0.024899
0.026175
0.037975
0.048818
0.046904
0.051688
0.062212
0.058704
0.068271
0.032553
0.025537
0.025537
0.03925
0.023305
0.0099106
0.008316
-0.0085862
-0.024532
-0.014645
-0.021661
-0.022937
-0.02198
-0.016559
-0.012094
-0.012094
0.0028946
0.0038513
-0.0050782
-0.011456
0.0089539
-0.0085862
-0.020067
-0.019429
-0.027083
-0.014008
-0.0063538
-0.0073105
-0.038245
-0.023575
-0.010181
-0.017516
-0.0044404
-0.0015702
-0.010819
-0.009224
-0.0079484
-0.014645
-0.017197
-0.024532
-0.02804
-0.03091
-0.021024
-0.031548
-0.026445
-0.031229
-0.022299
-0.0069916
-0.0031647
0.0089539
0.0044891
-0.0041214
0.0051269
0.0089539
-0.0041214
-0.0089051
-0.0041214
-0.021661
-0.036969
-0.034737
-0.039202
-0.038564
-0.040477
-0.036331
-0.040158
-0.043666
-0.050044
-0.032186
-0.041434
-0.047493
-0.034418
-0.043666
-0.056742
-0.046218
-0.04271
-0.040158
-0.034099
-0.032186
-0.041753
-0.02517
-0.018791
-0.012413
0.012143
0.028726
0.032234
0.03064
0.019478
0.020435
0.026175
0.030959
0.026494
0.020435
0.024899
0.02171
0.021391
0.008635
0.0079971
0.022667
0.024899
0.027451
0.026494
0.018202
0.021391
0.031596
0.012462
0.0044891
0.0089539
-0.00061343
-0.0012513
-0.0028458
-0.012094
-0.013689
-0.0018891
-0.002208
0.0028946
0.0013
0.0044891
0.008316
0.0044891
0.0016189
0.012781
-0.0050782
-0.014645
-0.015602
-0.053552
-0.046855
-0.034737
-0.044942
-0.06025
-0.047493
-0.047174
-0.055147
-0.047812
-0.039202
-0.029634
-0.049407
-0.052596
-0.044942
-0.045899
-0.058974
-0.06025
-0.067266
-0.073006
-0.06886
-0.064077
-0.077152
-0.075238
-0.06312
-0.047493
-0.040158
-0.03665
-0.043985
-0.04271
-0.020705
-0.020386
-0.020386
-0.012413
-0.0063538
-0.01624
-0.014327
-0.015921
-0.029634
-0.047174
-0.023256
-0.0025269
-0.0105
-0.042391
-0.029953
-0.032823
-0.038564
-0.023894
-0.043028
-0.057061
-0.056742
-0.053234
-0.019429
-0.012094
-0.014964
-0.015921
0.0041702
0.028407
0.031915
0.036699
0.054239
0.068271
0.077838
0.072736
0.040845
0.04531
0.05105
0.048818
0.028407
0.023624
0.0060837
0.011824
0.0067215
0.017883
0.017564
0.019797
0.023943
0.042121
0.036699
0.032553
0.043396
0.022986
0.028726
0.041164
0.032234
0.026813
0.017246
0.0038513
0.0131
0.010548
0.0076782
0.012781
0.0089539
0.014694
0.016608
0.0054459
0.004808
0.01884
0.0038513
-0.009224
-0.0082673
-0.017835
-0.018791
-0.018153
-0.024532
-0.029953
-0.017197
-0.018472
-0.017516
-0.014645
-0.015921
-0.014008
-0.014645
-0.021024
-0.011137
-0.014327
-0.026764
-0.032823
-0.039839
-0.043028
-0.044304
-0.036012
-0.046218
-0.034099
-0.034737
-0.044623
-0.035694
-0.035694
-0.038883
-0.036331
-0.036969
-0.049088
-0.05132
-0.052277
-0.06312
-0.066309
-0.062482
-0.062163
-0.045899
-0.042072
-0.029953
-0.011775
-0.019429
-0.0085862
0.0016189
0.0079971
2.4388e-05
0.029364
0.017883
0.0070404
-0.010819
-0.013689
-0.015283
-0.0095429
-0.019748
-0.028678
-0.01911
-0.019429
-0.014645
0.00098112
0.010548
0.0057648
0.0092728
0.008316
0.023943
0.024899
0.022348
0.030002
0.018521
0.023943
0.031596
0.024899
0.011505
0.032234
0.037975
0.028726
0.028407
0.037975
0.030959
0.040526
0.031915
0.020435
0.0099106
0.0051269
-0.0012513
-0.0089051
-0.015283
-0.018153
-0.017516
-0.029634
-0.026764
-0.017516
-0.022937
-0.015921
-0.015602
-0.023894
-0.021343
-0.0085862
-0.02198
-0.029634
-0.024851
-0.03665
-0.037926
-0.034418
-0.04271
-0.039839
-0.031867
-0.03091
-0.025488
-0.02198
-0.01624
-0.0098618
-0.010181
-0.020067
-0.0025269
-0.0079484
-0.015283
-0.020705
-0.038883
-0.032186
-0.01911
-0.025488
-0.041434
-0.028359
-0.022937
-0.023575
-0.017197
-0.018153
-0.020386
-0.015921
-0.016559
-0.020386
-0.021661
-0.023894
-0.025488
-0.037607
-0.033142
-0.028359
-0.021024
-0.034737
-0.024532
-0.013051
-0.014645
-0.0053971
-0.0018891
-0.005716
-0.0034836
0.0092728
-0.0066727
-0.013689
-0.011137
-0.021024
-0.026445
-0.023575
-0.03091
-0.033142
-0.028678
-0.02804
-0.026445
-0.027083
-0.018472
-0.0095429
-0.013689
-0.01911
0.0073593
-0.0073105
-0.02198
-0.017197
-0.021661
-0.02517
-0.019429
-0.020386
-0.031867
-0.020067
-0.012732
-0.012413
-0.013051
-0.010181
-0.013051
-0.011456
-0.018791
-0.012413
-0.0085862
-0.021343
-0.016878
-0.0069916
-0.00061343
-0.01337
-0.0050782
-0.013689
0.0073593
0.023943
0.026175
0.03638
0.03925
0.032872
0.039569
0.050093
0.028407
0.028088
0.028407
0.019159
0.0060837
-0.0076295
-0.00093234
0.015651
0.0013
-0.0095429
-0.0012513
-0.00061343
0.0099106
0.008635
0.0028946
0.0019378
0.010867
-0.00061343
-0.0066727
-0.022618
-0.033142
-0.032504
-0.017197
-0.024213
-0.034418
-0.023575
-0.024851
-0.033142
-0.024851
-0.018153
-0.013689
-0.0047593
-0.0076295
0.0032135
0.0019378
-0.0098618
-0.011456
-0.020067
-0.009224
-0.002208
-0.0015702
-0.014645
-0.0069916
0.0041702
0.0022568
0.0044891
0.0060837
-0.0031647
0.0003433
0.011505
-0.0098618
-0.018791
-0.011137
-0.01911
-0.017516
-0.021343
-0.020386
-0.011456
-0.017835
-0.015283
-0.00029452
0.0003433
0.011186
0.020116
0.014375
0.015013
0.026813
0.014375
0.010548
0.0089539
-0.0073105
-0.0085862
-0.010819
-0.0105
-0.014008
-0.0041214
-0.0034836
-0.0079484
-0.005716
0.0051269
0.0131
0.012781
0.0035324
0.013419
0.0089539
-0.002208
-0.0079484
-0.0095429
-0.0034836
-0.0031647
-0.0047593
-0.013689
-0.0031647
0.0076782
-0.0015702
0.011505
0.020116
0.012781
0.011824
0.025537
0.010867
0.0028946
0.011505
0.0099106
0.0038513
0.0067215
-0.0015702
0.0079971
0.0019378
0.0060837
0.020116
0.012781
0.01884
0.029364
0.017246
0.02458
0.031915
0.010867
0.0022568
0.0067215
-0.0060349
-0.0073105
-0.01337
-0.01911
-0.023256
-0.012413
-0.017516
-0.019748
-0.021343
-0.0073105
-0.0012513
0.0003433
-0.0069916
-0.0047593
-0.012094
-0.017197
-0.017197
-0.019748
-0.017835
-0.009224
-0.0076295
-0.021343
-0.005716
0.0051269
0.0067215
0.015651
0.021072
0.010548
0.0028946
0.025856
0.021072
0.018202
0.0076782
0.00098112
-0.0050782
-0.0053971
-0.0066727
-0.002208
-0.0041214
0.0044891
0.017246
0.012462
0.016608
0.012462
0.01023
0.022667
0.034786
0.015013
0.0038513
0.0095917
0.008635
0.0025757
-0.0031647
-0.012094
-0.011775
0.0003433
0.0067215
0.015332
0.01597
0.019478
0.02171
0.022667
0.020754
0.03638
0.027451
0.013738
0.0044891
-0.005716
-0.0050782
0.0028946
-0.0047593
-0.023894
-0.018153
-0.015921
-0.013051
-0.014327
-0.011456
-0.0079484
-0.0073105
-0.0060349
-0.011137
-0.013689
-0.017197
-0.014008
-0.017197
-0.016559
-0.012094
-0.0028458
-0.014327
-0.0025269
0.0060837
0.0079971
0.017246
0.017564
0.011824
0.020116
0.02171
0.0131
0.0073593
0.0092728
-0.0076295
-0.013051
-0.0076295
-0.011456
-0.0018891
0.0032135
-0.0034836
-0.00061343
0.00098112
0.015651
0.023624
0.022986
0.018202
0.025218
0.013419
0.0044891
0.0092728
-0.0047593
-0.0063538
-0.00093234
-0.009224
-0.020705
-0.0079484
-0.0044404
-0.005716
-0.00061343
0.0057648
0.0089539
0.015332
0.011824
0.0041702
0.0044891
0.0051269
0.0054459
-0.00061343
0.0032135
0.0025757
0.0044891
-0.0073105
0.0016189
0.014694
0.012781
0.017246
0.013738
0.0079971
0.0131
0.023305
0.0044891
0.0025757
0.0070404
-0.012094
-0.0028458
0.0019378
-0.012094
-0.021024
-0.011456
-0.0050782
0.0041702
0.0092728
0.015332
0.022029
0.0095917
0.0070404
0.02458
0.01023
-0.0015702
0.0016189
-0.0047593
-0.0060349
-0.0085862
-0.013051
-0.022618
-0.015283
-0.011775
-0.0105
-0.0050782
0.00098112
0.0067215
0.0095917
-0.0018891
0.0022568
0.0032135
-0.00061343
-0.0044404
-0.0060349
-0.0018891
2.4388e-05
0.00098112
-0.013689
-0.0028458
0.0070404
0.0067215
0.0131
0.0131
0.0038513
0.01023
0.015013
-0.0034836
-0.0089051
-0.0060349
-0.015602
-0.020705
-0.020705
-0.024532
-0.020386
-0.02517
-0.023575
-0.012094
-0.0085862
0.0038513
0.0060837
-0.0015702
-0.00061343
0.017246
0.0089539
0.0016189
0.0035324
-0.0050782
-0.0031647
0.0038513
-0.0041214
-0.011775
0.0079971
0.0073593
0.0099106
0.015651
0.016289
0.018202
0.016289
0.0131
0.019159
0.0131
0.0028946
0.0028946
-0.0095429
-0.0105
-0.0034836
-0.0018891
-0.014645
-0.0031647
0.0038513
0.0051269
0.01884
0.016927
0.013419
0.016608
0.024899
0.017883
0.010548
0.016927
0.0095917
-0.0050782
0.0025757
0.00098112
-0.0047593
-0.011775
-0.009224
0.0025757
0.0099106
0.013419
0.0073593
-0.0031647
0.00098112
0.018202
0.0003433
-0.0034836
-0.00061343
-0.01337
-0.017197
-0.010181
-0.013689
-0.019748
-0.0085862
-0.0044404
-0.0015702
0.0028946
0.0003433
0.0019378
0.0051269
-0.00093234
0.010867
0.0035324
-0.0082673
-0.005716
-0.016878
-0.016878
-0.0053971
-0.0073105
-0.020067
-0.0044404
0.0076782
0.004808
0.0092728
0.012781
0.012781
0.021072
0.020754
0.012462
0.014056
0.012462
0.0019378
-0.0089051
-0.0034836
-0.0076295
-0.0044404
-0.0098618
-0.0066727
0.0025757
-0.0015702
0.0092728
0.010867
0.0013
0.0041702
0.017246
0.004808
-0.0044404
-0.002208
-0.014327
-0.012094
-0.0053971
-0.011456
-0.015283
-0.0079484
-0.0076295
2.4388e-05
0.0013
0.0079971
0.008316
0.0076782
0.0092728
0.021072
0.015651
0.0003433
0.0019378
-0.0073105
-0.0053971
0.0013
2.4388e-05
-0.0066727
0.008635
0.013419
0.010867
0.020435
0.024262
0.024262
0.029364
0.030002
0.024899
0.020754
0.017246
0.013738
0.008635
0.0051269
0.0019378
0.0057648
-0.0073105
0.0025757
0.011186
0.010867
0.020435
0.019797
0.010867
0.018202
0.034467
0.016927
0.014694
0.023305
0.0044891
0.0070404
0.01884
0.016927
0.014694
0.014694
0.013738
0.017564
0.021391
0.029364
0.033191
0.028726
0.023624
0.038294
0.022029
0.0057648
0.0079971
-0.0034836
-0.0085862
0.0051269
0.0032135
-0.018472
-0.0050782
0.0016189
-0.00061343
0.0051269
0.0019378
0.00066221
0.0095917
0.0070404
0.00098112
-0.0031647
-0.0079484
-0.014008
-0.020386
-0.015283
-0.018472
-0.017516
-0.028678
-0.018472
-0.0073105
-0.0069916
0.0022568
0.0032135
-0.0085862
0.0013
0.017883
0.013738
0.0079971
0.0025757
-0.0012513
0.0032135
0.004808
-0.00029452
0.010548
0.013419
0.01597
0.025856
0.020116
0.026813
0.030321
0.024899
0.02458
0.039888
0.023943
0.010867
0.01023
0.0035324
0.0016189
0.0076782
-0.0018891
-0.0095429
0.0057648
0.0095917
0.010867
0.01597
0.019478
0.019478
0.023624
0.022029
0.023305
0.017883
0.0099106
0.011824
0.0051269
0.0038513
0.0044891
0.0057648
-0.0085862
0.0051269
0.015013
0.0095917
0.015651
0.018521
0.0131
0.019478
0.025537
0.010867
0.0089539
0.013419
0.0028946
-0.0041214
-0.0031647
-0.0038025
0.0028946
-0.00029452
-0.00061343
0.0092728
0.013419
0.020116
0.023624
0.017564
0.01597
0.030959
0.017883
0.0089539
0.013419
0.0076782
0.0070404
0.011505
0.0041702
-0.002208
0.010867
0.013738
0.016289
0.020754
0.029045
0.031278
0.025856
0.02171
0.031278
0.022986
0.012781
0.011505
0.0025757
0.0016189
0.0041702
-0.00061343
-0.014964
2.4388e-05
0.0064026
0.0025757
0.010548
0.01023
0.0079971
0.017246
0.026494
0.01023
0.0019378
0.0073593
0.0070404
0.004808
0.0067215
-0.0012513
0.0041702
-0.00093234
0.0051269
0.018521
0.015651
0.020754
0.022348
0.014375
0.018202
0.035104
0.020435
0.013738
0.012462
0.0016189
0.0054459
0.013738
0.0079971
-0.0031647
0.0089539
0.0131
0.01884
0.020435
0.024899
0.02458
0.024899
0.01884
0.029364
0.02171
0.012462
0.010867
-0.0015702
-0.0012513
0.0070404
0.0044891
-0.009224
0.0044891
0.011824
0.0076782
0.013738
0.016289
0.01597
0.018521
0.020435
0.0099106
0.0070404
0.0057648
-0.0015702
-0.0079484
-0.009224
-0.0089051
-0.0076295
-0.018153
-0.0079484
0.0025757
-0.002208
0.0073593
0.0041702
2.4388e-05
0.0060837
0.023624
0.012143
0.0041702
0.01023
2.4388e-05
-0.00029452
0.0028946
-0.00061343
0.0051269
0.012462
0.0099106
0.016927
0.022348
0.025856
0.032234
0.025537
0.022986
0.034148
0.024899
0.015332
0.014694
0.0076782
0.0067215
0.012781
0.0051269
-0.0050782
0.0079971
0.013738
0.011824
0.020754
0.022667
0.01884
0.021391
0.023305
0.017246
0.015651
0.01023
0.0057648
-0.00061343
0.0019378
-0.0031647
-0.002208
-0.0076295
0.004808
0.011505
0.0089539
0.014375
0.017246
0.0095917
0.017883
0.028726
0.015013
0.014375
0.019159
0.0057648
0.0032135
0.012462
0.0076782
0.0044891
0.0095917
0.015651
0.020116
0.02171
0.030002
0.036699
0.026494
0.023305
0.034786
0.022029
0.010867
0.013419
0.00098112
-0.00061343
0.0041702
-0.0073105
-0.015921
-0.0031647
0.0022568
-0.0018891
-0.00061343
-0.00093234
0.0003433
0.0067215
0.0076782
0.0070404
-0.00093234
-0.0063538
-0.0095429
-0.013051
-0.0050782
-0.0015702
0.0022568
-0.011775
0.0025757
0.011505
0.012143
0.023624
0.026175
0.01884
0.020754
0.030959
0.016608
0.012781
0.015013
0.0064026
0.0025757
0.0003433
-0.0053971
-0.0066727
-0.0053971
0.0003433
0.0076782
0.0041702
0.0095917
0.013419
0.0054459
0.004808
0.019797
0.0073593
-0.005716
-0.00093234
-0.011456
-0.0105
-0.0060349
-0.011137
-0.015283
2.4388e-05
0.0057648
0.008635
0.012143
0.017246
0.018202
0.027132
0.024899
0.027132
0.023943
0.016608
0.014056
0.008316
0.012462
0.015332
0.014694
-0.002208
0.008316
0.017883
0.013738
0.023624
0.024262
0.018202
0.018521
0.025218
0.012143
0.0092728
0.0095917
-0.0028458
-0.0082673
-0.0041214
-0.0089051
-0.0034836
-0.0069916
-0.0018891
-0.0038025
0.00098112
0.013419
0.018202
0.0070404
0.0095917
0.02458
0.0041702
-0.0015702
0.0041702
-0.0025269
-0.0089051
-0.0028458
-0.0079484
-0.015283
-0.00061343
0.0016189
0.0028946
0.0095917
0.014056
0.016608
0.016608
0.013738
0.022029
0.018521
0.0076782
0.0025757
-0.0015702
0.0035324
0.0076782
0.0054459
-0.0089051
0.0060837
0.018202
0.014375
0.018521
0.020435
0.017246
0.021072
0.024899
0.013738
0.011824
0.01023
0.0025757
-0.0018891
-0.00029452
-0.0085862
-0.0069916
-0.016559
-0.0073105
0.0038513
0.0019378
0.008316
0.0099106
0.0025757
0.004808
0.018202
0.0035324
-0.0060349
2.4388e-05
-0.0085862
-0.010181
-0.0060349
-0.011775
-0.013051
-0.0025269
0.00066221
0.0022568
0.0095917
0.016608
0.017246
0.017564
0.01884
0.028088
0.019478
0.0067215
0.0051269
2.4388e-05
-0.0044404
0.0073593
-0.00061343
-0.0098618
0.0054459
0.008635
0.0092728
0.013419
0.016608
0.0131
0.015332
0.023305
0.01597
0.015013
0.0131
0.0044891
2.4388e-05
0.0035324
0.00098112
0.0057648
-0.0060349
0.0035324
0.014694
0.0131
0.018521
0.020754
0.010867
0.015013
0.028407
0.014694
0.0095917
0.012143
-0.00061343
-0.0028458
0.00098112
-0.0028458
-0.0069916
-0.00093234
0.0022568
0.0099106
0.01023
0.017246
0.018521
0.01597
0.015651
0.029045
0.015651
0.0028946
0.0038513
-0.0050782
-0.0069916
0.0028946
-0.0018891
-0.014327
-0.0044404
-0.0012513
-0.00061343
0.011505
0.013419
0.014694
0.020435
0.015332
0.013419
0.0131
0.01023
0.0057648
0.0035324
0.0038513
0.0044891
0.0073593
-0.0047593
0.0073593
0.019478
0.018202
0.024262
0.023624
0.01597
0.020435
0.033191
0.018202
0.014056
0.017246
0.0057648
0.0028946
0.0079971
0.0016189
-0.0025269
0.0022568
0.0060837
0.013419
0.012781
0.01597
0.019797
0.010867
0.014694
0.03064
0.015332
0.0028946
0.0022568
-0.009224
-0.0085862
-0.0034836
-0.0073105
-0.017516
-0.00061343
0.0019378
-0.0044404
0.0028946
0.01023
0.0131
0.012143
0.010548
0.0073593
0.0073593
0.0051269
-0.00061343
-0.0063538
-0.0053971
-0.0038025
0.00098112
-0.012094
-0.0044404
0.004808
0.0076782
0.0131
0.016927
0.01023
0.013419
0.021072
0.0079971
0.004808
0.0041702
-0.0082673
-0.016559
-0.011775
-0.01337
-0.0063538
-0.01337
-0.016559
-0.0066727
-0.0015702
0.0016189
0.0044891
0.0013
0.0022568
0.015651
0.0044891
-0.0047593
-0.002208
-0.015283
-0.0105
0.00098112
-0.0069916
-0.016878
-0.002208
0.0044891
0.0028946
0.0067215
0.004808
0.0079971
0.015332
0.008635
0.015013
0.011186
-0.0063538
-0.0050782
-0.017835
-0.017197
-0.0053971
-0.0063538
-0.022618
-0.0085862
0.0032135
-0.0041214
0.0076782
0.0070404
0.0079971
0.014375
0.018202
0.0057648
0.0073593
0.0079971
0.0022568
-0.0031647
-0.0018891
-0.0069916
-0.0028458
-0.0044404
-0.00061343
0.0092728
0.0079971
0.019478
0.02171
0.013419
0.016289
0.029364
0.013738
0.0035324
0.012781
0.0016189
-0.0015702
0.0099106
0.0079971
0.0019378
0.015013
0.012462
0.01884
0.025537
0.034467
0.03638
0.032553
0.030959
0.045629
0.03638
0.028088
0.023624
0.015332
0.0064026
0.011824
-0.00029452
-0.023256
-0.005716
-0.005716
-0.0089051
-0.0060349
-0.0069916
-0.01337
-0.018472
-0.027083
-0.036331
-0.035694
-0.028996
-0.03378
-0.031229
-0.040477
-0.043347
-0.037926
-0.044304
-0.030591
-0.013689
-0.014964
-0.009224
-0.009224
-0.015283
-0.036331
-0.024213
-0.027402
-0.032823
-0.031229
-0.040158
-0.043028
-0.044623
-0.055466
-0.049407
-0.029953
-0.017197
-0.019429
-0.0047593
-0.0082673
0.015651
0.0095917
0.019797
0.030321
0.026175
0.026175
0.01597
0.0016189
0.015013
0.021391
0.02171
0.0025757
0.022348
0.031278
0.027451
0.023943
0.046585
0.042121
0.028088
0.029683
0.023305
0.02777
0.02777
-0.0073105
-0.0012513
-0.005716
-0.0069916
-0.010181
-0.026764
-0.025807
-0.0069916
0.00066221
0.0025757
0.0051269
-0.0012513
-0.005716
0.0079971
-0.02198
-0.029953
-0.043985
-0.053234
-0.054828
-0.06025
-0.072687
-0.078746
-0.081617
-0.085443
-0.066947
-0.059293
-0.052915
-0.046218
-0.023256
-0.014008
0.012462
0.0131
-0.0076295
-0.0044404
0.01597
0.022348
0.039888
0.030959
0.028407
0.049455
0.056471
0.05105
0.057747
0.050731
0.052645
0.045947
0.05679
0.054239
0.059342
0.07146
0.053601
0.022986
0.049137
0.052645
0.05105
0.03064
0.033829
0.050412
0.05392
0.060617
0.058385
0.049455
0.050412
0.052326
0.029683
0.029683
0.040207
0.019159
0.0060837
-0.0047593
-0.016878
-0.019748
-0.03665
-0.041115
-0.029315
-0.036969
-0.037607
-0.043347
-0.051001
-0.059931
-0.049088
-0.056104
-0.071411
-0.064714
-0.064714
-0.062482
-0.059931
-0.066309
-0.089908
-0.055466
-0.040158
-0.069817
-0.079703
-0.081298
-0.088952
-0.086081
-0.10011
-0.11096
-0.1336
-0.14954
-0.14317
-0.15624
-0.18718
-0.169
-0.15018
-0.16007
-0.1438
-0.12977
-0.1151
-0.10203
-0.080979
-0.073006
-0.04845
-0.040477
-0.044623
-0.025807
-0.0066727
-0.019429
-0.012413
-0.012732
-0.029315
-0.02517
-0.021343
-0.020386
-0.015921
-0.022618
-0.014964
-0.017197
-0.035375
-0.060887
-0.052277
-0.075238
-0.0864
-0.082573
-0.081935
-0.075238
-0.073963
-0.093097
-0.082892
-0.059293
-0.081935
-0.057698
-0.060887
-0.031229
-0.023894
-0.010819
-0.015921
-0.011775
-0.0044404
-0.0050782
0.0032135
-0.01337
0.0057648
0.016289
0.0073593
0.0003433
0.012143
0.0060837
0.023943
0.027451
0.011824
0.0054459
0.0016189
0.0067215
-0.0044404
-0.009224
-0.021343
-0.059931
-0.061525
-0.052596
-0.054509
-0.054828
-0.075557
-0.071093
-0.073006
-0.048769
-0.049407
-0.062163
-0.073006
-0.080341
-0.063758
-0.074919
-0.080022
-0.072049
-0.11128
-0.10904
-0.090227
-0.079703
-0.064714
-0.038883
-0.045261
-0.047812
-0.028359
0.0041702
0.017246
0.01023
0.008316
-0.002208
0.0038513
2.4388e-05
-0.036331
-0.035375
-0.037288
-0.043985
-0.073325
-0.0864
-0.069498
-0.072049
-0.096605
-0.074601
-0.040477
-0.050682
-0.069498
-0.059612
-0.044942
-0.043028
-0.023894
-0.029953
-0.068222
-0.066628
-0.022299
-0.0028458
-0.0063538
-0.039202
-0.039202
-0.063439
-0.045899
-0.048131
-0.073006
-0.090865
-0.08066
-0.1049
-0.13487
-0.13615
-0.14923
-0.14923
-0.18431
-0.1792
-0.18335
-0.18399
-0.16326
-0.13169
-0.095968
-0.06599
-0.058017
-0.077471
-0.081298
0.0016189
-0.024213
-0.036331
-0.06886
-0.049088
-0.069498
-0.037607
-0.032823
-0.06025
-0.07173
-0.070136
-0.07173
-0.061206
-0.043985
-0.052915
-0.052596
-0.049088
-0.00029452
0.011824
0.016927
0.024899
0.0044891
0.015332
0.032553
0.052007
0.048499
0.056471
0.060298
0.067952
0.070503
0.067314
0.050731
0.04818
0.054239
0.046585
0.043077
0.042758
0.016289
0.026813
0.019797
-0.0053971
0.011505
-0.0038025
-0.0069916
0.0041702
0.0051269
0.01597
0.0131
-0.00093234
-0.042072
-0.026445
-0.036969
-0.065033
-0.076195
-0.096286
-0.068222
-0.12084
-0.1387
-0.15528
-0.1572
-0.14795
-0.19515
-0.16039
-0.1808
-0.18781
-0.19036
-0.15752
-0.2028
-0.18749
-0.18367
-0.1387
-0.16836
-0.1977
-0.21301
-0.16964
-0.16039
-0.12722
-0.15465
-0.14604
-0.12754
-0.10809
-0.1218
-0.16453
-0.083849
-0.088633
-0.094054
-0.09533
-0.088314
-0.094692
-0.065352
-0.059293
-0.039839
-0.0047593
0.027132
0.042758
0.06285
0.072736
0.088681
0.079114
0.1126
0.14353
0.13875
0.11356
0.1059
0.084854
0.087406
0.078795
0.050731
0.050412
0.071779
0.042758
0.032872
0.014056
0.0016189
-0.0060349
-0.0047593
0.0060837
0.030959
0.022348
0.0022568
0.00066221
-0.026445
-0.0050782
0.010548
-0.0082673
-0.064077
-0.056742
-0.037288
-0.077471
-0.081617
-0.079065
-0.11478
-0.14093
-0.16294
-0.16294
-0.1556
-0.17506
-0.16517
-0.15273
-0.16485
-0.20025
-0.1926
-0.15337
-0.11383
-0.11702
-0.097881
-0.098519
-0.1049
-0.12563
-0.12052
-0.14476
-0.1505
-0.14508
-0.12722
-0.16708
-0.19993
-0.20503
-0.191
-0.16964
-0.18462
-0.17059
-0.14253
-0.099794
-0.064395
-0.064077
-0.057698
-0.010819
0.02777
0.044991
0.054877
0.061893
0.04531
0.064763
0.1008
0.1193
0.10399
0.066677
0.078157
0.053282
0.044353
0.07433
0.026494
2.4388e-05
-0.0079484
-0.052915
-0.065033
-0.013689
-0.036969
-0.081298
-0.066947
-0.032823
-0.082892
-0.12913
-0.064714
-0.080341
-0.052596
-0.048769
-0.014645
-0.011137
-0.012094
0.010867
-0.033461
-0.038883
0.01023
0.0038513
0.027132
0.042121
0.040207
0.041802
0.018202
0.035423
0.048818
0.037975
-0.0012513
0.046585
0.0003433
-0.0034836
-0.066947
-0.085443
-0.091184
-0.12563
-0.16549
-0.14699
-0.14412
-0.15082
-0.1572
-0.16645
-0.14508
-0.13551
-0.11096
-0.091503
-0.088314
-0.054828
-0.029953
-0.032504
-0.011775
-0.014327
-0.0105
-0.0034836
0.024899
0.033829
0.065082
0.023305
0.020435
0.0044891
0.02458
0.037018
0.024899
-0.0050782
-0.066309
-0.055466
-0.078746
-0.075238
-0.066947
-0.10904
-0.10171
-0.1269
-0.15592
-0.14827
-0.068541
-0.06599
-0.030272
-0.051001
-0.077471
-0.099157
-0.097881
-0.059612
-0.017516
-0.02517
-0.04271
-0.042072
-0.084168
-0.070774
-0.11319
-0.12212
-0.10617
-0.070774
-0.082573
-0.082892
-0.068541
-0.11191
-0.081617
-0.094054
-0.080341
-0.083849
-0.070136
-0.071093
-0.049088
-0.0864
-0.060887
-0.053234
-0.014964
-0.0060349
-0.009224
0.0067215
0.048818
0.06572
0.082622
0.097611
0.08326
0.10016
0.080709
0.064763
0.084217
0.095378
0.06859
0.058066
0.059661
0.038931
0.059023
0.064125
0.058066
0.08039
0.08613
0.088362
0.084217
0.092189
0.074968
0.049137
0.049774
0.050093
0.020435
-0.009224
-0.0018891
-0.027083
-0.068541
-0.087357
-0.10553
-0.10617
-0.1336
-0.14125
-0.13551
-0.15018
-0.16517
-0.15146
-0.21875
-0.22289
-0.22576
-0.24649
-0.24745
-0.22959
-0.23724
-0.27615
-0.26945
-0.27966
-0.25351
-0.19451
-0.2162
-0.22608
-0.17059
-0.13169
-0.13137
-0.12148
-0.061525
-0.005716
0.044991
0.035423
0.0095917
0.077201
0.16777
0.17255
0.12408
0.12631
0.14066
0.18754
0.16873
0.15374
0.14577
0.12982
0.10303
0.11579
0.11738
0.10431
0.11579
0.088044
0.050093
0.062531
0.10112
0.086768
0.09793
0.099843
0.068271
0.040526
0.022348
0.032234
0.022348
0.004808
-0.014008
-0.036012
-0.037607
-0.058336
-0.055466
-0.057061
-0.061844
-0.069817
-0.023894
-0.031548
-0.058017
-0.015921
0.0044891
-0.0079484
-0.037607
-0.04271
-0.022299
-0.042072
-0.039839
-0.084168
-0.10649
-0.13041
-0.15178
-0.16677
-0.18112
-0.1639
-0.18909
-0.20472
-0.19483
-0.1859
-0.14253
-0.17123
-0.15465
-0.15847
-0.16645
-0.12084
-0.051958
-0.10745
-0.090546
-0.064714
-0.068541
-0.061844
-0.065671
-0.070136
-0.067266
-0.027402
-0.10107
-0.10617
-0.062482
-0.053234
-0.04845
-0.044942
-0.012094
-0.021343
-0.0012513
0.046904
0.075287
0.11675
0.11419
0.11005
0.15757
0.13875
0.1582
0.16012
0.1531
0.15852
0.14098
0.096654
0.081028
0.073055
0.064444
0.044353
0.010548
-0.0050782
-0.0044404
0.0070404
0.014694
-0.023575
-0.058336
-0.056104
-0.044942
-0.054828
-0.033142
-0.038245
-0.054828
-0.053234
-0.054828
-0.036012
-0.03378
-0.022299
-0.027402
-0.02198
-0.024532
-0.07173
-0.039839
-0.073006
-0.069498
-0.047812
-0.060569
-0.11415
-0.10203
-0.11415
-0.081935
-0.056742
-0.028996
-0.029953
-0.0095429
-0.036969
0.0089539
0.047542
0.081346
0.07433
0.10526
0.089319
0.051369
0.070503
0.067314
0.027451
-0.024213
-0.037607
-0.064077
-0.073644
-0.1167
-0.1269
-0.1269
-0.16166
-0.13838
-0.13806
-0.12913
-0.13679
-0.09533
-0.075557
-0.091184
-0.064395
-0.053234
-0.065033
-0.037288
0.020116
0.071779
0.037018
0.014375
0.03925
0.049774
0.064444
0.049137
0.051688
0.052007
0.066995
0.044991
0.057428
0.010548
-0.0085862
-0.005716
0.017246
0.022348
0.037656
0.0054459
-0.0044404
-0.017835
0.013419
0.0013
-0.015283
-0.024851
-0.022937
-0.064395
-0.085125
-0.099157
-0.13009
-0.13647
-0.14731
-0.14604
-0.15943
-0.16294
-0.16485
-0.15241
-0.14827
-0.11383
-0.11128
-0.10968
-0.058655
-0.027402
-0.07779
-0.052915
0.017246
0.010548
0.027451
0.037656
0.045947
0.03351
0.0003433
0.008316
0.041164
0.022029
0.018521
0.031915
0.047861
0.0079971
0.011186
0.03064
0.067314
0.039569
0.022986
0.021391
0.082941
0.052645
0.05679
0.059023
0.094103
0.074968
0.079114
0.081665
0.097611
0.066677
0.0013
0.029683
0.0131
-0.0047593
-0.023256
-0.028996
-0.020067
-0.062482
-0.1033
-0.09533
-0.074282
-0.098519
-0.09246
-0.065671
-0.062163
-0.11096
-0.10522
-0.090227
-0.11383
-0.11191
-0.079065
-0.075876
-0.090546
-0.086719
-0.057698
-0.051639
-0.047174
-0.027402
-0.0069916
-0.010181
0.0057648
0.015332
-0.0041214
-0.019429
0.010548
0.026494
0.013738
-0.016559
-0.041115
-0.023256
-0.017516
-0.045899
-0.035694
-0.017197
-0.029315
-0.026126
-0.00093234
0.0057648
0.024899
0.022348
0.015332
0.022667
0.023624
0.013419
0.004808
-0.00093234
0.0054459
0.0092728
-0.0012513
-0.016559
0.022986
0.013738
0.0041702
0.0041702
-0.024213
-0.046218
-0.057379
-0.022618
-0.059931
-0.072687
-0.097243
-0.11223
-0.12307
-0.12658
-0.10139
-0.06599
-0.12499
-0.13456
-0.093735
-0.059293
-0.043028
-0.080022
-0.094054
-0.053234
-0.047812
-0.06599
-0.061206
-0.037288
-0.083211
-0.10713
-0.095649
-0.11351
-0.12595
-0.11638
-0.11606
-0.11446
-0.12339
-0.11064
-0.08927
-0.053234
-0.06886
-0.053552
-0.040477
-0.028678
-0.0015702
0.030002
0.058385
0.04531
0.072736
0.071779
0.11515
0.12855
0.14672
0.15725
0.1665
0.18308
0.18276
0.17925
0.17542
0.16873
0.1531
0.12153
0.10208
0.11547
0.12185
0.10654
0.05392
0.042121
0.064125
0.074012
0.065082
-0.0063538
-0.064395
-0.031548
-0.022937
-0.080979
-0.097562
-0.11064
-0.15656
-0.17474
-0.17346
-0.19196
-0.21939
-0.21492
-0.21811
-0.22098
-0.22481
-0.18207
-0.1792
-0.17601
-0.19706
-0.17346
-0.1438
-0.11989
-0.094054
-0.091822
-0.074282
-0.060569
-0.05419
-0.021343
0.0028946
0.022348
0.054877
0.096654
0.11515
0.1059
0.15406
0.14513
0.12536
0.11643
0.14481
0.14098
0.098249
0.13205
0.1244
0.096654
0.089
0.08039
0.028726
-0.005716
0.014694
-0.0025269
-0.02517
-0.03378
-0.027083
-0.054828
-0.077152
-0.085125
-0.085125
-0.055785
-0.08353
-0.11638
-0.11415
-0.049726
-0.04271
-0.056423
-0.065671
-0.052915
-0.029953
-0.0028458
-0.022618
-0.014327
-0.0085862
-0.012094
-0.0066727
-0.011775
-0.0079484
-0.0031647
-0.0031647
-0.021343
-0.025488
-0.014327
-0.026126
-0.029315
-0.034418
-0.021661
-0.022618
-0.041753
-0.061525
-0.063439
-0.067903
-0.10745
-0.091184
-0.084168
-0.090865
-0.086081
-0.07779
-0.072687
-0.053234
-0.039839
-0.036012
-0.037288
-0.039202
-0.018791
0.012781
-0.011456
0.0019378
0.048818
0.0070404
-0.00093234
0.029045
0.043396
0.020754
0.022986
0.03351
0.029683
0.019797
0.038931
0.069228
0.026175
0.014375
0.008635
-0.0025269
-0.011137
-0.028678
-0.018153
-0.035375
-0.034737
-0.041753
-0.056742
-0.042072
-0.02804
-0.015602
-0.013689
0.0035324
2.4388e-05
0.0073593
0.019159
0.013419
-0.041753
-0.03952
-0.0031647
0.0073593
-0.0050782
-0.0095429
-0.036012
-0.03952
-0.029953
-0.0073105
0.0044891
-0.015921
-0.020067
-0.0085862
0.031915
0.032234
-0.032823
-0.04558
0.012462
0.0092728
-0.012413
-0.020705
-0.042072
-0.049088
-0.071411
-0.030272
-0.010819
-0.026764
-0.058974
-0.034418
-0.055785
-0.058336
-0.043028
-0.051001
-0.062482
-0.058655
-0.068222
-0.067903
-0.047493
-0.053871
-0.062163
-0.047812
-0.045261
-0.036331
-0.027083
-0.011456
-0.014645
-0.00093234
-0.0082673
-0.018153
-0.012094
0.01023
-0.015283
0.0038513
-0.019748
-0.0063538
-0.0063538
-0.023575
-0.012413
0.032553
0.0057648
0.016608
0.013738
0.00098112
0.0016189
0.0016189
0.012143
0.0041702
-0.02198
-0.046218
-0.028359
-0.00093234
-0.032504
-0.018791
-0.031548
-0.015283
-0.022937
-0.020705
0.028726
0.024262
0.023624
0.03351
0.046266
0.008635
-0.002208
0.011824
-0.00093234
-0.012413
-0.0073105
-0.021024
-0.024213
-0.031867
-0.054828
-0.034099
-0.037926
-0.06599
-0.056423
-0.042391
-0.046536
-0.042391
-0.047174
-0.061206
-0.03665
-0.009224
-0.010181
0.014375
0.030959
0.034148
0.027132
0.028726
0.025218
0.046904
0.072098
0.081984
0.071779
0.076563
0.031915
0.02458
-0.014964
-0.0018891
0.024899
-0.009224
-0.0044404
-0.039839
-0.034737
-0.012413
-0.026764
-0.0028458
0.0067215
0.025537
0.0067215
-0.017516
0.027132
0.028726
-0.0038025
0.014694
-0.009224
-0.031548
-0.035694
-0.020386
-0.031229
-0.040796
-0.035056
-0.046218
-0.070455
-0.058336
-0.051001
-0.053871
-0.074282
-0.056742
-0.073325
-0.10777
-0.080979
-0.078746
-0.075876
-0.062163
-0.065352
-0.080341
-0.058974
-0.039839
-0.031229
-0.023575
-0.034418
-0.042391
-0.036969
-0.031548
-0.055147
-0.045261
-0.050363
-0.066947
-0.088314
-0.08066
-0.095968
-0.041753
-0.043347
-0.056742
-0.055466
-0.047493
-0.02804
-0.018153
0.010548
0.040207
0.051688
0.049137
0.038612
0.064125
0.059979
0.066358
0.077201
0.08613
0.11802
0.14832
0.15055
0.16012
0.13716
0.16299
0.19169
0.16554
0.13971
0.14098
0.074012
0.03925
0.088044
0.050412
-0.0063538
-0.015921
-0.065671
-0.10107
-0.11925
-0.12084
-0.13009
-0.11415
-0.10777
-0.11383
-0.08927
-0.12148
-0.10681
-0.084168
-0.085443
-0.082573
-0.10681
-0.091503
-0.031229
-0.014964
-0.057379
-0.066628
-0.04845
-0.012413
-0.018153
-0.032504
-0.033461
-0.027402
0.0092728
-0.017516
-0.016878
-0.009224
-0.025807
-0.024851
-0.02804
-0.036969
-0.031229
-0.014327
-0.030591
-0.012094
0.0073593
0.010867
-0.012732
-0.010181
-0.0044404
0.0131
-0.0053971
-0.0073105
-0.024851
-0.027721
-0.053234
-0.025488
-0.0038025
-0.029953
-0.014964
0.015013
0.0057648
-0.0085862
-0.0044404
0.0095917
0.021391
0.042121
0.048818
0.050412
0.037975
0.016289
-0.015921
-0.0025269
0.032872
-0.0031647
-0.027721
-0.019429
0.020116
-0.0028458
-0.036012
-0.018472
-0.014008
-0.011137
0.014375
-0.014645
-0.037288
-0.03665
-0.058017
-0.04845
-0.020386
-0.022937
-0.010181
-0.014008
-0.011456
-0.0044404
0.00066221
-0.020705
0.0060837
-0.005716
0.0028946
0.032234
0.032234
0.023305
-0.0028458
-0.0060349
-0.0034836
-0.0034836
-0.017197
-0.016559
-0.015921
0.0003433
0.016608
0.0003433
0.030002
0.03064
0.015013
-0.0034836
-0.0050782
0.0095917
0.027451
0.011824
-0.014964
-0.011775
-0.012094
-0.0095429
-0.018791
-0.013689
-0.025488
0.0013
0.014056
0.0035324
-0.013051
-0.0034836
0.0092728
0.012781
0.017564
-0.028996
-0.024213
-0.028678
-0.032823
-0.036331
-0.032823
-0.04271
-0.04558
-0.052915
-0.048131
-0.034099
-0.033142
-0.050682
-0.041115
-0.017516
-0.02198
-0.040796
-0.02804
-0.024213
-0.009224
0.014694
0.010548
-0.0060349
0.0099106
0.031278
0.027451
0.027132
0.043715
0.043396
0.081028
0.050731
0.046904
0.03638
0.011824
0.022986
0.0041702
-0.035694
0.0013
0.01597
-0.015283
-0.012094
-0.012732
-0.0076295
-0.026126
-0.04271
-0.0060349
0.0044891
0.017564
0.004808
-0.029953
-0.017516
0.015013
0.031278
0.0064026
-0.023894
0.0095917
0.012462
-0.0028458
-0.0050782
0.00098112
0.011505
-0.020386
-0.020386
-0.0082673
-0.017516
-0.047812
-0.051001
-0.069817
-0.063758
-0.080022
-0.076195
-0.065352
-0.073006
-0.078109
-0.059612
-0.047174
-0.036331
-0.017516
-0.022937
-0.00093234
0.0044891
-0.0053971
-0.0082673
0.008635
0.0019378
-0.015921
-0.0018891
0.030002
0.014375
-0.012094
-0.0089051
0.047223
0.048818
-0.00061343
0.017564
0.042758
0.047542
0.039888
-0.015602
-0.0066727
0.01597
0.015013
-0.010819
-0.022299
-0.040477
-0.048769
-0.062163
-0.016878
-0.018791
-0.033461
0.0013
-0.020386
-0.018472
-0.0025269
0.0054459
0.018202
0.030321
0.02458
-0.0025269
-0.0076295
0.045629
0.051688
0.029364
0.011505
0.028088
0.044991
0.044991
0.04818
0.044991
0.050731
0.037975
0.024262
0.052963
0.054558
0.03925
-0.021024
0.0028946
0.064763
0.027132
-0.024213
0.0051269
0.0054459
-0.01624
-0.0031647
0.0095917
-0.0015702
-0.0085862
-0.062163
-0.050044
-0.036012
-0.047174
-0.076195
-0.077152
-0.06886
-0.064395
-0.068541
-0.066628
-0.036012
-0.036331
-0.027402
0.015651
-0.019748
-0.022937
0.050731
0.052326
0.030959
0.021072
0.013419
0.022348
0.0131
-0.005716
-0.013689
0.013738
0.017883
0.0051269
-0.0069916
-0.00029452
-0.021343
-0.025488
-0.0095429
-0.027083
-0.02517
-0.026445
-0.027402
-0.034418
-0.041434
-0.038564
-0.050363
-0.052596
-0.058655
-0.029315
-0.020386
-0.0018891
0.017246
0.038612
0.027132
0.024899
0.03064
0.059023
0.062531
0.050731
0.048499
0.0003433
-0.0038025
0.021391
0.024899
-0.026445
0.0079971
-0.0060349
-0.017197
-0.010181
-0.030272
-0.036331
-0.043666
-0.037926
-0.046536
-0.020705
-0.052277
-0.018791
-0.019748
-0.046855
-0.042072
0.0032135
-0.0018891
-0.013689
-0.0012513
0.021391
0.049774
0.06285
0.018521
0.017246
0.058704
0.030959
0.020754
0.012781
-0.0066727
-0.015602
-0.027721
-0.027402
-0.02804
-0.035056
-0.045261
-0.034418
-0.03665
-0.031548
-0.015921
-0.022937
-0.024213
-0.009224
-0.009224
-0.015283
-0.01911
-0.014964
-0.005716
-0.0012513
-0.012094
-0.031229
0.0003433
0.0076782
0.0076782
0.014694
0.026813
0.019478
0.021072
0.013738
0.024899
0.0019378
0.029683
0.008316
0.0019378
0.01597
0.042121
0.027451
-0.017197
-0.0095429
0.023305
0.017883
0.03351
0.01597
0.022029
0.032234
0.052645
0.011186
0.020754
0.033829
0.041483
0.03351
-0.0053971
0.0013
0.01023
0.037018
-0.0082673
-0.0095429
-0.0053971
-0.014008
0.008316
-0.012094
-0.06025
-0.041115
-0.037288
-0.063758
-0.058655
-0.071411
-0.064077
-0.048131
-0.066309
-0.095011
-0.015921
0.010867
-0.01624
-0.01337
0.0073593
0.030002
0.034467
0.040207
0.023305
0.037656
0.066358
0.051369
0.023943
0.031915
0.032872
0.037337
0.016927
0.0028946
0.0003433
0.026494
0.051688
0.017883
-0.00093234
0.022348
-0.0079484
-0.015921
-0.0018891
-0.0079484
-0.02198
-0.033142
-0.012094
0.01884
0.015332
0.020435
0.011186
0.011186
0.0038513
-0.012413
0.012143
0.051688
0.041802
0.017883
-0.0095429
-0.048131
-0.014964
-0.018791
-0.050363
-0.056104
-0.058336
-0.068541
-0.063758
-0.06025
-0.066309
-0.048131
-0.033461
-0.03952
-0.037926
-0.035694
-0.024851
-0.031867
-0.027083
-0.030591
-0.041434
-0.03665
-0.040477
0.0016189
-0.039202
-0.032504
0.0013
-0.005716
0.014056
-0.01337
0.0035324
0.013419
0.026494
0.0070404
0.0057648
0.011505
0.022667
0.022667
0.034786
0.052645
0.072417
0.049137
0.047223
0.053282
0.060298
0.096654
0.10239
0.083579
0.072417
0.087725
0.052645
0.036699
0.024899
0.021391
0.01884
0.019478
-0.01337
-0.053234
-0.010181
-0.012094
-0.018153
-0.017516
-0.02198
-0.017835
-0.014008
-0.017835
-0.028359
-0.024532
-0.02804
-0.048131
-0.049407
-0.052596
-0.046218
-0.041115
-0.080341
-0.053234
-0.041115
-0.060887
-0.062163
-0.03091
-0.034099
-0.029634
-0.023575
-0.03091
-0.028996
-0.026445
-0.0034836
0.010548
0.018521
0.032553
0.025218
0.042758
0.042121
0.048499
0.066677
0.055515
0.072098
0.059342
0.04818
0.055834
0.019478
0.0016189
-0.0069916
-0.032186
-0.036969
-0.044942
-0.051001
-0.058655
-0.032504
-0.017835
-0.01337
-0.052596
-0.01624
0.0092728
0.017246
0.0079971
0.022029
0.01884
0.0099106
0.015013
-0.0076295
0.02171
0.050412
0.01597
-0.010819
0.0092728
0.04818
2.4388e-05
0.0016189
0.032234
0.020754
0.022348
0.031596
-0.012413
-0.0028458
0.031596
-0.012413
-0.0105
-0.014008
-0.014964
-0.030591
-0.035375
-0.013051
-0.0044404
-0.010181
0.0079971
-0.005716
-0.0098618
0.0067215
0.028407
0.01023
-0.0105
-0.027083
-0.026764
-0.031867
-0.022618
-0.02198
-0.022937
-0.017197
-0.036331
-0.046536
-0.002208
-0.012094
-0.016559
-0.0012513
-0.005716
0.020754
0.0070404
-0.0069916
0.011505
0.0022568
-0.017516
0.0032135
0.023624
-0.015283
-0.0044404
0.019478
-0.018791
-0.0041214
0.0044891
-0.02517
-0.0069916
-0.0038025
-0.028678
-0.050682
-0.020705
-0.021343
-0.050682
-0.040477
-0.035375
-0.023575
-0.038564
-0.005716
0.022029
0.03351
0.054877
0.056153
0.07752
0.094741
0.094103
0.068909
0.06572
0.094422
0.081028
0.075287
0.055834
0.036699
0.042758
0.037975
0.02171
0.004808
-0.0098618
-0.0015702
0.0092728
-0.020386
-0.041434
-0.023894
-0.028996
-0.059931
-0.029315
-0.040796
-0.043666
-0.035056
-0.020386
-0.044942
-0.011456
-0.031548
-0.019748
0.0076782
0.0022568
-0.0044404
-0.0085862
0.0073593
0.012781
-0.0041214
-0.048769
-0.064714
-0.031867
-0.034737
-0.053552
-0.03091
-0.063758
-0.070455
-0.050044
-0.058336
-0.055785
-0.040158
-0.050044
-0.044623
-0.032504
-0.056423
-0.047812
-0.031548
-0.055466
-0.036969
-0.032504
-0.029634
-0.034099
-0.027721
-0.025488
-0.0076295
-0.00061343
-0.005716
0.0016189
2.4388e-05
-0.021024
0.010867
-0.00061343
-0.0031647
-0.005716
-0.039839
-0.02517
0.0099106
0.020435
0.0095917
0.0131
0.038931
0.090276
0.098249
0.085173
0.089638
0.11866
0.10654
0.12153
0.099205
0.089319
0.082303
0.082622
0.089319
0.08039
0.082622
0.031915
0.0095917
-0.0060349
-0.0025269
0.045947
0.026175
-0.0066727
-0.02804
-0.028359
-0.046218
-0.069817
-0.033142
-0.079384
-0.085762
-0.065033
-0.080022
-0.093735
-0.097881
-0.073963
-0.056742
-0.043985
-0.037288
-0.03091
-0.023575
-0.012413
0.018521
-0.0076295
-0.04271
-0.011456
-0.0012513
-0.011775
-0.024213
-0.00093234
-0.031548
-0.03091
-0.0076295
-0.005716
-0.0066727
-0.023575
-0.012094
0.0022568
-0.0105
-0.0044404
-0.0095429
-0.023256
-0.026126
-0.029315
-0.037926
-0.059931
-0.035056
-0.051001
-0.031548
-0.033461
-0.029315
-0.012094
0.019797
-0.012413
-0.0044404
0.0028946
0.013738
0.026813
0.053282
0.017564
0.028407
0.051369
0.030959
0.05392
0.05105
0.049774
0.027451
0.03351
0.068271
0.07146
0.029364
0.035742
0.06285
0.012462
0.019159
0.021391
-0.0105
-0.010181
-0.0069916
0.0044891
0.0095917
0.018202
0.022029
0.0057648
0.028407
0.03351
0.025537
0.015651
0.019159
0.035423
0.012143
2.4388e-05
0.0076782
-0.021343
-0.025807
-0.0098618
-0.02804
-0.060887
-0.046218
-0.041115
-0.032504
-0.024532
-0.017516
-0.035694
-0.027721
-0.027083
-0.027402
-0.038245
-0.016878
-0.03378
-0.020705
0.0028946
-0.01337
-0.00093234
-0.002208
-0.0060349
0.013419
0.018202
0.031596
0.027451
0.023624
0.03064
0.040526
-0.0034836
-0.026764
-0.040796
-0.045899
-0.020705
-0.033142
-0.042391
-0.057698
-0.041434
-0.042391
-0.03091
-0.017197
-0.0098618
0.004808
0.018202
0.0095917
0.034786
0.064763
0.035742
0.03064
0.016289
0.02171
0.061893
0.048818
0.021072
0.016289
0.0076782
0.013738
0.012462
0.0067215
-0.015283
-0.018153
-0.0073105
-0.01337
-0.028996
-0.052596
-0.054828
-0.058336
-0.044623
-0.04271
-0.044304
-0.052596
-0.025807
-0.011775
-0.014645
0.004808
-0.0066727
-0.037607
0.010867
0.044991
0.010548
-0.015921
-0.032186
-0.026764
-0.032504
-0.0038025
-0.0063538
-0.032504
-0.027721
-0.030591
-0.009224
0.019478
0.014375
0.020435
0.018521
0.017564
0.020435
0.00066221
0.023305
0.022029
0.0025757
-0.0041214
-0.0060349
-0.0050782
-0.032186
-0.0060349
0.013419
0.028726
0.043715
0.034786
0.023624
0.039888
0.034786
0.035104
0.039569
0.03638
0.051688
0.042121
0.040207
0.016927
0.020435
0.0013
0.0099106
-0.02198
-0.02804
-0.011456
-0.017835
-0.031867
-0.047174
-0.036012
-0.048769
-0.044623
-0.032504
-0.044304
-0.050363
-0.053871
-0.042072
-0.02517
0.018521
0.023305
0.028726
0.028088
0.034786
0.067314
0.077838
0.073055
0.078795
0.063806
0.035423
0.047542
0.063806
0.060617
0.042121
0.04531
0.0051269
-0.0044404
-0.013689
-0.012094
0.0022568
0.011505
0.010867
-0.027083
-0.052277
-0.032504
-0.039202
-0.047493
-0.049407
-0.077152
-0.097562
-0.056104
-0.045899
-0.061206
-0.052915
-0.025807
-0.047812
-0.02804
-0.014964
-0.011775
-0.026126
-0.0098618
-0.015602
-0.016878
-0.014008
-0.012413
-0.026445
-0.027402
-0.022937
-0.027402
-0.016559
-0.030272
-0.030591
0.0019378
2.4388e-05
0.00066221
0.0073593
0.0060837
0.014694
0.020435
0.019797
0.02777
0.018521
0.028726
0.049774
0.040845
0.035104
0.023624
0.04818
0.074012
0.074649
0.069866
0.084217
0.090914
0.056471
0.01884
0.051688
0.075606
0.056153
0.0003433
0.026494
0.022029
0.021391
0.0067215
0.024899
0.022667
0.0076782
0.0035324
0.014694
0.011505
0.01023
-0.00093234
-0.015921
-0.03378
-0.028359
-0.050044
-0.056423
-0.053871
-0.059293
-0.065033
-0.072049
-0.086081
-0.069179
-0.072049
-0.067903
-0.043347
-0.043985
-0.052277
-0.033142
-0.050044
-0.062163
-0.040796
-0.039202
-0.035056
-0.020386
-0.036331
-0.056423
-0.016878
-0.014964
-0.0060349
-0.0050782
0.0060837
0.039569
0.040207
0.020435
0.020435
0.031915
0.042439
0.049137
0.01597
0.026494
0.049774
0.044672
0.042121
0.054239
0.053601
0.066039
0.059023
0.011505
0.043077
0.075606
0.022029
0.0131
0.027132
0.01884
-0.019748
-0.030272
-0.017197
-0.024851
-0.037288
-0.06312
-0.034737
-0.026126
-0.036331
-0.01911
-0.013689
-0.043985
-0.0098618
0.033829
-0.0098618
-0.039202
-0.016878
-0.0073105
-0.0025269
0.011505
0.0057648
0.031278
0.03925
0.033829
0.029045
0.049455
0.07752
0.074649
0.061574
0.063487
0.059342
0.064763
0.065401
0.050412
0.047861
0.026175
0.015013
0.023305
0.0079971
-0.0066727
0.02171
-0.0025269
-0.018153
0.010548
-0.022299
-0.025488
-0.0105
-0.030272
-0.055466
-0.050363
-0.033461
-0.050044
-0.056104
-0.060569
-0.034737
-0.066947
-0.053552
-0.024213
-0.027402
-0.051001
-0.037926
-0.027721
-0.018472
-0.017197
-0.028996
-0.03091
-0.054509
-0.075238
-0.061206
-0.051958
-0.073644
-0.061844
-0.053871
-0.045261
-0.046855
-0.02198
-0.017516
-0.0095429
-0.0038025
0.0025757
0.026494
0.026813
0.026175
0.028088
0.029683
0.027451
0.04531
0.040207
0.023943
0.040207
0.044353
0.030002
0.056153
0.056153
0.05679
0.065082
0.069228
0.035423
0.043077
0.032872
0.0041702
-0.0079484
0.011505
0.0073593
0.022348
0.020435
-0.00061343
0.012462
-0.012732
-0.013689
0.0060837
0.019478
0.023305
0.0067215
-0.022299
-0.044623
-0.012094
-0.019429
-0.022937
-0.037288
-0.024851
-0.019748
-0.014327
-0.017835
-0.022618
-0.0095429
-0.014645
-0.0063538
0.026175
-0.0041214
0.014694
0.01023
0.015332
0.0070404
-0.019429
-0.020067
0.0032135
-0.021024
-0.029634
-0.023894
-0.014645
-0.0028458
0.0038513
-0.011137
-0.01624
-0.019429
-0.014645
-0.027402
-0.0076295
0.0076782
0.008635
0.010548
-0.015283
0.010867
0.0099106
0.010548
0.026175
0.035423
0.030959
0.03925
0.040207
0.052645
0.037018
0.050412
0.01884
0.040526
0.022667
-0.034737
-0.046218
-0.024851
-0.035056
-0.02517
-0.036331
-0.052277
-0.019429
-0.034418
-0.083211
-0.056423
-0.013689
-0.022937
-0.016878
-0.036012
-0.014964
-0.012094
-0.034099
-0.042391
-0.038883
-0.014645
-0.010819
0.013738
0.0025757
-0.014645
0.031596
0.018521
-0.014008
0.017883
0.0057648
0.0019378
-0.020705
-0.015283
-0.016559
-0.026126
-0.016878
0.017564
0.0092728
-0.016878
-0.023575
0.0099106
0.067314
0.05679
0.04818
0.050412
0.069866
0.084536
0.064763
0.067952
0.083898
0.074968
0.041802
0.060617
0.044353
0.032553
0.015332
-0.0025269
2.4388e-05
0.00066221
-0.0034836
-0.009224
-0.02517
-0.029634
-0.010181
-0.021024
-0.04271
-0.035375
-0.050363
-0.041115
-0.041434
-0.048131
-0.021343
0.0041702
-0.028996
-0.013689
-0.0079484
-0.014327
-0.0073105
-0.0085862
-0.028996
-0.042391
-0.063758
-0.037607
-0.036969
-0.06025
-0.047812
-0.036331
-0.055147
-0.047493
-0.022299
-0.0069916
0.0060837
0.040845
0.046904
0.011505
0.030959
0.047542
0.024899
0.036061
0.055834
0.027451
0.0060837
0.013738
0.012462
0.014056
-0.01624
-0.023894
2.4388e-05
-0.011456
0.0013
0.011186
0.0054459
0.010867
0.027132
0.022667
0.015013
-0.0073105
-0.024532
-0.017197
-0.013051
-0.0066727
-0.009224
-0.016559
-0.03378
-0.028996
-0.027721
-0.0073105
-0.015602
-0.033142
-0.02517
-0.027083
-0.022299
-0.005716
-0.01337
-0.028678
-0.013051
0.0022568
-0.016559
0.008635
0.037337
0.040845
0.018521
0.021072
0.048818
0.037975
0.031596
0.036699
0.0038513
-0.0047593
-0.033142
0.0016189
-0.0041214
-0.023894
-0.051639
-0.02198
-0.036331
-0.03952
-0.009224
0.0003433
0.010548
0.017883
0.014375
0.041164
0.042121
0.030959
0.037337
0.044672
0.025537
0.041483
0.044034
0.032234
0.042121
0.063487
0.032234
0.028726
0.040207
0.068271
0.058704
0.0095917
0.016289
0.031278
-0.021024
-0.0047593
-0.012732
-0.047174
-0.051639
-0.041753
-0.058017
-0.08927
-0.076833
-0.047812
-0.052277
-0.03665
-0.050682
-0.050044
-0.02804
-0.015921
-0.023894
-0.0069916
0.0019378
-0.0041214
-0.013051
2.4388e-05
-0.00029452
0.03351
0.028407
0.039569
0.050093
0.044353
0.063487
0.058385
0.031915
0.054239
0.073374
0.035104
0.056471
0.040845
0.0032135
0.0070404
0.021072
0.0060837
-0.0076295
-0.005716
0.0016189
-0.0041214
-0.011775
0.0073593
0.010548
-0.0060349
-0.0098618
-0.012094
-0.0105
-0.0095429
-0.025488
-0.049088
-0.018791
-0.005716
-0.030591
-0.03665
0.008635
-0.002208
-0.00093234
0.0019378
0.0070404
0.035742
0.012143
0.025856
0.0095917
0.016608
0.0028946
-0.023894
-0.0085862
-0.014008
-0.038245
-0.055466
-0.050682
-0.054828
-0.027721
-0.026445
-0.025488
-0.0050782
-0.050044
-0.051001
0.019797
0.014375
-0.011137
-0.0041214
0.0022568
0.0073593
0.023624
0.023305
0.050731
0.034148
0.018202
0.040207
0.057747
0.037337
0.026175
0.016927
0.0076782
0.030002
0.008635
-0.029953
-0.028996
-0.040477
-0.055466
-0.052915
-0.06312
-0.068541
-0.045899
-0.039202
-0.028359
-0.027083
-0.026126
-0.0047593
-0.0028458
-0.0038025
-0.005716
-0.0098618
-0.015283
-0.022299
-0.018153
-0.0095429
-0.0076295
-0.0018891
-0.029953
0.0016189
0.029683
0.01023
0.015651
0.008635
0.0060837
0.042439
0.063169
0.050731
0.032553
0.041802
0.026494
0.012462
-0.0018891
-0.0050782
0.0051269
0.016289
0.0054459
0.015013
-0.011456
0.0025757
0.032553
0.028088
-0.0085862
-0.0079484
-0.040477
0.0073593
0.010548
-0.009224
-0.027083
-0.010181
-0.0015702
-0.018791
-0.034099
-0.024213
-0.0034836
0.012143
0.0089539
-0.005716
-0.0025269
0.0099106
0.0131
0.022029
0.016608
0.016608
0.025537
0.022029
0.044034
0.042758
0.026494
0.049774
0.062531
0.056471
0.059342
0.074649
0.069866
0.036699
0.037975
0.016289
0.020754
0.011186
-0.02198
-0.026445
-0.052277
-0.050682
-0.050363
-0.065671
-0.072049
-0.065671
-0.055147
-0.06025
-0.030591
-0.053552
-0.062163
-0.056104
-0.047493
-0.04558
-0.058655
-0.065033
-0.050363
-0.050363
-0.056742
-0.05419
-0.038883
-0.014645
-0.011456
-0.0069916
-0.005716
0.0131
0.026494
0.03638
0.036061
0.028726
0.030002
0.041802
0.035742
0.054239
0.064444
0.057747
0.022348
0.058385
0.087406
0.093784
0.055515
0.046266
0.055196
0.044672
0.044034
0.037018
0.027132
0.0035324
-0.0015702
-0.037926
-0.035694
-0.021343
-0.023894
-0.014008
0.015332
-0.01337
-0.010819
-0.0028458
0.0044891
0.011505
0.008635
0.044034
0.014056
0.0022568
-0.0066727
-0.037288
-0.06025
-0.049088
-0.029953
-0.03952
-0.032823
-0.053234
-0.090865
-0.06312
-0.038564
-0.035694
-0.047174
-0.025488
0.0028946
0.013738
-0.017516
-0.0095429
-0.016559
-0.0050782
0.0032135
0.0032135
0.00098112
0.0095917
0.044034
0.03351
0.017564
0.037018
0.02458
0.0089539
0.011824
-0.0018891
-0.017516
-0.0060349
0.0003433
-0.022299
-0.034099
-0.02198
-0.019748
-0.036331
-0.0095429
0.0092728
0.0064026
0.01597
0.025537
0.00066221
0.04818
0.091233
0.059342
0.049774
0.082622
0.068271
0.045947
0.020754
0.048499
0.071141
0.034467
0.042439
0.041802
0.01597
0.023305
0.018202
-0.014645
-0.036331
-0.009224
-0.038883
-0.055785
-0.04558
-0.062163
-0.067903
-0.070774
-0.078427
-0.081298
-0.064714
-0.053234
-0.044304
-0.037607
-0.055466
-0.049088
-0.028359
-0.035056
-0.050682
-0.042391
-0.049088
-0.053552
-0.047493
-0.055147
-0.058017
-0.0038025
0.0032135
0.0035324
0.015013
-0.0066727
0.0022568
0.058385
0.045629
0.046904
0.079752
0.053601
0.060298
0.084217
0.061893
0.050412
0.041483
0.03351
0.036699
0.046585
0.047861
0.061893
0.020435
0.037337
0.049137
0.010867
0.014056
0.026175
0.0079971
-0.012413
-0.026126
-0.044942
-0.028678
-0.046218
-0.047812
-0.064714
-0.027402
-0.00061343
-0.013051
-0.0050782
-0.0044404
-0.00061343
0.0095917
0.017883
0.026494
0.029683
0.042758
0.011824
0.04531
0.028726
0.036061
0.058385
0.010867
-0.011775
-0.0018891
0.05105
0.042121
0.0038513
-0.030591
-0.002208
0.032234
-0.018153
-0.012732
-0.014645
-0.02517
-0.033142
-0.009224
-0.023575
-0.0105
-0.013689
0.0067215
0.037656
0.043715
0.052645
0.034786
0.062212
0.052645
0.017564
0.044672
0.024899
0.02777
0.0067215
-0.020705
-0.020705
-0.022299
-0.029953
-0.016559
-0.029634
-0.066309
-0.066309
-0.042072
-0.024851
-0.04558
-0.060887
-0.050363
-0.044623
-0.064077
-0.075557
-0.087357
-0.078109
-0.069498
-0.057698
-0.059931
-0.058655
-0.048769
-0.024213
-0.012413
-0.02517
-0.035375
-0.017516
0.011186
2.4388e-05
-0.0031647
-0.005716
-0.0018891
-0.017197
-0.015283
-0.012094
-0.0028458
-0.0063538
-0.022618
2.4388e-05
0.018202
0.027132
0.0099106
0.011505
0.0057648
0.04531
0.023624
0.014375
0.028726
0.027132
0.042758
0.039888
0.040207
0.066358
0.06859
0.058385
0.04818
0.091233
0.10686
0.099205
0.092508
0.086768
0.10399
0.067633
0.04818
0.04531
0.028726
0.015013
0.022029
0.028726
-0.023575
-0.014964
2.4388e-05
-0.00029452
-0.020067
-0.0089051
-0.022299
-0.0069916
0.0092728
-0.035694
-0.024213
0.012462
0.0003433
-0.02198
-0.015602
-0.013051
0.011186
-0.026126
-0.032823
-0.0060349
-0.010819
-0.022299
-0.021661
-0.038883
-0.019748
-0.014008
-0.04271
-0.035375
-0.053871
-0.074282
-0.080341
-0.084806
-0.073006
-0.031548
-0.031867
-0.043347
-0.017835
0.0057648
-0.021343
0.015332
0.053601
0.034148
0.037337
0.036699
0.056153
0.029683
-0.0063538
-0.013689
0.038294
0.025218
0.0019378
0.026494
-0.015602
-0.015602
-0.0066727
-0.0047593
-0.0031647
0.0089539
-0.013689
-0.02804
-0.034099
-0.024851
-0.03665
-0.057061
-0.033142
-0.037288
-0.031548
-0.045899
-0.038245
-0.029634
-0.03665
-0.0095429
-0.00029452
-0.0098618
-0.0063538
0.01597
-0.0044404
-0.012732
0.024262
0.0067215
0.00098112
0.012781
0.008635
0.0057648
0.026175
0.030959
0.02777
0.025537
0.027451
0.039888
0.038294
0.02458
0.04818
0.038294
0.00066221
-0.0063538
-0.015921
0.0003433
0.0051269
-0.0085862
-0.023256
-0.0018891
0.02458
-0.0018891
0.013738
0.043396
0.040207
0.046904
0.061255
0.024262
0.058704
0.064125
0.0131
0.0013
0.0095917
0.011505
0.031596
0.0051269
0.0022568
0.0019378
-0.024851
-0.0025269
0.0089539
-0.029953
-0.030591
-0.0069916
-0.015602
-0.031229
-0.052915
-0.034099
-0.028678
-0.038883
-0.049088
-0.041753
-0.036969
-0.051639
-0.026445
-0.015283
-0.0066727
0.0025757
-0.017197
-0.019429
0.014694
-0.02198
-0.011456
0.025218
-0.0031647
-0.018153
-0.0038025
-0.0015702
-0.022618
-0.0079484
0.0067215
0.015651
0.015013
0.03351
0.038294
0.040207
0.037975
0.022986
0.011824
0.008316
-0.0105
-0.009224
-0.0095429
-0.005716
-0.00093234
-0.015602
-0.012413
-0.020386
-0.025488
0.0051269
0.00098112
-0.014645
-0.0012513
-0.016878
-0.0047593
0.020435
0.0035324
-0.0031647
2.4388e-05
-0.011137
0.0016189
0.025218
0.028726
0.037975
0.065082
0.051369
0.06859
0.08039
0.077201
0.086449
0.10208
0.071779
0.043077
0.032234
0.037018
0.010867
-0.0044404
0.014375
-0.017516
-0.026764
-0.044942
-0.06312
-0.059612
-0.055147
-0.063758
-0.058974
-0.060569
-0.030591
-0.038883
-0.093735
-0.10107
-0.093416
-0.038564
-0.023256
-0.059612
-0.049407
-0.01911
-0.014327
-0.0041214
0.0057648
0.014694
0.008635
0.029683
0.050412
0.042758
0.038294
0.059342
0.031915
0.0079971
0.028407
0.02777
0.0079971
0.019159
0.013419
0.00098112
-0.0095429
0.011824
0.034467
-0.0025269
-0.01624
-0.0076295
-0.026764
-0.040158
-0.037288
-0.039202
-0.049088
-0.047812
-0.050363
-0.04845
-0.045899
-0.036969
-0.020705
-0.031548
-0.023894
-0.022299
-0.010181
-0.015283
-0.0076295
0.0044891
0.0041702
0.010548
-0.0047593
0.00066221
0.025218
0.025537
0.028726
0.055834
0.061255
0.054558
0.084854
0.095378
0.090595
0.088044
0.093465
0.08326
0.061893
0.057428
0.066995
0.059661
0.069228
0.0013
-0.014327
-0.021661
-0.05132
0.0073593
-0.0050782
-0.002208
-0.026764
-0.060569
-0.042072
-0.032186
-0.081298
-0.066947
-0.040158
-0.026445
-0.033461
-0.020386
-0.012732
0.0092728
0.038294
0.06859
0.054558
0.077838
0.07752
0.084217
0.082941
0.093465
0.095697
0.083898
0.040845
0.014694
0.0022568
-0.012732
-0.038564
-0.052915
-0.065671
-0.070136
-0.067266
-0.066628
-0.072049
-0.072049
-0.054828
-0.055466
-0.053234
-0.050682
-0.042072
-0.045261
-0.045899
-0.032504
-0.056423
-0.052915
-0.036012
-0.036012
-0.013051
0.0051269
-0.0069916
0.0095917
0.014375
-0.016878
0.020116
0.044672
0.015651
0.017246
0.041483
0.026494
0.024262
0.016289
0.0032135
0.011824
-0.0012513
-0.012732
-0.022937
0.0025757
0.0092728
-0.010819
-0.024851
-0.044623
-0.025488
-0.040477
-0.062163
-0.039839
-0.049088
-0.044304
-0.011775
-0.027721
-0.012413
-0.011137
0.0079971
0.0003433
-0.012413
0.047542
0.07146
0.05392
0.03638
0.035742
0.044353
0.035742
0.034467
0.025218
0.026813
0.031278
0.016289
-0.014008
0.016927
0.03925
0.039888
0.041802
0.096654
0.055515
0.041483
0.063169
0.049455
0.052645
0.05679
0.050412
0.046904
0.042439
0.031915
0.014056
0.0016189
0.011186
0.014694
0.013419
0.015013
-0.0085862
-0.028678
-0.029953
-0.011456
-0.028996
-0.059293
-0.048769
-0.057061
-0.052915
-0.023894
-0.012094
-0.034418
-0.027721
-0.021343
-0.014327
-0.024532
-0.016559
0.064444
0.054239
0.0064026
0.0099106
-0.0041214
0.011505
0.029364
-0.019429
-0.018791
0.010867
-0.0031647
-0.037288
-0.044942
-0.032504
-0.015921
-0.0060349
-0.010819
-0.016878
-0.0098618
-0.014327
-0.036331
-0.022618
-0.017516
-0.034099
-0.030272
-0.026126
-0.033142
-0.032504
-0.02517
-0.023894
0.0003433
-0.0069916
-0.013689
-0.0018891
-0.017835
-0.011775
0.0067215
-0.015602
-0.02198
-0.033461
-0.033142
-0.022618
-0.031229
-0.037607
-0.016559
0.0092728
0.013738
0.032234
0.037975
0.060617
0.069547
0.058066
0.054558
0.081665
0.084854
0.079752
0.050093
0.022986
0.048818
0.053282
0.023305
0.010548
0.019159
0.016608
0.0099106
0.011824
0.020754
0.012781
0.019159
0.030959
0.042121
0.011505
0.018202
0.028088
0.026175
-0.010181
0.014056
0.027132
0.012143
-0.00093234
-0.005716
0.0038513
0.014694
0.018202
-0.021024
-0.02804
-0.012732
-0.043985
-0.035375
-0.027402
-0.054509
-0.073644
-0.058017
-0.065352
-0.072049
-0.058974
-0.041434
-0.013689
-0.0082673
-0.0047593
0.017246
0.034148
0.041164
0.039888
0.038612
0.056153
0.043396
0.0131
0.04531
0.094422
0.092508
0.044672
0.022667
0.060617
0.038612
0.019478
0.047223
0.03351
0.011186
0.012781
-0.0085862
-0.0034836
-0.016878
-0.067903
-0.057698
-0.05419
-0.083211
-0.078746
-0.07779
-0.065671
-0.059612
-0.069498
-0.10649
-0.057698
-0.041753
-0.04558
-0.03952
-0.061206
-0.057698
-0.04558
-0.055466
-0.065352
-0.038883
-0.036012
-0.036969
-0.024851
-0.0073105
0.010867
0.011824
0.014694
0.041164
0.058066
0.040207
0.057109
0.066358
0.054877
0.057747
0.046585
0.034786
0.076882
0.068271
0.03638
0.056153
0.052007
0.035742
0.037018
0.038612
0.038294
0.042439
0.021391
0.030959
0.030002
0.028407
0.023943
0.0054459
0.024899
0.01597
0.0067215
-0.0079484
0.013419
0.023943
0.022029
0.018202
0.021391
-0.00061343
-0.012413
0.0003433
0.019159
-0.0053971
-0.04271
-0.044942
-0.049407
-0.018791
0.0003433
-0.0073105
-0.027083
-0.021661
0.00098112
0.018521
0.02458
0.016289
-0.0018891
0.0064026
0.01597
0.022029
-0.00029452
-0.02198
-0.059612
-0.051639
-0.04845
-0.054509
-0.060569
-0.052915
-0.053871
-0.065033
-0.041434
-0.045261
-0.047812
-0.040158
-0.023575
-0.040477
-0.034099
-0.033142
-0.01911
-0.0012513
0.017246
0.0079971
0.0060837
0.0022568
0.034786
0.053601
0.053601
0.07752
0.063487
0.064444
0.079114
0.069866
0.064763
0.030959
0.039888
0.043077
0.05105
0.042439
0.03064
0.022667
0.0095917
0.0060837
0.02171
0.028726
0.039569
0.021391
0.011824
2.4388e-05
-0.0089051
-0.026126
-0.032823
-0.029953
-0.050682
-0.075557
-0.088314
-0.073006
-0.079065
-0.058974
-0.057698
-0.045261
-0.044942
-0.02804
-0.00061343
0.00066221
-0.0038025
0.010548
0.027132
0.02458
0.021072
0.010548
0.02171
0.034467
0.036699
-0.010181
0.022348
0.031596
0.012781
0.0003433
0.038612
0.046266
0.043396
0.052645
0.045629
0.043077
0.042121
0.038294
0.017883
0.031596
0.03351
0.058704
0.064444
0.051369
0.042439
0.072098
0.043396
0.033829
0.01023
0.0089539
0.028726
0.022029
-0.026764
-0.016878
-0.029634
-0.061525
-0.050363
-0.050682
-0.069179
-0.05132
-0.042391
-0.042391
-0.041434
-0.04558
-0.046855
-0.0060349
-0.016559
0.015651
0.0032135
-0.021343
-0.041434
-0.023256
-0.027083
-0.019429
-0.012732
-0.036969
-0.027083
-0.014645
-0.023575
-0.023575
-0.036969
-0.023894
-0.019429
-0.018153
-0.029953
-0.036012
-0.03665
-0.052277
-0.037288
-0.029634
-0.035694
-0.02198
-0.036331
-0.017197
0.05679
0.059661
0.055196
0.057109
0.072098
0.095697
0.11611
0.10686
0.10112
0.11356
0.11228
0.068271
0.075925
0.097292
0.082941
0.058704
0.054239
0.056471
0.049137
0.045947
0.026175
0.017246
0.010867
0.008635
-0.005716
-0.015921
-0.0076295
0.011824
-0.026764
-0.049726
-0.055466
-0.05419
-0.067266
-0.039839
-0.027402
-0.044623
-0.037288
-0.034099
-0.042391
-0.040158
-0.032504
-0.04558
-0.038883
-0.031867
-0.053552
-0.036012
-0.034418
-0.035694
-0.05132
-0.024851
-0.027721
-0.038245
-0.027721
-0.013689
-0.025488
-0.029634
-0.025488
-0.037288
-0.0076295
-0.0034836
-0.02804
-0.022299
-0.024851
-0.014645
-0.012413
0.022029
0.042439
0.040526
0.032872
0.037975
0.067314
0.067633
0.058385
0.08039
0.044353
0.004808
0.046266
0.047223
0.042439
0.038931
0.014056
0.0016189
0.047861
0.03925
0.023943
0.028088
0.041483
0.040526
0.017564
0.027451
0.051369
0.018202
2.4388e-05
0.0038513
0.0064026
-0.02517
-0.018153
0.0032135
-0.01337
-0.014964
-0.021343
-0.034099
0.014694
0.018521
0.0067215
-0.026764
-0.0089051
-0.015921
-0.011775
-0.0047593
-0.015921
-0.05419
-0.027721
-0.018472
-0.0079484
-0.016878
-0.0105
-0.018791
-0.0076295
0.0131
0.0099106
2.4388e-05
0.018521
0.047861
0.013419
-0.014645
-0.0060349
-0.017197
-0.017835
-0.011456
0.0013
-0.01911
-0.022299
-0.023894
-0.026126
0.0013
-0.002208
0.011824
0.0003433
-0.0012513
0.011186
0.035742
0.017564
0.020435
0.0095917
0.0041702
0.029364
0.057747
0.038612
0.046904
0.060298
0.05392
0.052963
0.03351
0.047542
0.030959
0.058704
0.061255
0.029045
0.029045
0.0095917
-0.0089051
-0.012413
-0.019429
-0.011137
0.0067215
-0.009224
-0.0044404
0.01597
0.014694
-0.005716
-0.033142
-0.014008
0.026813
-0.014964
-0.032823
-0.029315
-0.035694
-0.043985
-0.024851
-0.020386
-0.023894
-0.0105
-0.020705
-0.029953
0.0025757
0.035742
0.028407
0.029364
0.033829
0.028726
0.028407
0.013738
-0.0098618
-0.022299
-0.014964
-0.013051
0.0013
-0.036012
-0.037288
-0.029634
-0.031229
-0.01911
-0.023894
-0.055147
-0.03378
0.011824
-0.015921
0.00066221
0.0003433
2.4388e-05
0.048499
0.036699
0.024899
0.027132
0.036061
0.045629
0.062531
0.055196
0.066358
0.072417
0.078157
0.074012
0.072098
0.05679
0.01597
0.016289
0.04818
0.033829
0.049774
0.035423
0.020754
0.020435
0.014694
0.024899
0.048818
0.055515
0.025856
0.023624
0.01023
0.012462
-0.019748
-0.034099
-0.03378
-0.052915
-0.049088
-0.054828
-0.063439
-0.059612
-0.082573
-0.067266
-0.067585
-0.06599
-0.045261
-0.032823
-0.034099
-0.038245
-0.044304
-0.037288
-0.035056
-0.031229
-0.03665
-0.037607
-0.034737
-0.034099
-0.040796
-0.010819
-0.009224
-0.014327
-0.005716
0.011505
0.008635
0.010548
0.019478
0.014375
0.0089539
0.01884
0.018202
0.0099106
0.038612
0.069547
0.044034
0.054877
0.058704
0.10208
0.095378
0.088681
0.092827
0.092508
0.081984
0.096973
0.090914
0.059023
0.030959
0.022029
0.023624
0.01023
-0.0038025
-0.027402
-0.030272
-0.033461
-0.01624
-0.021024
-0.012413
-0.038245
-0.014645
-0.014964
0.0057648
0.0099106
-0.020705
-0.02517
0.0016189
0.016289
0.0025757
-0.017835
-0.014327
-0.0073105
0.0051269
-0.026764
-0.028996
0.0076782
-0.020386
-0.0076295
0.0051269
-0.0095429
-0.031229
-0.028996
-0.028678
-0.034099
-0.035694
-0.0095429
0.0089539
2.4388e-05
-0.0069916
0.0016189
0.0025757
0.0070404
0.014056
0.0064026
0.0016189
0.014375
-0.005716
-0.027402
-0.029953
-0.059293
-0.037288
-0.0041214
-0.02198
-0.035694
-0.017835
0.0054459
-0.0073105
-0.0047593
0.01023
0.018202
0.030002
0.050093
0.044991
0.049455
0.035104
0.038931
0.018521
0.04531
0.042439
0.040845
0.018202
0.027451
0.057428
0.072736
0.069228
0.030959
0.019159
0.03351
0.050731
0.01884
0.0095917
0.0095917
-0.0098618
-0.019748
-0.024851
-0.025807
-0.015283
-0.053552
-0.043347
-0.013051
-0.04271
-0.03091
-0.035056
-0.042391
-0.059612
-0.046536
-0.03378
-0.04271
-0.046536
-0.061844
-0.060569
-0.026764
-0.029634
-0.026126
-0.022618
-0.014008
-0.0038025
0.022667
0.040526
0.059979
0.05679
0.070185
0.055515
0.070822
0.089957
0.07433
0.058385
0.075606
0.066995
0.06859
0.03925
0.035104
0.051688
0.045629
0.038931
0.014375
-0.017516
0.015651
0.0095917
-0.038883
-0.048131
-0.041434
-0.06599
-0.046218
-0.044304
-0.053234
-0.056423
-0.05132
-0.020386
-0.0038025
-0.0095429
-0.010819
0.0028946
-0.009224
0.016289
0.053601
0.00098112
-0.014327
-0.014327
-0.022618
-0.031548
-0.0066727
-0.013689
-0.034099
-0.03665
-0.039202
-0.038564
-0.034099
-0.038245
-0.033142
-0.02517
-0.022937
-0.015602
-0.021024
-0.034099
-0.018153
-0.043666
-0.03952
-0.0066727
-0.0041214
-0.024851
0.013738
0.030959
0.029364
0.074012
0.064444
0.055196
0.043396
0.072417
0.067952
0.084536
0.062531
0.046266
0.038612
0.033829
0.03638
0.030959
0.024262
0.0054459
-0.0095429
0.008316
0.010867
0.024899
0.011186
-0.0095429
-0.0076295
-0.017516
-0.0095429
-0.011775
-0.0095429
-0.0031647
-0.009224
-0.014008
-0.0079484
0.0054459
0.012462
0.017564
0.0019378
-0.0018891
0.00098112
0.0038513
0.016289
0.012462
-0.014008
-0.056104
-0.043347
-0.038245
-0.069498
-0.076833
-0.058655
-0.078427
-0.053234
-0.05419
-0.052915
-0.021343
-0.026126
-0.034737
-0.039202
-0.034737
-0.01624
0.0022568
0.0016189
-0.017197
0.016608
0.0025757
0.038294
0.058385
0.055515
0.081984
0.085492
0.095697
0.11706
0.11611
0.096016
0.093784
0.11483
0.096335
0.057428
0.067314
0.018202
0.017883
0.01884
-0.012094
-0.037288
-0.041115
-0.036012
-0.037288
-0.042391
-0.052915
-0.01337
-0.005716
-0.031548
-0.002208
-0.015602
-0.046218
-0.0079484
-0.0095429
-0.038245
-0.01624
-0.0066727
-0.01911
-0.019748
-0.010819
-0.00093234
-0.035056
-0.038245
-0.012732
-0.0069916
-0.0079484
-0.037926
-0.049407
-0.033142
-0.038564
-0.051639
-0.05132
-0.05132
-0.067903
-0.044942
-0.029315
-0.017516
0.00066221
0.0051269
0.01597
0.029683
0.025218
0.038612
0.039569
0.038612
0.043396
0.02777
0.029364
0.038931
0.040845
0.03064
0.045947
0.073374
0.066995
0.040207
0.03064
0.065401
0.06285
0.042121
0.074968
0.069866
0.034786
0.039888
0.022986
0.014375
0.016608
0.020116
-0.005716
0.0060837
0.0099106
0.00066221
-0.0066727
-0.039839
-0.018791
0.0073593
0.011824
-0.016559
-0.017197
-0.017516
-0.032823
-0.031548
-0.035056
-0.043347
-0.04558
-0.046855
-0.028678
-0.013689
-0.046218
-0.031867
-0.014327
-0.053234
-0.06312
-0.01911
-0.029953
-0.054509
-0.039202
-0.029315
-0.039839
-0.029315
-0.039202
-0.043347
-0.01911
0.0064026
0.025856
0.01884
0.016608
0.012462
0.0032135
0.038612
0.073055
0.059979
0.055515
0.03925
0.031596
0.03638
0.067633
0.074012
0.025218
0.046904
0.063806
0.071141
0.043396
0.029045
0.02458
0.022986
0.0076782
0.010867
-0.024213
-0.043347
-0.039202
-0.049088
-0.050363
-0.062163
-0.066628
-0.079384
-0.087676
-0.024213
-0.018472
-0.022299
-0.0079484
0.0070404
0.014375
0.023624
0.025537
0.023624
0.028407
0.030321
0.031915
0.037018
0.038612
0.038612
0.036699
0.018202
0.039888
0.038612
0.0028946
0.011186
0.018202
-0.009224
0.011824
0.0035324
-0.017835
-0.028996
-0.036331
-0.036331
-0.03091
-0.050044
-0.058336
-0.017197
-0.013051
-0.030272
-0.019429
-0.01624
-0.028678
-0.012094
-0.0041214
0.0070404
-0.0047593
-0.01624
-0.014327
-0.031548
-0.0025269
0.00098112
-0.009224
-0.0082673
0.022029
0.025856
0.022348
0.034786
0.01023
0.038294
0.039888
0.03925
0.028088
0.023305
0.019159
0.008635
0.013738
0.011824
0.0095917
0.019797
0.0032135
0.0057648
0.031915
0.038612
0.027451
0.026494
0.0092728
0.008316
0.050731
0.044672
0.0070404
-0.0015702
-0.056104
-0.016559
0.011186
-0.030591
-0.056104
-0.052596
-0.058655
-0.050044
-0.051958
-0.033142
-0.046855
-0.020386
-0.023256
-0.02804
-0.041753
-0.041753
-0.02804
-0.033142
-0.016559
-0.0025269
0.0054459
-0.00093234
0.008316
0.008635
-0.0047593
0.0131
0.03351
0.054558
0.078157
0.070822
0.056471
0.059661
0.067952
0.063487
0.058066
0.061893
0.061574
0.074968
0.080709
0.058385
0.066358
0.068271
0.050731
0.032553
0.038294
0.046904
0.051369
0.030002
0.00066221
-0.015602
-0.005716
-0.010819
-0.0089051
-0.019429
-0.013689
-0.012413
-0.029634
-0.0031647
-0.012732
-0.050044
-0.040477
-0.028359
-0.042391
-0.0082673
-0.035056
-0.057698
-0.070455
-0.078109
-0.0864
-0.032504
-0.04558
-0.071093
-0.05419
-0.050363
-0.019429
-0.020386
-0.018791
-0.027721
-0.021024
-0.018472
-0.031548
-0.020067
-0.018153
-0.034737
-0.024851
-0.00061343
-0.00029452
0.016927
0.0099106
-0.0076295
0.034148
0.049774
0.062531
0.078157
0.075606
0.070185
0.069866
0.067314
0.058066
0.046904
0.03638
0.026813
0.031596
0.0051269
-0.0031647
-0.0031647
-0.018153
-0.0095429
-0.017197
-0.0089051
0.0035324
-0.01911
-0.026445
-0.0095429
-0.013051
-0.014327
-0.027083
-0.035056
-0.042391
-0.017835
-0.011456
-0.031548
-0.016878
-0.0050782
0.0051269
0.018521
0.015651
0.0022568
0.03638
0.028088
0.017564
0.03064
0.050093
0.047223
0.031278
0.030002
0.021391
0.027132
0.022986
0.040526
0.028088
0.043715
0.065401
0.044034
-0.026445
0.02458
0.026175
-0.0095429
-0.0060349
-0.0069916
-0.029315
-0.03665
-0.029953
-0.041434
-0.042072
-0.03665
-0.043347
-0.036331
-0.031548
-0.023575
-0.0076295
0.0044891
0.01884
0.029364
0.0028946
0.0019378
0.010867
0.0060837
-0.012732
0.011186
0.018202
0.0019378
0.0079971
-0.0018891
-0.0076295
-0.0028458
-0.0098618
-0.0073105
-0.014327
-0.025807
-0.034737
-0.048131
-0.021024
-0.011775
-0.035375
-0.035375
-0.012732
-0.00029452
-0.011456
0.0013
0.019159
0.029045
0.052645
0.057747
0.039888
0.041164
0.066995
0.069547
0.043396
0.043715
0.035742
0.012781
0.042439
0.040207
0.057747
0.030002
0.033191
0.021072
0.036699
0.044672
0.014694
0.015651
0.011186
-0.0012513
-0.0015702
-0.020386
-0.050044
-0.063439
-0.064714
-0.063439
-0.075238
-0.089589
-0.063758
-0.065352
-0.051001
-0.048769
-0.032504
-0.026126
-0.017516
-0.024213
-0.021343
-0.033142
-0.027083
-0.021343
-0.032186
-0.023575
-0.027721
-0.042391
-0.064077
-0.034418
-0.022618
-0.037607
-0.019748
-0.0085862
-0.0012513
0.0057648
0.014694
0.02777
0.031278
0.040845
0.03351
0.034148
0.040207
0.039888
0.05105
0.044991
0.037656
0.038294
0.023943
0.048818
0.045629
0.03351
0.024899
0.048499
0.014375
-0.010181
0.0038513
-0.012732
-0.010181
0.0131
0.0092728
0.0095917
0.035104
0.050093
0.058385
0.038931
0.065082
0.085173
0.066039
0.031596
0.08613
0.078157
0.055515
0.06572
0.03064
0.017564
0.045947
0.026175
0.030002
0.041802
0.022667
0.0051269
0.049774
0.036061
0.00066221
0.0003433
0.028088
0.034148
-0.0034836
-0.025488
-0.038883
-0.047493
-0.074919
-0.069498
-0.06599
-0.08353
-0.094692
-0.091184
-0.10107
-0.094054
-0.088314
-0.098838
-0.10458
-0.070136
-0.08066
-0.088314
-0.055785
-0.064395
-0.056423
-0.04845
-0.042072
-0.038883
-0.005716
-0.0050782
0.030321
0.028407
0.024262
0.049455
0.044991
0.022029
0.041802
0.057747
0.045947
0.026175
-0.0047593
-0.00061343
0.0070404
-0.015921
-0.021024
-0.0018891
0.0022568
-0.010819
-0.0044404
-0.0028458
-0.0105
-0.021024
-0.011137
-0.0025269
-0.010181
0.015651
0.0057648
-0.0066727
-0.0038025
0.04531
0.031278
0.022986
0.038294
0.059023
0.05679
0.04531
0.067952
0.06285
0.049137
0.069228
0.043715
0.0073593
0.008635
0.0092728
0.02171
0.020116
-0.016878
-0.03378
-0.024213
-0.0076295
-0.018791
-0.028678
0.052326
0.040845
0.022986
0.0079971
0.028088
0.018202
0.027132
0.026813
0.011505
0.0054459
0.017564
0.027451
0.0044891
0.0032135
0.014375
0.015651
0.0057648
0.023943
0.026813
0.008635
0.0038513
-0.014645
-0.03378
-0.027721
-0.019748
-0.010819
-0.023894
-0.023256
-0.018791
-0.047493
-0.043028
-0.026445
0.0070404
0.010548
-0.0063538
-0.01337
-0.0031647
0.012462
0.013419
0.0060837
-0.009224
-0.030272
-0.022299
0.008635
0.012143
0.0054459
0.02171
0.018521
0.013738
0.0076782
0.043396
0.048818
0.043396
0.033191
0.048499
0.066358
0.045947
0.035104
-0.0025269
-0.0012513
0.03351
0.038294
0.021391
0.030002
0.064763
0.03064
0.040207
0.060298
0.064125
0.048818
0.057747
0.06859
0.05679
0.0051269
0.0060837
0.03925
0.025218
-0.0089051
-0.00061343
-0.018791
-0.005716
-0.017197
-0.032504
-0.020705
-0.019429
-0.034099
-0.058017
-0.029634
-0.024851
-0.047493
-0.066309
-0.070774
-0.066947
-0.06025
-0.072687
-0.049726
-0.051958
-0.052915
-0.032823
-0.020386
-0.00093234
-0.00093234
-0.00093234
-0.0082673
0.012781
0.015332
-0.0015702
0.0079971
-0.022618
-0.034418
-0.014964
-0.017516
-0.042391
-0.022299
-0.012413
-0.026126
-0.028996
-0.027721
-0.0098618
-0.015921
-0.026126
0.019159
0.0070404
-0.0105
-0.011775
-0.0053971
0.0131
-0.018791
-0.029953
-0.0038025
0.019797
0.033829
0.023624
0.031596
0.015013
0.0013
0.017564
0.031596
0.016608
0.0022568
0.012781
0.024899
0.0131
0.034148
0.030002
0.03638
0.062531
0.057428
0.054239
0.041164
0.066677
0.084854
0.059661
0.038931
0.065082
0.048818
-0.005716
0.025856
0.037656
-0.0066727
-0.015921
-0.015602
-0.026445
-0.014964
-0.012413
-0.021343
-0.015602
-0.0047593
0.0044891
-0.0044404
-0.0076295
-0.0063538
-0.017835
-0.024213
-0.014008
-0.043666
-0.060569
-0.041753
-0.026126
-0.036969
-0.023575
-0.011775
-0.028678
-0.015283
0.0095917
-0.0034836
-0.0095429
0.0054459
-0.0047593
-0.0041214
-0.014964
0.0051269
-0.024532
-0.025807
-0.040158
-0.030272
-0.038564
-0.034099
-0.019429
-0.0082673
0.014694
0.014375
-0.010181
-0.014008
-0.0031647
-0.0085862
-0.0098618
0.0089539
-0.00029452
-0.011456
-0.005716
0.0073593
0.020754
0.0028946
-0.014008
-0.0047593
0.044991
0.057428
0.047223
0.043715
0.055834
0.073055
0.041802
0.022667
0.023305
0.033829
0.019797
0.012462
0.0003433
0.019159
0.040207
0.010548
0.012781
0.0013
-0.0063538
-0.0015702
-0.00093234
0.0044891
-0.002208
-0.009224
-0.022618
-0.035375
-0.034099
-0.031548
-0.040158
-0.028359
-0.022937
-0.018153
-0.016559
0.00098112
0.013419
0.0076782
0.0051269
-0.011137
0.035104
0.020754
0.0092728
0.022986
0.016289
-0.010819
0.011505
0.0064026
-0.010819
-0.0063538
0.0003433
0.012143
-0.0034836
-0.0089051
0.026813
0.010548
-0.0053971
-0.00061343
-0.002208
-0.0034836
-0.0073105
-0.021024
-0.030272
-0.03378
-0.047493
-0.051001
-0.029634
-0.010181
-0.0098618
-0.0095429
0.016608
0.011186
-0.0031647
0.0038513
-0.0044404
0.0019378
-0.0098618
-0.013051
-0.0063538
0.0076782
-0.0038025
0.015013
0.017246
0.014375
0.038931
0.049137
0.071141
0.07752
0.067952
0.081346
0.099843
0.1059
0.097292
0.097292
0.059023
0.063487
0.085492
0.071779
0.041802
0.022986
0.02458
0.0099106
0.0003433
0.0019378
0.0022568
-0.014008
-0.037607
-0.028678
-0.017197
-0.044942
-0.055147
-0.074601
-0.073325
-0.045899
-0.063439
-0.080022
-0.047174
-0.039839
-0.067266
-0.063439
-0.029634
-0.057061
-0.028996
-0.036012
-0.047812
-0.038564
-0.057379
-0.05132
-0.059612
-0.055785
-0.036012
-0.042072
-0.055147
-0.038564
-0.034099
-0.023894
-0.009224
0.0019378
0.0073593
0.012781
0.028407
0.0057648
-0.0105
0.015013
0.023305
-0.0060349
-0.009224
0.0032135
-0.00029452
-0.00061343
-0.0105
0.0089539
0.028726
0.030959
0.026494
0.014056
0.04531
0.050412
0.020754
-0.011775
0.0032135
0.026175
0.030002
0.035423
0.0073593
0.0060837
0.02171
0.023943
0.028088
0.059342
0.033191
0.028726
0.03638
0.06285
0.087406
0.08326
0.048818
0.021072
-0.0012513
0.050412
0.073374
0.033191
-0.010819
-0.0085862
2.4388e-05
-0.002208
-0.037288
-0.02517
-0.022299
-0.047812
-0.040796
-0.051958
-0.04558
-0.04845
-0.069179
-0.093416
-0.069179
-0.06599
-0.043347
-0.032823
-0.030272
-0.024851
-0.010819
0.029683
0.03925
0.017246
-0.0047593
0.026813
0.030321
0.028726
0.018521
0.023305
0.029683
0.018202
0.01023
0.0079971
0.013738
0.030321
0.02171
0.027132
0.032234
0.028726
0.040845
0.043077
0.057109
0.035104
0.032553
0.0019378
0.012143
0.0095917
-0.0098618
0.014375
-0.023575
-0.016878
-0.018791
-0.014645
-0.017835
-0.00061343
-0.00061343
-0.017197
-0.012413
-0.012094
-0.0053971
0.011824
-0.0012513
0.0073593
0.024262
0.023624
0.030959
0.042439
0.044672
0.050412
0.029683
0.065401
0.089638
0.065401
0.023943
0.035742
0.030002
0.026813
0.0131
-0.020705
-0.035056
-0.040158
-0.034737
-0.032504
-0.040477
-0.053552
-0.045899
-0.044942
-0.040796
-0.036331
-0.031229
-0.029634
-0.012094
-0.020705
-0.012732
-0.010819
-0.014008
-0.014964
0.014694
0.016289
-0.0044404
0.0038513
0.021072
0.014375
0.042758
0.037656
0.061893
0.054877
0.028407
0.021072
0.020435
0.029364
0.019159
0.0067215
-0.0018891
-0.0038025
0.0099106
2.4388e-05
-0.0015702
-0.0015702
0.0073593
0.016289
0.010867
-0.0105
0.00098112
0.016289
-0.024532
-0.05419
-0.023256
-0.045261
-0.040796
0.0092728
-0.010819
-0.032186
-0.056742
-0.026764
0.0057648
0.0095917
0.033829
0.035742
0.038612
0.038294
0.059342
0.05105
0.022348
0.01023
0.020754
0.026813
0.05392
0.010867
-0.002208
0.016608
-0.0073105
-0.0105
0.014694
0.012462
-0.00061343
0.0095917
0.0038513
-0.00029452
-0.011775
-0.021661
-0.041434
-0.031867
-0.02198
-0.036012
-0.048769
-0.032186
-0.02517
-0.009224
-0.022299
-0.017197
-0.015283
-0.01624
0.00098112
0.027451
-0.0098618
-0.0076295
-0.010819
0.0060837
-0.01337
-0.015602
-0.017516
-0.024213
-0.014327
0.0019378
-0.010181
0.014056
0.0022568
-0.013051
0.021072
0.018521
0.011824
0.0076782
0.014056
0.028726
0.015651
0.024899
0.028407
0.016927
-0.00029452
0.010867
0.022348
0.02777
0.041483
0.03925
0.044353
0.028088
0.012781
0.018521
0.020435
-0.021343
-0.020705
-0.012413
0.0051269
0.037337
0.015013
-0.042391
0.047223
0.044353
0.020754
0.042758
0.062212
0.054239
0.062212
0.046904
0.023305
0.037656
0.0131
-0.0047593
0.0064026
-0.015283
-0.033142
-0.046855
-0.058017
-0.056742
-0.058655
-0.061525
-0.06886
-0.079703
-0.066947
-0.046536
-0.032186
-0.047493
-0.04558
-0.058974
-0.03952
-0.025488
-0.020067
-0.040158
-0.033142
0.0019378
-0.0069916
-0.010819
0.031915
0.031278
0.033829
0.025537
0.012143
0.023943
-0.0076295
-0.013689
-0.0066727
-0.01624
-0.018791
-0.0073105
-0.017835
-0.014964
-0.0060349
-0.0028458
0.01023
0.019478
0.0076782
-0.0079484
0.023305
0.033191
0.025218
0.028407
0.032553
0.0131
-0.0082673
-0.002208
-0.0063538
-0.023256
0.0057648
0.016608
0.0079971
0.0028946
0.015651
0.020754
-0.009224
-0.011775
0.017883
0.036699
0.0032135
-0.0089051
0.0016189
0.0038513
0.012781
-0.0066727
-0.009224
0.010548
0.016608
0.013738
0.037018
0.022348
0.01023
-0.012732
0.0089539
0.022029
0.0019378
-0.0076295
-0.01337
-0.032504
-0.029634
0.011505
0.008635
-0.030272
-0.013689
0.0044891
0.0131
0.040526
0.065401
0.043396
0.03638
0.034467
0.028407
0.026494
0.035423
0.024899
-0.0025269
-0.0025269
-0.0063538
-0.0015702
-0.026445
-0.043347
-0.009224
0.0051269
-0.017835
-0.040158
-0.047812
-0.03091
-0.016878
-0.026445
-0.06599
-0.039839
-0.045899
-0.053552
-0.044623
-0.020067
-0.022937
-0.02517
-0.015921
-0.002208
0.016289
0.037975
0.02777
0.035104
0.031278
0.020116
0.0099106
0.022986
0.0060837
-0.011456
-0.022299
0.0016189
0.028088
-0.018472
-0.033461
0.00098112
0.0028946
0.0131
0.029364
0.050731
0.05679
0.035742
0.028088
0.02777
0.026494
0.010548
0.0044891
-0.0031647
0.0099106
-0.0015702
-0.028359
-0.026764
-0.02517
-0.022937
-0.0050782
2.4388e-05
0.004808
0.0051269
0.012781
-0.0012513
-0.014964
-0.0098618
-0.023894
0.0089539
0.021391
0.0025757
-0.0031647
-0.021661
-0.03091
0.014694
0.01023
-0.0069916
0.0131
0.0076782
-0.0089051
0.017564
0.016289
-0.0095429
-0.013689
0.021072
0.01023
-0.0069916
0.023943
0.013419
0.03351
0.059023
0.044353
0.046585
0.057109
0.069547
0.062212
0.038931
0.030959
0.0092728
0.027451
0.01597
-0.0038025
-0.0044404
-0.020705
-0.024532
-0.033142
-0.042072
-0.026764
-0.0018891
0.018202
-0.012094
-0.0076295
-0.019748
0.012143
0.017564
0.019159
0.017246
0.026813
0.017246
0.013419
0.015332
0.018202
-0.0031647
0.010548
0.025218
0.01884
0.017883
0.029683
0.020754
-0.0041214
0.017883
-0.021343
-0.055785
-0.026126
-0.04558
-0.061844
-0.031867
-0.039202
-0.06312
-0.052915
-0.026126
-0.037288
-0.028359
-0.012732
0.017246
0.018521
0.019478
0.043715
0.039888
0.011186
0.044034
0.040207
0.035423
0.031915
0.039569
0.0131
0.03351
0.035423
0.017564
-0.0012513
0.023624
0.013738
0.0070404
-0.025807
-0.046218
-0.015921
-0.03378
-0.058336
-0.082573
-0.066628
-0.051639
-0.048131
-0.064714
-0.078427
-0.053552
-0.050363
-0.020386
-0.012413
-0.032186
-0.024532
-0.0031647
-0.029634
-0.01337
0.026494
0.019159
0.0035324
0.022348
0.024262
0.015013
0.017564
0.041483
0.053282
0.085492
0.071141
0.078157
0.079114
0.061255
0.078476
0.053601
0.032872
0.045629
0.020435
-0.002208
0.0099106
0.0028946
-0.0085862
-0.00061343
-0.0105
-0.018791
-0.0073105
0.01884
0.0028946
-0.0044404
-0.00029452
0.0013
0.0022568
-0.0025269
-0.00061343
-0.014008
-0.03378
-0.014008
-0.0085862
-0.032504
-0.029953
-0.019429
-0.010181
-0.013051
-0.0069916
-0.021661
-0.0044404
-0.028678
-0.055466
-0.023894
-0.0085862
-0.039202
-0.043347
-0.041753
-0.040477
-0.064395
-0.015921
-0.014645
-0.011775
-0.014964
-0.013689
-0.0050782
0.010867
0.013738
0.022029
0.0060837
0.016289
0.02458
0.0089539
0.0060837
-0.0041214
0.0003433
-0.002208
0.0064026
-0.0044404
0.020116
0.035104
0.032234
0.057747
0.049137
0.019478
0.069547
0.072098
0.059342
0.03351
0.034786
0.035104
0.035104
0.043715
0.027451
0.018202
0.0095917
0.021391
0.017246
-0.0031647
-0.027402
-0.038564
-0.017516
-0.019748
-0.03665
-0.033142
-0.066947
-0.082254
-0.045899
-0.044942
-0.041434
-0.041753
-0.020067
-0.020705
-0.02517
-0.02517
-0.014645
0.0057648
0.0089539
0.031278
-0.0025269
-0.0041214
-0.0044404
-0.02804
0.013419
0.040845
0.03925
0.021391
-0.0018891
2.4388e-05
0.019159
0.055196
0.064444
0.05105
0.046266
0.072417
0.083898
0.036699
0.028088
0.019797
0.037018
0.02458
0.029045
0.025218
-0.0089051
0.0035324
0.023624
0.012143
0.0067215
0.024262
0.015332
0.019478
0.017883
0.014694
0.0131
0.00098112
-0.0079484
-0.0076295
0.0079971
0.01023
0.0016189
-0.0047593
-0.0038025
2.4388e-05
-0.0063538
-0.0076295
0.012781
-0.002208
-0.019429
2.4388e-05
-0.015921
-0.032186
-0.030591
-0.029634
-0.043985
-0.049088
-0.049407
-0.04558
-0.028678
-0.018791
-0.036012
-0.0050782
0.0044891
0.008316
0.0028946
-0.009224
0.022029
0.035423
0.0022568
-0.014645
-0.020386
0.0038513
0.015651
0.017883
-0.0053971
-0.00029452
0.0032135
0.0013
0.022667
0.024899
-0.0018891
0.012143
0.032553
0.035104
0.031596
0.026494
0.012462
-0.0060349
0.0073593
0.026813
0.008316
-0.017835
-0.026764
-0.010181
0.034148
0.049774
-0.0069916
-0.017516
0.0022568
0.031596
0.030002
0.0092728
0.0079971
0.015651
0.01023
-0.0079484
0.015013
0.03064
0.032553
0.037337
-0.005716
0.0044891
0.030002
0.029683
0.0032135
-0.01337
-0.012094
-0.027083
-0.047174
-0.026126
-0.035375
-0.059293
-0.061844
-0.058336
-0.031867
-0.031548
-0.024532
-0.024532
-0.012732
-0.0063538
-0.005716
0.0035324
0.0044891
0.0057648
0.0016189
0.013419
-0.002208
-0.019429
-0.00093234
-0.002208
0.0028946
-0.005716
0.01884
0.027132
0.023305
0.031596
0.050731
0.014694
0.024262
0.060298
0.028407
-0.0041214
0.032234
0.01884
0.0019378
-0.0060349
-0.024532
0.0025757
0.01023
0.020435
0.0016189
0.014375
0.025537
0.04818
0.029364
0.024899
0.038612
0.040845
0.027451
0.014375
0.00066221
-0.018472
0.0064026
0.0076782
-0.010181
-0.014645
-0.02198
-0.018791
-0.019429
-0.032186
-0.021343
-0.0060349
-0.0095429
-0.01624
-0.024213
-0.032504
-0.033461
-0.037288
-0.060569
-0.048131
-0.014008
-0.030591
-0.01911
-0.0105
-0.012094
0.00098112
0.0089539
0.015651
0.012781
0.02458
0.016927
0.014375
0.015332
0.0064026
0.0067215
0.0057648
-0.014964
-0.015602
-0.012732
-0.022299
-0.038245
-0.012413
0.0025757
-0.0066727
-0.0028458
-0.0089051
0.0044891
-0.0028458
-0.027083
0.0019378
-0.005716
-0.035694
-0.0041214
-0.0028458
-0.018791
-0.0041214
0.01023
0.0099106
0.0092728
-0.023256
-0.0069916
0.02777
0.047542
0.048818
0.022348
0.030002
0.05679
0.042758
0.030002
0.052326
0.087406
0.084854
0.083579
0.086768
0.066358
0.069228
0.075606
0.069547
0.069547
0.06859
0.032234
-0.0047593
-0.010181
-0.0066727
-0.022299
-0.020386
-0.032823
-0.028996
-0.029634
-0.036331
-0.03952
-0.031229
-0.042391
-0.044304
-0.023575
-0.028678
-0.024851
-0.022618
-0.050682
-0.039202
-0.038883
-0.051639
-0.05132
-0.045899
-0.031867
-0.018153
-0.057379
-0.054509
-0.0076295
-0.021343
0.0019378
-0.0063538
-0.037926
-0.01911
-0.0028458
-0.01624
-0.023256
-0.026445
-0.024213
-0.01624
-0.023894
-0.016559
0.015332
0.012462
0.010867
0.025537
0.016608
0.010867
0.020754
0.026494
0.029683
0.032553
0.024899
-0.011456
-0.0076295
0.0057648
-0.026445
-0.029315
0.0076782
0.0076782
-0.0034836
-0.011775
0.01884
0.026175
0.0060837
0.0051269
0.032553
0.026175
0.029045
0.033829
0.018521
0.012781
0.01023
0.02458
0.019478
0.0060837
0.0038513
-0.0095429
0.019797
0.046585
0.049137
0.028726
0.0099106
0.0060837
0.022029
0.028407
0.0067215
0.0028946
0.029045
0.042439
0.035742
0.014694
0.027451
0.046904
0.020754
0.0051269
-0.0073105
0.0070404
0.026813
0.020116
-0.005716
-0.027402
-0.023575
-0.038245
-0.044942
-0.021024
-0.052915
-0.046536
-0.041434
-0.030272
-0.037607
-0.039202
-0.031867
-0.017516
-0.025807
-0.044942
-0.015602
-0.031229
-0.045261
-0.038883
-0.028996
-0.033142
-0.0034836
-0.015921
-0.024213
0.027451
0.040207
0.046585
0.069547
0.08039
0.088681
0.087087
0.093784
0.071141
0.057109
0.070185
0.05392
0.018202
0.048499
0.031915
0.0019378
-0.024851
-0.04271
-0.041115
-0.056742
-0.052277
-0.052915
-0.053234
-0.041753
-0.043347
-0.055466
-0.04845
-0.039202
-0.056423
-0.052915
-0.031229
-0.012413
-0.02198
-0.025807
0.0019378
0.021072
0.0079971
-0.0015702
0.0099106
0.028726
0.0051269
0.013419
0.0013
0.0089539
0.01023
-0.026764
-0.021343
-0.0095429
-0.0098618
-0.022299
-0.0085862
0.0073593
0.012143
0.021391
0.036061
0.011505
0.0032135
0.037975
0.052963
0.040526
0.014375
-0.0060349
-0.012094
-0.022299
0.00098112
0.013738
-0.013689
-0.012413
-0.00093234
0.008635
0.014694
0.01597
0.0076782
0.011186
0.0073593
0.027451
0.030959
0.021072
0.01597
0.008635
0.011824
-0.005716
0.014694
2.4388e-05
-0.00029452
0.0022568
-0.0018891
-0.0098618
0.0016189
-0.0098618
-0.013051
-0.026764
-0.045261
-0.029953
-0.010181
-0.028996
-0.035694
-0.025488
-0.016878
-0.016878
-0.019748
-0.0044404
0.0070404
0.019797
0.028726
0.037975
0.041164
0.034467
0.020435
0.016289
-0.0073105
0.0076782
-0.012094
0.0064026
0.028088
-0.002208
-0.043347
-0.015602
0.030321
0.0057648
0.022348
0.010548
0.015013
0.031596
0.037018
0.035104
0.0064026
0.0076782
0.019797
0.0028946
-0.00029452
-0.0044404
0.0070404
-0.017835
-0.03378
-0.020386
-0.015602
0.022029
0.013738
-0.015602
-0.020705
0.023943
0.0013
0.0057648
-0.00061343
-0.014645
-0.0060349
-0.014645
-0.027083
-0.0053971
0.0016189
-0.0063538
-0.016559
-0.011137
0.010867
0.01597
0.0131
0.0054459
-0.0028458
-0.019748
-0.0050782
-0.025488
-0.031548
-0.01337
-0.0098618
-0.010819
-0.046218
-0.033142
-0.040158
-0.028678
-0.011775
-0.010819
-0.0015702
0.011186
-0.0050782
-0.011775
-0.005716
0.0016189
0.0051269
0.0028946
-0.00061343
0.0076782
0.008316
-0.0069916
0.022029
0.044991
0.019159
-0.020386
0.037975
0.050093
0.03925
0.03351
0.023305
-0.01911
0.0019378
-0.0034836
-0.012732
-0.0041214
-0.0038025
0.008316
0.0070404
0.012781
0.0131
0.023305
0.041802
0.038294
0.032553
0.035423
0.064763
0.025218
0.033829
0.049455
0.02458
-0.0044404
0.010867
0.017883
-0.012094
-0.0044404
2.4388e-05
-0.010181
0.0044891
0.0041702
-0.0073105
-0.01911
0.0028946
-0.0031647
-0.018153
-0.032504
-0.027402
-0.052277
-0.055466
-0.047174
-0.02517
-0.04271
-0.038245
-0.005716
-0.02804
-0.011775
-0.0105
-0.0041214
0.0089539
0.040526
0.025218
0.014694
0.028726
0.019159
0.0131
0.013738
0.014694
0.023624
0.016927
0.022667
0.040207
0.02777
0.037975
0.028407
0.018202
0.027132
0.026175
0.023305
0.010548
0.0070404
-0.0066727
0.0019378
-0.023894
-0.022618
-0.039202
-0.030591
-0.0060349
0.0054459
-0.016559
-0.033142
-0.035375
0.0070404
-0.00061343
0.0003433
-0.0050782
-0.011137
-0.032186
-0.046855
-0.014645
0.0035324
-0.038883
-0.051639
-0.01624
0.0041702
2.4388e-05
0.0067215
0.0051269
0.010867
0.02458
0.030321
0.029683
0.025537
0.029683
0.035104
0.0076782
0.0003433
0.029045
0.019478
0.026813
0.027132
0.026813
0.017883
0.015332
0.010867
0.011186
0.022986
0.037018
0.026813
0.012143
0.0013
-0.00093234
-0.010819
0.0003433
-0.0025269
-0.0060349
0.0092728
-0.0050782
-0.024851
-0.017516
-0.0095429
0.0089539
-0.0015702
-0.032186
-0.020067
-0.029953
-0.023894
-0.023256
-0.028678
-0.039839
-0.032186
-0.022299
-0.036969
-0.035056
-0.02804
0.0003433
0.00098112
-0.0060349
-0.0025269
0.00098112
-0.014327
-0.017516
0.0131
0.027132
0.0022568
-0.0069916
0.0070404
0.011186
0.019797
0.034148
0.06285
0.080071
0.081028
0.077838
0.088681
0.066677
0.069547
0.1075
0.079433
0.053282
0.032872
0.020116
0.011824
0.018202
0.015332
-0.014008
-0.047812
-0.050044
-0.034737
-0.053552
-0.049088
-0.039202
-0.069498
-0.043985
-0.018791
-0.034418
-0.061206
-0.056104
-0.055466
-0.058017
-0.050682
-0.028678
-0.035694
-0.026764
-0.0047593
0.016927
0.012462
0.0095917
0.016927
0.036699
0.0131
-0.0066727
-0.0095429
0.0041702
0.027451
-0.0041214
-0.01337
-0.013051
-0.0069916
-0.014645
-0.0060349
-0.0041214
-0.0044404
0.022986
0.026494
0.019797
0.038294
0.052645
0.028726
0.018202
0.035104
0.031278
0.0092728
0.019478
0.034467
0.032234
0.013738
0.0051269
0.034148
0.048818
0.014694
0.02458
0.031596
0.02171
0.040526
0.0022568
-0.0079484
-0.025488
-0.042072
-0.018791
-0.0105
-0.050363
-0.074601
-0.058017
-0.058336
-0.055785
-0.070455
-0.055785
-0.042391
-0.034099
-0.037288
-0.034418
-0.029953
-0.017516
-0.028996
-0.05132
-0.032186
-0.018472
0.00066221
0.015332
0.010867
0.0016189
0.034148
0.087087
0.066677
0.041164
0.01023
0.029045
0.081665
0.059661
0.056153
0.035742
0.011186
0.014694
0.0041702
0.0073593
0.0013
0.018521
0.0022568
0.00066221
-0.0028458
0.0028946
-0.00061343
-0.0095429
0.021072
0.010867
-0.0073105
-0.015283
-0.017197
-0.017197
-0.015921
-0.012413
-0.0050782
-0.0038025
-0.0098618
0.0032135
0.0041702
0.022029
0.0051269
0.00066221
0.0044891
0.0044891
0.0073593
-0.0012513
-0.019429
-0.03091
-0.060887
-0.037926
-0.029634
-0.037288
-0.056104
-0.042072
-0.030272
-0.036331
-0.039839
-0.04271
-0.035056
-0.037607
-0.031229
-0.011456
-0.027721
-0.013689
-0.028678
-0.021024
-0.014008
0.017883
0.00066221
-0.005716
0.017246
0.015651
0.036699
0.037018
0.023305
0.030002
0.035104
0.03064
0.02171
0.0060837
-0.0076295
-0.0012513
-0.012413
-0.017835
-0.051958
-0.044942
-0.022299
-0.014008
-0.0085862
-0.014008
-0.013689
-0.0098618
-0.014964
0.0073593
0.016289
0.012143
0.027451
0.039569
0.051369
0.058385
0.10271
0.065401
0.060298
0.068271
0.082622
0.1362
0.11069
0.097611
0.092189
0.069228
0.048818
0.037656
0.020754
0.0054459
-0.027083
-0.031229
-0.02804
-0.03378
-0.035694
-0.046855
-0.053871
-0.064077
-0.043347
-0.044623
-0.043347
-0.036012
-0.028359
-0.033142
-0.041434
-0.031867
-0.032504
-0.048769
-0.048769
-0.041753
-0.037607
-0.018472
-0.0073105
-0.021343
-0.023894
-0.0076295
0.020435
0.015013
0.01597
0.042439
0.028726
-0.0025269
-0.010819
0.020754
0.025218
0.045629
0.029683
-0.010181
0.019478
0.032234
0.029364
0.034148
0.016608
0.0064026
0.0016189
0.0054459
-0.0034836
-0.005716
-0.023256
-0.038564
-0.050363
-0.051001
-0.051958
-0.052915
-0.048131
-0.015283
0.0035324
-0.013051
0.0067215
0.028088
-0.0063538
0.015332
0.050093
0.060936
0.050412
0.041164
0.045947
0.064763
0.037975
0.019797
0.0073593
-0.00093234
0.032872
0.03925
0.013738
0.0032135
0.020754
0.0092728
-0.010819
0.0022568
-0.0041214
-0.023894
-0.034099
-0.043666
-0.032504
-0.024851
-0.027083
-0.035056
-0.028678
-0.02198
-0.0038025
0.0089539
0.0095917
0.0089539
0.023305
-0.0066727
-0.0012513
0.035104
0.040207
0.036699
0.022348
0.0095917
0.031596
0.028726
0.02171
0.051688
0.031915
0.0076782
0.036061
0.053601
0.030959
0.026494
0.019159
-0.017197
-0.017197
-0.014008
-0.035375
-0.050044
-0.037926
-0.03952
-0.031867
-0.049726
-0.048131
-0.0076295
0.0076782
-0.0050782
0.0019378
0.019797
0.013738
0.010867
0.021072
0.038612
0.0022568
-0.021661
-0.010181
0.0025757
-0.0015702
-0.017516
-0.0063538
0.016927
-0.011137
-0.015921
0.0025757
0.026813
0.0025757
-0.017835
0.012462
0.01023
0.017564
-0.0044404
0.0028946
-0.0038025
-0.015283
-0.0025269
-0.01337
0.0044891
0.0054459
0.0064026
0.011505
-0.0041214
0.032234
0.040526
-0.0063538
-0.01337
-0.014645
-0.0044404
-0.0085862
-0.017516
-0.035694
-0.043666
-0.041115
-0.03952
-0.056104
-0.017516
0.0019378
0.01023
0.012781
-0.0073105
0.004808
0.022029
0.019797
0.032872
0.047223
0.03064
0.015651
0.040845
0.039888
0.025537
0.015013
0.03638
0.049774
0.026175
0.037337
0.020754
0.018521
0.0064026
0.015332
0.054239
0.035104
0.02171
2.4388e-05
0.0041702
-0.01911
-0.015921
-0.018153
0.0013
0.0051269
-0.029634
-0.02198
0.0067215
-0.025488
-0.026764
-0.027402
-0.029953
-0.044942
-0.045899
-0.051639
-0.060887
-0.024851
-0.031229
-0.035056
-0.036012
-0.022618
-0.0085862
0.01597
0.032234
0.024899
0.0073593
0.030002
0.054877
0.050412
0.026813
0.019159
-0.0095429
0.015013
0.03638
0.010548
-0.012413
0.012781
0.031915
0.035104
0.040207
0.028407
0.018202
0.021391
0.042758
0.055196
0.038931
0.014694
0.014375
-0.0015702
0.0044891
0.029364
0.026175
-0.005716
-0.016878
0.0016189
-0.019429
-0.0041214
0.0079971
-0.0069916
0.0092728
0.015651
0.0070404
2.4388e-05
-0.0047593
-0.012094
-0.023256
-0.0063538
-0.0034836
-0.00061343
-0.0063538
-0.015283
-0.00029452
-0.0047593
-0.016878
0.016927
0.0089539
-0.011775
-0.034418
-0.040158
-0.027083
-0.026445
-0.035375
-0.053552
-0.046218
-0.062482
-0.043028
-0.020386
-0.041434
-0.040796
-0.025807
-0.019748
-0.0025269
0.012143
0.026813
0.043077
0.020754
0.0028946
0.02777
0.016608
0.021391
0.047223
0.030002
0.02171
0.038612
0.013738
0.018521
0.043077
0.054558
0.03925
0.029683
0.019478
0.014375
0.042439
0.028407
-0.01624
-0.049407
-0.017835
-0.017516
-0.029953
-0.04271
-0.022618
-0.015283
-0.044304
-0.03952
-0.033142
-0.026445
-0.0018891
-0.00029452
-0.018472
-0.040477
-0.013051
-0.0105
-0.024213
-0.009224
-0.018153
-0.0034836
0.0019378
-0.00061343
0.0013
0.0095917
0.0095917
0.011505
-0.00061343
-0.0038025
0.024899
0.020435
-0.00093234
0.0025757
0.0003433
-0.0018891
-0.016878
-0.020067
-0.021024
0.0064026
0.015651
0.013738
-0.00029452
0.0054459
-0.0085862
0.0131
0.0089539
0.031915
0.041164
0.013419
-0.0066727
0.028088
0.020116
0.031596
0.037337
0.021072
0.044991
0.042121
0.030959
0.069547
0.044034
0.026813
0.032234
0.037656
0.039888
0.01023
-0.011775
-0.021024
-0.0079484
-0.0085862
-0.038564
-0.026445
-0.009224
-0.010181
-0.023894
-0.019429
0.0051269
-0.0015702
-0.02198
-0.014964
-0.0018891
0.0025757
-0.041753
-0.024213
-0.015602
-0.03378
-0.020067
-0.041753
-0.050044
-0.02804
-0.023256
-0.002208
0.0073593
0.013419
0.014056
0.0022568
-0.0085862
0.0060837
0.010548
0.012781
0.012143
-0.0012513
0.0038513
0.049455
0.023943
-0.011456
0.027132
0.055515
0.07146
0.066677
0.049137
0.071141
0.07433
0.058066
0.048818
0.03351
0.037337
0.029683
-0.011456
-0.027402
-0.01337
-0.027083
-0.06025
-0.064077
-0.032504
-0.029634
-0.031548
-0.032823
-0.035694
-0.035375
-0.013051
-0.023894
-0.016559
-0.023894
-0.066309
-0.06312
0.013738
-0.013689
-0.034737
-0.029953
-0.017516
-0.020386
-0.012413
-0.012732
-0.043985
-0.01911
-0.0066727
-0.016878
-0.009224
0.012781
-0.012094
-0.023256
-0.031229
-0.030591
-0.012732
-0.009224
0.0064026
0.0073593
0.0044891
0.0067215
0.027132
0.032872
0.03351
0.032553
0.024262
0.020116
0.022986
0.025218
0.032872
0.012143
0.016608
0.037018
0.014056
0.031278
0.066039
0.054877
0.072098
0.085811
0.067633
0.053601
0.088681
0.055196
0.050731
0.049137
0.028726
0.01597
0.0064026
-0.016878
-0.0076295
-0.030272
-0.065352
-0.040477
-0.033142
-0.041753
-0.041434
-0.04558
-0.039202
-0.033461
-0.043028
-0.074919
-0.064395
-0.053234
-0.040158
-0.024851
-0.04271
-0.072049
-0.035375
-0.016878
-0.013689
-0.019429
-0.023256
-0.016878
-0.0069916
-0.0085862
-0.01337
-0.014964
-0.048769
-0.01624
0.012143
0.0041702
-0.0073105
0.014375
0.0057648
0.029045
0.064444
0.066358
0.091233
0.067952
0.058066
0.052007
0.081665
0.078157
0.060936
0.066995
0.028407
0.0073593
0.0064026
-0.0028458
-0.027402
-0.045261
-0.031548
-0.015283
-0.067585
-0.044942
-0.0079484
-0.0098618
-0.029634
-0.03091
-0.028678
-0.02804
-0.029634
-0.043347
-0.046218
-0.023575
-0.015921
-0.022937
-0.012413
-0.005716
0.0076782
0.00066221
0.00066221
0.029045
0.028407
-0.0031647
0.015651
0.029045
0.014694
0.0095917
-0.0079484
-0.018153
0.013738
0.026175
0.008635
0.022348
0.020754
0.014056
0.013419
0.022986
0.053282
0.058385
0.037656
0.026175
0.0057648
0.024899
0.0131
-0.01337
-0.014964
-0.023575
0.0016189
0.031596
-0.014964
-0.011775
-0.014008
0.008635
0.038931
0.032872
0.019478
0.03925
0.032872
0.014375
0.017246
0.018521
0.012143
-0.013051
0.0064026
0.037337
0.0028946
-0.023894
-0.033142
-0.02804
-0.0095429
-0.00029452
-0.0044404
-0.018153
-0.022937
-0.022937
-0.021024
-0.04558
-0.047493
-0.047493
-0.062163
-0.055466
-0.031229
-0.013051
-0.027721
-0.032504
-0.026126
-0.0028458
0.012462
0.011505
0.021072
-0.00093234
0.028407
0.030959
0.038294
0.02171
0.020754
0.023943
0.026813
0.014056
0.01023
0.0019378
-0.020705
0.019478
0.029683
-0.0082673
-0.0095429
0.010867
-0.011775
-0.033142
-0.031229
-0.04845
-0.043985
-0.022618
0.0051269
0.0003433
0.0079971
0.016608
0.027451
0.038294
0.037337
0.072736
0.052645
0.0092728
0.022029
0.049137
0.037337
0.029045
0.0016189
0.018202
-0.021343
-0.032186
-0.03091
0.0054459
-0.0073105
-0.0060349
0.0092728
0.0079971
0.024262
0.0070404
-0.0041214
0.013738
0.019797
0.0131
-0.00093234
-0.011456
0.0013
0.0092728
-0.026764
-0.014645
-0.034737
0.016289
0.030002
0.022986
0.027132
0.016927
0.0041702
0.008635
0.016927
-0.013689
-0.0060349
-0.0069916
-0.02517
-0.040477
-0.033142
-0.051001
-0.072368
-0.067585
-0.052596
-0.055466
-0.056104
-0.052915
-0.053552
-0.043028
-0.029634
-0.041434
-0.036012
-0.026126
-0.03665
-0.045261
-0.024851
0.008635
0.0057648
0.0060837
0.0076782
0.03925
0.044672
0.058704
0.082941
0.076563
0.069547
0.064763
0.085492
0.06572
0.050731
0.037018
0.06572
0.020116
0.008635
-0.013689
-0.0018891
0.01884
0.0044891
-0.0060349
-0.026764
-0.031867
-0.019748
-0.010819
-0.02517
-0.025807
-0.032504
-0.025807
-0.0018891
-0.019748
-0.026764
-0.0098618
-0.0085862
0.015013
0.0064026
0.022348
0.032234
0.055515
0.027451
0.01884
0.036699
0.049774
0.032553
0.010867
-0.00061343
0.0079971
-0.012732
-0.0015702
-0.0015702
-0.016878
-0.025807
-0.048131
-0.045899
-0.0069916
-0.03378
-0.045261
-0.039839
-0.033461
-0.049407
-0.064714
-0.058974
-0.047812
-0.022937
-0.00061343
-0.014327
-0.0098618
0.0041702
0.023624
0.050412
0.05679
0.050731
0.042758
0.061893
0.080071
0.057747
0.044991
0.057747
0.017883
0.027451
0.026494
0.012143
0.008635
0.0041702
0.026494
0.020754
0.028726
0.032553
0.048499
0.0099106
0.01597
0.050412
0.022348
-0.018153
-0.0076295
0.0051269
-0.016878
-0.045899
-0.046536
-0.019748
-0.020386
-0.035694
-0.024532
-0.053234
-0.061206
-0.012732
-0.021024
-0.03378
-0.041115
-0.017516
-0.032186
-0.046218
-0.049407
-0.041434
-0.043985
-0.022618
-0.024851
-0.036331
-0.024213
-0.026126
-0.037607
0.0041702
0.017883
0.0016189
-0.014964
-0.0038025
-0.00061343
-0.0025269
-0.015921
-0.029634
-0.01624
0.0076782
0.014694
0.0070404
0.0013
0.019159
0.050412
0.049774
0.064763
0.079752
0.095378
0.098568
0.076882
0.070503
0.089
0.071141
0.045629
0.049137
0.033191
0.019797
0.035104
0.025218
0.0089539
-0.021661
-0.014645
-0.022937
-0.026126
-0.046218
-0.035694
-0.037607
-0.067266
-0.065352
-0.086719
-0.079065
-0.053234
-0.060887
-0.053234
-0.034099
-0.019429
-0.023894
-0.009224
0.0070404
-0.0069916
-0.0089051
0.020435
0.032234
0.025537
0.025856
0.031915
0.0025757
-0.0053971
2.4388e-05
0.037975
0.017246
0.020435
0.025856
0.032553
0.014375
0.025856
0.008635
-0.0015702
0.034467
0.023624
0.013738
0.0054459
-0.018791
-0.022618
-0.012094
-0.0034836
-0.0069916
-0.0031647
-0.0015702
-0.0089051
0.0095917
0.034148
0.01597
0.0038513
0.014694
0.038294
0.027451
0.012781
0.004808
-0.017516
0.018202
0.02777
0.016927
0.0067215
0.0028946
-0.00029452
0.032234
0.021391
0.030321
0.025537
0.040526
0.048818
0.032872
-0.0089051
0.0041702
-0.0018891
-0.034737
-0.0085862
-0.0025269
-0.014964
-0.037288
-0.0095429
-0.0066727
-0.035694
-0.013051
0.0060837
-0.010819
-0.012094
0.014694
-0.0031647
-0.028678
-0.017197
-0.034099
-0.017516
-0.012094
-0.018472
-0.027721
-0.018791
-0.0060349
-0.0018891
-0.019429
-0.02517
0.045947
0.048818
0.021072
0.031278
0.039569
0.041483
0.034786
0.0079971
0.031278
0.027451
0.044353
0.045629
0.047861
0.066677
0.070822
0.050093
0.03638
0.028407
0.019478
0.037975
0.043077
0.043077
0.012462
-0.0012513
-0.015602
-0.014645
-0.0079484
-0.034737
-0.052596
-0.023894
-0.0095429
-0.015602
-0.015921
-0.015283
-0.050363
-0.046218
-0.0066727
-0.039839
-0.056104
-0.031229
-0.057698
-0.051639
-0.053234
-0.060569
-0.03378
-0.022937
-0.049407
-0.042391
-0.031229
0.0016189
0.0041702
0.011824
0.0095917
0.043715
0.00066221
-0.031548
-0.018791
-0.020386
-0.0047593
-0.0047593
-0.017516
-0.050682
-0.022937
-0.017835
-0.011137
-0.012094
-0.01337
0.00066221
-0.0076295
-0.0066727
0.01884
0.020754
0.020116
0.018202
0.015651
0.037337
0.037018
0.074649
0.069547
0.087725
0.089319
0.096335
0.148
0.11993
0.067952
0.089
0.13747
0.11388
0.076244
0.081984
0.059023
0.030321
0.024262
0.013419
-0.011775
-0.014964
-0.020705
-0.030272
-0.048131
-0.03665
-0.011456
-0.046855
-0.064395
-0.03091
-0.051001
-0.071093
-0.080341
-0.074919
-0.066309
-0.080341
-0.072368
-0.078427
-0.059612
-0.044623
-0.027402
-0.014008
-0.0089051
-0.024213
-0.022937
-0.018472
-0.012094
0.0057648
-0.010181
-0.023894
-0.0095429
0.0032135
-0.0063538
-0.034099
-0.061206
-0.052915
-0.029953
-0.016559
-0.0089051
-0.022618
-0.039202
-0.012413
-0.017197
-0.026126
-0.017516
-0.0047593
0.0032135
-0.015921
2.4388e-05
0.0089539
0.022029
0.004808
0.0051269
0.023624
0.056153
0.06572
0.040526
0.031278
0.044034
0.050731
0.025218
0.014694
0.037018
0.02171
0.011824
0.023943
0.016608
0.016608
-0.0012513
-0.005716
0.039888
0.055515
0.045629
0.060936
0.065082
0.046585
0.067314
0.059979
0.049774
0.061255
0.031278
0.045629
0.062531
0.045629
0.019159
0.024262
0.020116
0.011505
0.0099106
0.0099106
0.0019378
-0.0047593
-0.014008
-0.0041214
-0.04558
-0.044623
-0.041753
-0.063758
-0.054828
-0.049407
-0.046536
-0.058336
-0.059293
-0.059612
-0.038883
-0.017197
0.0060837
-0.029315
-0.0098618
-0.00061343
-0.0095429
-0.0018891
0.0073593
-0.005716
-0.0015702
0.008635
0.014056
0.0067215
0.010548
0.01023
0.030321
0.017564
0.013419
0.03351
0.013419
-0.0079484
0.0019378
-0.012094
-0.037607
-0.030272
-0.023575
-0.03091
-0.034737
-0.039202
-0.052277
-0.036969
-0.029953
-0.005716
-0.0028458
0.0035324
0.029045
0.037656
0.008635
0.008316
0.033191
0.028726
0.017883
0.028726
0.04531
0.037337
0.019478
-0.0025269
0.032234
0.058704
0.040845
0.043396
0.027451
0.017246
0.032234
0.03638
0.025856
0.046266
0.018202
-0.0015702
0.0095917
0.045947
0.022986
0.026494
0.041483
0.053282
0.071141
0.052326
0.060936
0.073374
0.082622
0.078157
0.083579
0.066358
0.056153
0.03351
2.4388e-05
-0.014645
-0.0076295
-0.023575
-0.034418
-0.036331
-0.040796
-0.057698
-0.045261
-0.065352
-0.078427
-0.057698
-0.059612
-0.051639
-0.065033
-0.083849
-0.094054
-0.092141
-0.067585
-0.071411
-0.06599
-0.094692
-0.074919
-0.064714
-0.053552
-0.040477
-0.027083
-0.036012
-0.022937
0.0070404
-0.012732
-0.030272
0.0051269
0.020435
0.0095917
-0.0028458
0.0089539
0.029683
0.028088
0.015332
0.031278
0.041483
0.03925
0.051369
0.026175
0.027132
0.049137
0.038612
0.017564
-0.00093234
-0.0085862
0.016927
0.031915
0.013738
-0.00093234
-0.0038025
0.011824
0.022986
0.029045
0.047542
0.055834
0.067633
0.068271
0.072417
0.052007
0.057747
0.078157
0.060936
0.066358
0.094422
0.089957
0.090276
0.09506
0.10622
0.087087
0.10845
0.074649
0.090595
0.078795
0.012781
0.055834
0.051688
0.025856
-0.0089051
-0.051639
-0.058974
-0.070774
-0.084168
-0.069179
-0.078746
-0.074919
-0.06025
-0.087995
-0.082254
-0.065033
-0.0982
-0.062163
-0.042072
-0.057379
-0.050044
-0.076514
-0.066309
-0.056104
-0.039202
-0.026764
-0.038883
-0.044942
-0.036012
-0.0041214
-0.013689
0.0038513
-0.0098618
-0.039202
-0.01624
-0.01911
-0.034099
-0.021024
-0.03378
-0.029953
-0.031229
-0.035056
-0.047493
-0.031229
-0.010819
0.0067215
0.0057648
0.018521
0.019478
0.028088
0.020754
0.025856
0.03064
0.023305
0.015651
0.015651
0.011824
0.022986
0.016608
-0.005716
0.012462
0.049137
0.061255
0.052007
0.029045
0.026175
0.050093
0.093784
0.053282
0.023943
0.053282
0.057428
0.031915
0.036061
0.047861
0.038931
0.023624
0.024899
0.026494
0.021391
0.035104
0.028088
0.032872
0.023305
0.027132
0.01597
0.011186
0.0095917
-0.030272
-0.002208
0.0057648
-0.002208
-0.021343
-0.015602
0.008635
0.029045
0.044034
0.0060837
-0.0015702
0.020435
0.019159
0.012781
0.013419
0.0092728
0.00098112
-0.034099
-0.027402
-0.00093234
-0.0079484
-0.04845
-0.017516
-0.0063538
-0.018472
-0.009224
0.0092728
-0.025807
-0.041753
-0.013689
-0.025488
-0.038245
-0.042391
-0.070455
-0.084806
-0.061206
-0.074919
-0.078746
-0.069498
-0.065671
-0.052915
-0.041434
-0.043028
-0.022937
-0.01911
-0.016559
0.0032135
0.0067215
0.0060837
0.021391
0.012462
0.0070404
0.01884
0.0032135
-0.0018891
0.012781
0.017883
0.0073593
0.018202
0.016289
0.016927
0.053282
0.039888
0.028088
0.011505
0.048818
0.066995
0.030959
0.028407
0.03638
0.02458
0.011505
0.052645
0.069866
0.053282
0.028726
0.03351
0.028088
0.031596
0.031278
0.012781
-0.01337
-0.024532
-0.037607
-0.03665
-0.020067
-0.036012
-0.02804
-0.032823
-0.032186
-0.020067
-0.0066727
-0.0085862
0.0028946
0.025856
0.021072
0.051369
0.04818
0.043077
0.041802
0.044353
0.040526
0.027132
0.023943
0.03064
0.048818
0.039888
0.012781
-0.0085862
0.013419
0.032872
-0.010181
-0.026764
-0.016559
-0.018153
-0.043347
-0.03378
-0.052915
-0.055466
-0.045899
-0.045261
-0.054828
-0.040158
-0.032823
-0.0063538
-0.0031647
-0.0073105
0.008316
-0.005716
0.010867
0.0076782
-0.00093234
0.0095917
0.0035324
-0.014327
-0.0018891
0.0044891
0.01884
0.0076782
0.0051269
0.014694
0.027132
0.00098112
0.026175
0.014694
-0.018153
-0.0044404
-0.0050782
