0.0073593
0.014694
0.02458
0.0013
-0.00061343
0.0057648
-0.0047593
-0.010181
-0.013051
-0.019429
-0.016559
-0.012094
-0.0044404
0.0013
-0.0012513
0.008635
0.015332
0.01023
0.014694
0.028088
0.0079971
0.0003433
0.0060837
-0.005716
-0.0095429
-0.0085862
-0.014964
-0.020067
0.0025757
0.0022568
-0.0025269
0.00098112
0.0076782
0.015651
0.018202
0.017883
0.0131
0.0070404
0.0003433
-0.0018891
-0.012094
-0.01337
-0.012094
-0.015283
-0.024213
-0.0073105
-0.00029452
-0.0063538
0.0032135
0.0076782
0.004808
0.011824
0.022029
-0.0018891
-0.0047593
0.0013
-0.0082673
-0.014008
-0.015921
-0.022937
-0.023256
-0.013689
-0.0095429
-0.0041214
-0.0060349
0.0028946
0.010548
0.0060837
0.010548
0.022986
0.0035324
-0.0044404
2.4388e-05
-0.010819
-0.014645
-0.012413
-0.020067
-0.024851
2.4388e-05
2.4388e-05
-0.0063538
-0.0018891
0.0051269
0.012462
0.016289
0.016289
0.0099106
0.0057648
0.0003433
-0.0028458
-0.011137
-0.01337
-0.010819
-0.014964
-0.023894
-0.0060349
0.0032135
-0.0050782
0.0051269
0.010867
0.0073593
0.014056
0.026175
0.00098112
-0.00029452
0.0067215
-0.0038025
-0.010181
-0.012413
-0.019748
-0.017835
-0.0085862
-0.0050782
0.0003433
-0.002208
0.0076782
0.015013
0.01023
0.015013
0.026175
0.0092728
-0.00093234
0.004808
-0.0076295
-0.011456
-0.009224
-0.014008
-0.02198
0.0022568
0.0035324
-0.0031647
0.0016189
0.0070404
0.015651
0.019797
0.020754
0.011186
0.0076782
0.0044891
-0.00029452
-0.0082673
-0.010181
-0.0098618
-0.012094
-0.01911
-0.0047593
0.0060837
-0.0015702
0.0095917
0.013738
0.0073593
0.014694
0.02777
0.0035324
0.00066221
0.0076782
-0.005716
-0.0076295
-0.012094
-0.018153
-0.018153
-0.0060349
-0.0025269
-0.002208
-0.002208
0.0070404
0.015013
0.0095917
0.013738
0.023624
0.0070404
-0.0044404
0.00066221
-0.011456
-0.014327
-0.011775
-0.017197
-0.026126
-0.0031647
-0.0012513
-0.0082673
-0.00061343
0.0019378
0.0092728
0.013419
0.01597
0.0028946
0.00066221
-0.0015702
-0.005716
-0.014008
-0.01624
-0.017835
-0.017516
-0.02517
-0.011456
-0.00061343
-0.0073105
0.0038513
0.0092728
0.0028946
0.010548
0.024899
0.0003433
-0.0038025
0.0041702
-0.0073105
-0.011775
-0.013051
-0.020067
-0.019748
-0.0034836
-0.0041214
-0.00093234
-0.00029452
0.0067215
0.017246
0.012143
0.01597
0.024899
0.0095917
-0.00061343
0.0032135
-0.0082673
-0.012413
-0.0079484
-0.01337
-0.021661
-0.00061343
0.0019378
-0.0047593
0.0025757
0.0070404
0.011186
0.016289
0.019478
0.0064026
0.0022568
0.0016189
-0.0041214
-0.011456
-0.014008
-0.017835
-0.017197
-0.020386
-0.0076295
-0.00029452
-0.0060349
0.0038513
0.011824
0.0041702
0.011186
0.024899
0.0016189
-0.0028458
0.0057648
-0.0060349
-0.0105
-0.013051
-0.019429
-0.018472
-0.0031647
-0.0041214
-0.0025269
-0.0012513
0.0054459
0.014694
0.012462
0.0131
0.020116
0.0067215
-0.0038025
-0.0012513
-0.012094
-0.015921
-0.012732
-0.018791
-0.027083
-0.0038025
-0.00061343
-0.009224
-0.0012513
0.0032135
0.008316
0.012781
0.017246
-0.00029452
-0.0012513
-0.00029452
-0.005716
-0.013689
-0.017197
-0.018791
-0.017835
-0.020386
-0.011775
-0.00029452
-0.0041214
0.0044891
0.01023
0.0028946
0.011505
0.025537
0.0003433
-0.0047593
0.0051269
-0.0076295
-0.011456
-0.014645
-0.020067
-0.022618
-0.0038025
-0.0038025
-0.0034836
-0.0034836
0.0064026
0.014375
0.013419
0.014694
0.020116
0.0079971
-0.00093234
2.4388e-05
-0.011456
-0.014645
-0.0098618
-0.014645
-0.024851
-0.0034836
0.00098112
-0.0063538
0.00098112
0.0060837
0.0095917
0.015013
0.019797
0.0003433
0.0016189
0.0038513
-0.0050782
-0.013051
-0.014008
-0.017516
-0.016878
-0.018791
-0.0085862
0.00098112
-0.0041214
0.0079971
0.013419
0.0060837
0.012781
0.027132
0.0054459
-0.00029452
0.008635
-0.0041214
-0.0079484
-0.009224
-0.015283
-0.018153
0.0022568
0.0022568
2.4388e-05
0.0022568
0.008635
0.017246
0.017883
0.019159
0.021391
0.010867
-0.00029452
0.0022568
-0.0082673
-0.012094
-0.0085862
-0.012732
-0.023256
-0.002208
0.0019378
-0.0047593
0.0032135
0.0070404
0.0089539
0.015013
0.022348
0.0003433
-0.00093234
0.0019378
-0.0050782
-0.01337
-0.014964
-0.020705
-0.020067
-0.018791
-0.0105
-0.0015702
-0.0063538
0.0028946
0.010867
0.0025757
0.0095917
0.023305
0.0003433
-0.0066727
0.0019378
-0.010181
-0.01337
-0.014964
-0.021661
-0.024213
-0.0034836
-0.0041214
-0.0044404
-0.0028458
0.0028946
0.012781
0.014056
0.012781
0.015651
0.0057648
-0.002208
-0.0015702
-0.011775
-0.014964
-0.011137
-0.015283
-0.023894
-0.0050782
0.0038513
-0.0050782
0.0067215
0.0089539
0.0095917
0.01597
0.02458
0.0038513
0.0025757
0.0067215
-0.0028458
-0.0079484
-0.011775
-0.015602
-0.015602
-0.011137
-0.0038025
0.0038513
0.0003433
0.010548
0.017246
0.010867
0.016289
0.030002
0.0099106
0.0022568
0.0092728
-0.0028458
-0.0073105
-0.0085862
-0.014008
-0.017516
0.0038513
0.0022568
-0.0012513
0.0019378
0.0070404
0.017246
0.017883
0.018202
0.015332
0.0070404
-0.00061343
-0.0015702
-0.011137
-0.014327
-0.012413
-0.017835
-0.026126
-0.0066727
-0.00061343
-0.0089051
0.0003433
0.0044891
0.0044891
0.012462
0.02171
-0.0034836
-0.0034836
0.0003433
-0.0089051
-0.014008
-0.017197
-0.022299
-0.022618
-0.018153
-0.011456
-0.0044404
-0.0060349
0.0032135
0.0099106
0.0025757
0.008635
0.022986
0.0028946
-0.0053971
0.0022568
-0.0105
-0.014645
-0.013689
-0.019429
-0.023894
-0.00061343
-0.0012513
-0.005716
-0.002208
0.0060837
0.0131
0.016289
0.016608
0.0131
0.0051269
2.4388e-05
-0.0018891
-0.012094
-0.014008
-0.0098618
-0.014964
-0.023575
-0.0041214
0.0022568
-0.0047593
0.0054459
0.0079971
0.0079971
0.013738
0.02458
0.0013
-0.00061343
0.0060837
-0.0053971
-0.011456
-0.015283
-0.01911
-0.017835
-0.013051
-0.0076295
-0.0015702
-0.0028458
0.0060837
0.012781
0.0073593
0.011824
0.023943
0.0060837
-0.0047593
0.0016189
-0.010181
-0.013689
-0.013051
-0.017835
-0.024213
-0.00029452
-0.00093234
-0.005716
-0.00061343
0.0054459
0.013419
0.017246
0.016608
0.011505
0.0057648
-0.00029452
-0.0018891
-0.012732
-0.014327
-0.012732
-0.015283
-0.023894
-0.0073105
0.0003433
-0.0060349
0.0028946
0.0067215
0.0057648
0.011824
0.022348
-0.0015702
-0.0060349
0.0028946
-0.0073105
-0.012413
-0.016878
-0.024213
-0.022937
-0.012732
-0.0095429
-0.0053971
-0.0066727
0.0028946
0.01023
0.0041702
0.008316
0.020116
0.0025757
-0.0069916
-0.0028458
-0.014327
-0.017197
-0.015283
-0.022618
-0.029315
-0.0050782
-0.0050782
-0.011456
-0.005716
2.4388e-05
0.0060837
0.01023
0.012143
0.0022568
-0.0012513
-0.0050782
-0.0089051
-0.01911
-0.019429
-0.019748
-0.020386
-0.028678
-0.013051
-0.0034836
-0.010181
2.4388e-05
0.0041702
0.00098112
0.0095917
0.022029
-0.0034836
-0.0047593
0.0025757
-0.0089051
-0.012094
-0.014964
-0.020067
-0.021343
-0.0085862
-0.0050782
-0.002208
-0.0018891
0.0070404
0.015013
0.010867
0.014694
0.026494
0.01023
-0.00061343
0.0057648
-0.0066727
-0.0098618
-0.0060349
-0.010819
-0.01911
0.0051269
0.0051269
2.4388e-05
0.0067215
0.011505
0.017246
0.022986
0.02458
0.012462
0.008635
0.0073593
0.0019378
-0.0063538
-0.0082673
-0.0095429
-0.011137
-0.018472
-0.0031647
0.0044891
-0.0012513
0.0092728
0.013419
0.0092728
0.014694
0.027132
0.0019378
-0.00093234
0.0064026
-0.0050782
-0.0095429
-0.013051
-0.019429
-0.019748
-0.0053971
-0.0041214
-0.0018891
-0.002208
0.0064026
0.014694
0.011186
0.015651
0.024899
0.0079971
-0.0018891
0.0038513
-0.0082673
-0.011137
-0.0076295
-0.013689
-0.020705
0.0025757
0.0044891
-0.0025269
0.0038513
0.0089539
0.015332
0.019478
0.022667
0.008316
0.0060837
0.004808
-0.00093234
-0.0098618
-0.012094
-0.013689
-0.01337
-0.019748
-0.0069916
0.0022568
-0.0031647
0.0067215
0.011505
0.0057648
0.012462
0.025218
0.0003433
-0.0041214
0.0054459
-0.0082673
-0.013051
-0.017197
-0.021024
-0.023256
-0.0089051
-0.0079484
-0.0063538
-0.0044404
0.0025757
0.011505
0.008316
0.01023
0.016289
0.0051269
-0.005716
-0.002208
-0.01337
-0.017835
-0.014327
-0.019429
-0.028359
-0.0063538
-0.002208
-0.009224
-0.0018891
0.0019378
0.0060837
0.012462
0.01597
-0.00093234
-0.0012513
-0.0015702
-0.0079484
-0.015602
-0.016878
-0.020386
-0.019429
-0.02517
-0.011137
-0.0028458
-0.0082673
0.0025757
0.008635
0.0019378
0.0099106
0.024262
-0.0015702
-0.005716
0.0022568
-0.009224
-0.014645
-0.015283
-0.022299
-0.023256
-0.0060349
-0.0050782
-0.0050782
-0.0053971
0.0035324
0.011824
0.011186
0.010867
0.019159
0.0051269
-0.0031647
-0.00093234
-0.011775
-0.014008
-0.011775
-0.017197
-0.024532
-0.0028458
-0.00061343
-0.0050782
0.0016189
0.0064026
0.0095917
0.016927
0.020754
0.0035324
0.0019378
0.0035324
-0.002208
-0.0098618
-0.014008
-0.017197
-0.014964
-0.017835
-0.0063538
0.0019378
-0.0034836
0.0064026
0.012143
0.0044891
0.011505
0.026175
0.0028946
-0.0018891
0.0054459
-0.0069916
-0.012094
-0.01337
-0.020067
-0.021661
-0.0028458
-0.0038025
-0.0031647
-0.002208
0.0051269
0.013419
0.012462
0.0131
0.019797
0.0079971
-0.0028458
0.00098112
-0.0098618
-0.014008
-0.0105
-0.015283
-0.02517
-0.0041214
0.0025757
-0.0066727
0.00066221
0.0057648
0.0099106
0.014375
0.019478
-0.00029452
-0.0012513
0.0016189
-0.0066727
-0.012094
-0.016878
-0.020067
-0.018472
-0.01911
-0.010819
2.4388e-05
-0.0047593
0.0044891
0.012781
0.004808
0.0131
0.024899
0.0019378
-0.0038025
0.0051269
-0.0082673
-0.011137
-0.012413
-0.017835
-0.020705
-0.00093234
-0.0015702
-0.002208
-0.00029452
0.008635
0.015332
0.017564
0.017883
0.019478
0.01023
-0.00029452
0.00098112
-0.0105
-0.011775
-0.0089051
-0.012413
-0.02198
-0.0028458
0.0028946
-0.0050782
0.004808
0.008316
0.01023
0.016289
0.023305
0.0016189
0.0013
0.0041702
-0.0031647
-0.010181
-0.011456
-0.016559
-0.015921
-0.013689
-0.0053971
0.0025757
-0.0018891
0.0099106
0.015013
0.008316
0.0131
0.028088
0.0067215
-0.0012513
0.0070404
-0.005716
-0.0098618
-0.0105
-0.016878
-0.021661
2.4388e-05
2.4388e-05
-0.0034836
0.00098112
0.0067215
0.015013
0.016608
0.015332
0.016608
0.0067215
-0.0015702
-0.00061343
-0.012094
-0.014645
-0.012094
-0.016878
-0.02517
-0.0066727
0.0003433
-0.0082673
0.0003433
0.0044891
0.0060837
0.011505
0.019797
-0.0018891
-0.0034836
0.00098112
-0.0089051
-0.01337
-0.014327
-0.021024
-0.020067
-0.014964
-0.0085862
-0.00061343
-0.0034836
0.0070404
0.014375
0.0070404
0.014056
0.028407
0.0064026
-0.00061343
0.0064026
-0.0066727
-0.010181
-0.010181
-0.017197
-0.021661
0.0019378
0.0013
-0.0028458
-0.00061343
0.0051269
0.0131
0.015651
0.015651
0.012781
0.0044891
-0.0028458
-0.0028458
-0.014008
-0.016559
-0.014964
-0.018791
-0.027402
-0.0089051
-0.0015702
-0.010181
-0.00029452
0.0038513
0.0032135
0.0095917
0.019478
-0.0044404
-0.0050782
0.00098112
-0.0089051
-0.015283
-0.018791
-0.023575
-0.022618
-0.016878
-0.010181
-0.0031647
-0.0066727
0.0028946
0.010548
0.0041702
0.0095917
0.022348
0.0038513
-0.0053971
0.0013
-0.011456
-0.014008
-0.012732
-0.019748
-0.023894
0.00066221
2.4388e-05
-0.0047593
-0.00029452
0.0070404
0.014375
0.01884
0.017246
0.012781
0.0070404
0.0016189
-0.00029452
-0.0098618
-0.013051
-0.011137
-0.015283
-0.023575
-0.005716
0.0019378
-0.0053971
0.0035324
0.0067215
0.0064026
0.012462
0.023943
-0.0015702
-0.002208
0.0035324
-0.0066727
-0.012094
-0.014327
-0.020067
-0.017835
-0.0098618
-0.0063538
2.4388e-05
-0.0018891
0.008635
0.014694
0.011186
0.014375
0.027132
0.0095917
-0.0015702
0.0044891
-0.0066727
-0.0095429
-0.0085862
-0.015921
-0.02198
0.0025757
0.0025757
-0.0038025
0.0016189
0.0089539
0.015013
0.018202
0.01884
0.012781
0.0073593
0.0022568
-0.00061343
-0.010181
-0.012094
-0.011775
-0.012732
-0.022299
-0.0063538
0.0019378
-0.0050782
0.004808
0.0092728
0.0060837
0.0131
0.025537
-0.0012513
-0.0018891
0.0025757
-0.0073105
-0.014327
-0.017197
-0.023256
-0.022299
-0.012094
-0.0089051
-0.005716
-0.005716
0.0022568
0.010548
0.0054459
0.0089539
0.021391
0.0038513
-0.005716
0.00098112
-0.012413
-0.016878
-0.01337
-0.019429
-0.026445
-0.0041214
-0.0034836
-0.0085862
-0.0031647
0.0025757
0.0095917
0.011824
0.0131
0.0041702
0.0022568
-0.0025269
-0.0076295
-0.015283
-0.018472
-0.017197
-0.019748
-0.02804
-0.0105
-0.0015702
-0.0085862
0.0019378
0.0067215
0.0019378
0.010548
0.022667
-0.002208
-0.005716
0.0028946
-0.0085862
-0.014645
-0.016559
-0.023256
-0.021661
-0.0098618
-0.0069916
-0.0028458
-0.0044404
0.0044891
0.012781
0.0079971
0.012143
0.024262
0.0076782
-0.0044404
0.0019378
-0.009224
-0.012413
-0.0098618
-0.016559
-0.023256
-0.00061343
0.0019378
-0.0044404
0.0019378
0.008316
0.014056
0.019159
0.022029
0.008316
0.0057648
0.0051269
-0.00029452
-0.0089051
-0.0105
-0.012094
-0.012732
-0.019748
-0.0038025
0.0051269
-0.002208
0.0089539
0.013419
0.0073593
0.015332
0.028407
0.0025757
-0.00061343
0.0076782
-0.0050782
-0.009224
-0.01337
-0.01911
-0.017835
-0.0034836
-0.0031647
-0.0012513
-0.00061343
0.0079971
0.015651
0.012143
0.01597
0.026175
0.0099106
-0.00061343
0.0032135
-0.0063538
-0.010819
-0.0085862
-0.014327
-0.023575
2.4388e-05
0.0016189
-0.0047593
0.0022568
0.0057648
0.011505
0.016608
0.017246
0.0032135
0.0035324
2.4388e-05
-0.0041214
-0.013051
-0.014645
-0.01624
-0.015602
-0.022299
-0.009224
0.00098112
-0.0047593
0.0073593
0.010867
0.0067215
0.014694
0.027451
0.0032135
-0.00061343
0.0073593
-0.0047593
-0.0076295
-0.010819
-0.018791
-0.016878
-0.00093234
0.00066221
2.4388e-05
0.00066221
0.0079971
0.016927
0.015332
0.017246
0.024899
0.011186
2.4388e-05
0.0025757
-0.0069916
-0.0105
-0.0073105
-0.014645
-0.021343
0.00066221
0.0044891
-0.0031647
0.0044891
0.0095917
0.014694
0.019478
0.023624
0.0067215
0.0057648
0.0060837
2.4388e-05
-0.0063538
-0.0095429
-0.013051
-0.012732
-0.016559
-0.0047593
0.0057648
-0.00029452
0.0092728
0.015013
0.0079971
0.016289
0.029683
0.0057648
2.4388e-05
0.008316
-0.0041214
-0.0076295
-0.0105
-0.01624
-0.017197
0.0003433
0.00066221
0.0016189
0.0016189
0.0099106
0.01884
0.017246
0.01884
0.025218
0.014375
0.004808
0.0067215
-0.0041214
-0.0076295
-0.0050782
-0.0089051
-0.017835
0.0051269
0.008316
0.00098112
0.0095917
0.013419
0.01597
0.020754
0.026813
0.0079971
0.0060837
0.0070404
-0.0012513
-0.0095429
-0.010819
-0.015921
-0.014327
-0.017516
-0.0069916
0.00066221
-0.0028458
0.0060837
0.0131
0.0057648
0.011824
0.027132
0.0022568
-0.0034836
0.0038513
-0.0082673
-0.012094
-0.01337
-0.021661
-0.023256
-0.002208
-0.0034836
-0.005716
-0.0038025
0.0038513
0.0131
0.012781
0.012781
0.017564
0.0064026
-0.0047593
-0.0015702
-0.012094
-0.01624
-0.012413
-0.017516
-0.025488
-0.0050782
-0.00093234
-0.009224
0.0013
0.0057648
0.008635
0.0131
0.020435
-0.00029452
-0.00093234
0.0025757
-0.005716
-0.014327
-0.014964
-0.018791
-0.018791
-0.018153
-0.0076295
0.00098112
-0.0047593
0.0067215
0.0131
0.0057648
0.012143
0.027451
0.0038513
-0.0025269
0.004808
-0.0063538
-0.012413
-0.012413
-0.021024
-0.022618
-0.00093234
-0.0018891
-0.0063538
-0.0044404
0.0044891
0.012462
0.0131
0.012781
0.015013
0.0051269
-0.0044404
-0.0028458
-0.014008
-0.017197
-0.013051
-0.018472
-0.027721
-0.0066727
-0.0015702
-0.0098618
-0.00061343
0.004808
0.004808
0.011824
0.020116
-0.0028458
-0.0038025
0.0016189
-0.0082673
-0.013689
-0.016559
-0.022618
-0.020705
-0.017835
-0.010181
-0.0012513
-0.0076295
0.0028946
0.010548
0.0044891
0.010867
0.024262
0.0038513
-0.0038025
0.0025757
-0.009224
-0.01337
-0.013051
-0.019748
-0.024213
-0.0015702
-0.0025269
-0.0041214
-0.002208
0.004808
0.012781
0.014694
0.015013
0.013419
0.0067215
-0.0034836
-0.002208
-0.012413
-0.015921
-0.011775
-0.017197
-0.025488
-0.0063538
0.00098112
-0.0073105
0.0025757
0.0064026
0.0073593
0.014056
0.024262
-0.00093234
-0.00061343
0.004808
-0.0069916
-0.012094
-0.015283
-0.020705
-0.018153
-0.013689
-0.0095429
-0.0015702
-0.0047593
0.0041702
0.011824
0.0051269
0.011505
0.024262
0.0041702
-0.005716
0.0022568
-0.0095429
-0.014327
-0.012413
-0.017835
-0.024213
-0.00093234
-0.0015702
-0.0053971
-0.002208
0.004808
0.012781
0.015332
0.013738
0.012143
0.0054459
-0.0028458
-0.0041214
-0.013689
-0.015283
-0.013689
-0.017197
-0.027083
-0.0082673
-0.0012513
-0.0069916
0.0022568
0.0070404
0.0054459
0.012462
0.02171
-0.002208
-0.0015702
0.0028946
-0.0069916
-0.012413
-0.015921
-0.022937
-0.020067
-0.011456
-0.0079484
-0.0012513
-0.0044404
0.0067215
0.014375
0.008635
0.015013
0.02777
0.0079971
-0.00061343
0.0057648
-0.0060349
-0.009224
-0.0069916
-0.013051
-0.01911
0.0044891
0.0044891
0.0003433
0.004808
0.011824
0.01884
0.023624
0.023305
0.017246
0.010548
0.0051269
0.0032135
-0.0063538
-0.0089051
-0.0076295
-0.012094
-0.020067
-0.0038025
0.0038513
-0.0038025
0.0057648
0.0099106
0.008316
0.015013
0.025218
2.4388e-05
-0.0012513
0.0051269
-0.0060349
-0.0105
-0.014327
-0.021024
-0.018791
-0.0098618
-0.0060349
-0.00093234
-0.0031647
0.0070404
0.0131
0.0092728
0.014375
0.026494
0.008316
-0.0018891
0.0044891
-0.0079484
-0.012094
-0.0105
-0.016878
-0.022618
0.0013
2.4388e-05
-0.0053971
0.00098112
0.0054459
0.013419
0.018202
0.017564
0.0092728
0.0041702
-0.00061343
-0.0018891
-0.013051
-0.016878
-0.014645
-0.017197
-0.026764
-0.012413
-0.0012513
-0.009224
0.0016189
0.0060837
0.0019378
0.0089539
0.021391
-0.0044404
-0.0063538
0.0016189
-0.0085862
-0.013689
-0.017516
-0.023575
-0.024851
-0.012094
-0.0076295
-0.0018891
-0.0047593
0.0041702
0.012462
0.0089539
0.012143
0.024899
0.0073593
-0.0034836
0.0028946
-0.0098618
-0.011775
-0.009224
-0.01624
-0.022937
0.0022568
0.0019378
-0.0031647
0.0016189
0.0076782
0.015013
0.020435
0.021391
0.010867
0.008635
0.0041702
0.00098112
-0.009224
-0.0105
-0.010819
-0.011775
-0.017835
-0.0031647
0.0057648
-0.00061343
0.01023
0.015332
0.010548
0.017883
0.030002
0.0051269
0.0022568
0.010867
-0.0018891
-0.0053971
-0.009224
-0.01624
-0.014964
-0.002208
-0.00061343
0.0019378
0.0022568
0.010867
0.018202
0.016289
0.017883
0.028726
0.012462
0.0016189
0.0067215
-0.005716
-0.0079484
-0.005716
-0.011775
-0.01911
0.0051269
0.0070404
-0.00029452
0.0057648
0.011186
0.017246
0.023305
0.024262
0.010867
0.008635
0.0067215
0.0028946
-0.0060349
-0.0085862
-0.010819
-0.010819
-0.017197
-0.0041214
0.0054459
-0.00093234
0.01023
0.015013
0.0079971
0.016927
0.029364
0.0028946
-0.00061343
0.0089539
-0.0044404
-0.009224
-0.013051
-0.020067
-0.01911
-0.0044404
-0.002208
-0.0025269
-0.002208
0.0054459
0.0131
0.010867
0.013419
0.022348
0.0076782
-0.0044404
-0.00061343
-0.011775
-0.015283
-0.013051
-0.019429
-0.02804
-0.0031647
-0.0018891
-0.0098618
-0.0015702
0.0028946
0.0070404
0.012781
0.015651
-0.0015702
-0.0015702
-0.0028458
-0.0073105
-0.01624
-0.018791
-0.020386
-0.020386
-0.025807
-0.012413
-0.0018891
-0.0089051
0.0022568
0.008635
0.0019378
0.010548
0.023943
-0.00061343
-0.0041214
0.0038513
-0.0069916
-0.012413
-0.014008
-0.020705
-0.021343
-0.0031647
-0.0025269
-0.0028458
-0.00061343
0.0067215
0.01597
0.012781
0.016608
0.022667
0.012143
-0.00029452
0.0025757
-0.0082673
-0.012413
-0.0089051
-0.013689
-0.023894
-0.00029452
0.0032135
-0.0050782
0.0032135
0.0076782
0.01023
0.01597
0.020435
0.0028946
0.00098112
0.0003433
-0.0044404
-0.012413
-0.016559
-0.020386
-0.019748
-0.022618
-0.012094
-0.0031647
-0.0079484
0.0022568
0.0095917
0.0019378
0.0092728
0.02458
0.0013
-0.0050782
0.00098112
-0.012094
-0.017516
-0.014964
-0.022618
-0.024213
-0.0076295
-0.0069916
-0.0089051
-0.0076295
0.0003433
0.0089539
0.0073593
0.01023
0.012781
0.00066221
-0.012094
-0.0053971
-0.017197
-0.020067
-0.018153
-0.024532
-0.033142
-0.011137
-0.0095429
-0.01624
-0.010181
-0.0085862
-0.0041214
0.0076782
0.013419
-0.0053971
-0.0082673
-0.0044404
-0.012732
-0.016878
-0.01911
-0.022937
-0.021343
-0.020705
-0.011137
0.0003433
-0.00061343
0.0079971
0.010548
0.0032135
0.0095917
0.026175
0.0028946
-0.0025269
0.0044891
-0.005716
-0.010819
-0.010181
-0.017197
-0.020067
-0.00061343
-0.00061343
2.4388e-05
0.0028946
0.0095917
0.019159
0.017883
0.019478
0.022029
0.010867
0.0013
0.00098112
-0.0085862
-0.0089051
-0.0066727
-0.014645
-0.023256
-0.0031647
0.0035324
-0.0034836
0.0022568
0.0073593
0.0092728
0.016608
0.022348
0.0003433
2.4388e-05
0.0032135
-0.0066727
-0.01337
-0.017197
-0.022618
-0.020067
-0.022299
-0.01337
-0.0050782
-0.0105
0.0003433
0.0064026
-0.002208
0.0060837
0.019478
-0.0028458
-0.0098618
-0.0031647
-0.014964
-0.018791
-0.018472
-0.027402
-0.028678
-0.0089051
-0.0085862
-0.0098618
-0.0079484
-0.0018891
0.0067215
0.0079971
0.008316
0.0092728
0.00066221
-0.009224
-0.0076295
-0.018153
-0.021343
-0.018472
-0.022618
-0.032823
-0.012413
-0.005716
-0.014645
-0.005716
-0.00061343
-0.00061343
0.0067215
0.013738
-0.0076295
-0.010181
-0.0060349
-0.014645
-0.021343
-0.024532
-0.03091
-0.028996
-0.026445
-0.019748
-0.011456
-0.014327
-0.0025269
0.0051269
-0.002208
0.0038513
0.020754
-0.00029452
-0.0066727
0.00098112
-0.011456
-0.013689
-0.014008
-0.01911
-0.022937
0.0016189
0.00066221
-0.0018891
0.0003433
0.0057648
0.013419
0.013738
0.015651
0.0131
0.0041702
-0.0044404
-0.0050782
-0.01624
-0.020705
-0.018153
-0.024213
-0.033142
-0.014008
-0.010181
-0.014645
-0.0063538
-0.0015702
-0.0038025
0.0092728
0.020435
-0.002208
-0.0050782
-0.00029452
-0.0105
-0.014964
-0.015921
-0.022299
-0.020067
-0.016559
-0.0105
-0.0060349
-0.0089051
0.0019378
0.0060837
-0.00061343
0.0057648
0.020116
0.0013
-0.0063538
0.0025757
-0.0079484
-0.0085862
-0.0053971
-0.013689
-0.017516
0.010548
0.0095917
0.0079971
0.01597
0.024262
0.031278
0.03638
0.03351
0.03064
0.02458
0.01884
0.018521
0.0076782
0.0054459
0.0064026
0.0025757
-0.0063538
0.010548
0.017246
0.011186
0.019159
0.022986
0.020754
0.026813
0.036699
0.012462
0.0099106
0.014056
0.0035324
-0.0031647
-0.0060349
-0.014645
-0.011775
-0.005716
-0.002208
0.0044891
2.4388e-05
0.01023
0.01597
0.010548
0.015651
0.026813
0.0079971
-0.002208
0.0041702
-0.009224
-0.01337
-0.013051
-0.019748
-0.023894
2.4388e-05
-0.0041214
-0.0069916
-0.0038025
0.0022568
0.010867
0.015332
0.014375
0.0095917
0.004808
-0.00061343
-0.0015702
-0.011775
-0.012413
-0.012413
-0.013051
-0.021024
-0.0018891
0.0064026
0.0003433
0.01023
0.015651
0.01023
0.017883
0.03064
0.0076782
0.0022568
0.0089539
-0.0015702
-0.0073105
-0.012094
-0.017516
-0.017516
-0.0073105
-0.0047593
0.0013
-0.0012513
0.0070404
0.01597
0.0079971
0.011505
0.025856
0.0076782
-0.0034836
0.0044891
-0.0095429
-0.012094
-0.012094
-0.018791
-0.024213
-0.00029452
0.00066221
-0.0047593
-0.0012513
0.0051269
0.011505
0.017246
0.016608
0.0073593
0.0044891
2.4388e-05
-0.0044404
-0.012413
-0.014645
-0.014645
-0.016559
-0.024213
-0.0085862
0.0016189
-0.0060349
0.004808
0.010548
0.008316
0.01597
0.027451
0.0022568
0.0016189
0.0079971
-0.0034836
-0.0073105
-0.0082673
-0.014327
-0.01337
2.4388e-05
0.0003433
0.004808
0.0025757
0.008316
0.022986
0.020116
0.021391
0.031278
0.013419
0.0038513
0.0095917
-0.0031647
-0.005716
-0.0044404
-0.0098618
-0.015283
0.008635
0.008635
0.0028946
0.0095917
0.015013
0.022029
0.026175
0.028088
0.016289
0.015013
0.01023
0.0073593
-0.0015702
-0.0047593
-0.0060349
-0.0060349
-0.014327
0.0019378
0.010867
0.0035324
0.012462
0.017564
0.0131
0.021072
0.033829
0.008635
0.0051269
0.012143
0.00098112
-0.0044404
-0.0079484
-0.015283
-0.013051
0.0003433
0.00098112
0.0038513
0.0038513
0.012143
0.019797
0.016608
0.020435
0.029683
0.014056
0.0025757
0.0070404
-0.0041214
-0.0079484
-0.005716
-0.010819
-0.019429
0.0038513
0.0044891
0.0003433
0.0038513
0.01023
0.015013
0.021391
0.022986
0.0089539
0.0064026
0.0051269
-0.00061343
-0.0098618
-0.012413
-0.014008
-0.014327
-0.020386
-0.0050782
0.0051269
-0.0028458
0.0092728
0.014056
0.0079971
0.016927
0.029364
0.0041702
0.0003433
0.0099106
-0.0031647
-0.0085862
-0.011456
-0.016878
-0.018472
-0.0012513
-0.0028458
2.4388e-05
-0.00093234
0.0076782
0.014375
0.0131
0.014375
0.022348
0.0076782
-0.0034836
-0.0034836
-0.014964
-0.017197
-0.014645
-0.022299
-0.033142
-0.010819
-0.0098618
-0.018472
-0.012413
-0.0089051
-0.0031647
0.0016189
0.0057648
-0.0079484
-0.0098618
-0.0076295
-0.010181
-0.01911
-0.02198
-0.021661
-0.020386
-0.019748
-0.0041214
0.0073593
0.0044891
0.017883
0.021391
0.017246
0.02777
0.042439
0.021072
0.012143
0.023624
0.012462
0.008635
0.0057648
0.0003433
-0.0015702
0.015332
0.014375
0.014375
0.013738
0.021072
0.03064
0.02777
0.025537
0.03064
0.01884
0.0057648
0.0092728
-0.00061343
-0.0018891
-0.0076295
-0.015602
-0.017197
0.0089539
0.014056
2.4388e-05
0.0076782
0.012143
0.020116
0.027451
0.030002
0.014375
0.011824
0.011824
0.0060837
-0.002208
-0.005716
-0.0098618
-0.0085862
-0.010181
-0.00029452
0.010548
0.0028946
0.013419
0.020754
0.012781
0.019797
0.03351
0.0095917
0.0038513
0.0131
-0.0012513
-0.0066727
-0.0085862
-0.014008
-0.015921
0.0028946
0.0022568
0.0019378
0.0028946
0.0099106
0.01884
0.018521
0.01884
0.022986
0.011186
0.00066221
0.0041702
-0.0082673
-0.012413
-0.0079484
-0.014327
-0.023256
-0.0012513
0.0025757
-0.0038025
0.0019378
0.0089539
0.011186
0.016289
0.019159
0.0016189
0.0003433
0.0019378
-0.0060349
-0.014008
-0.017516
-0.023575
-0.021343
-0.023575
-0.012094
-0.0047593
-0.012413
-0.0018891
0.0028946
-0.002208
0.0016189
0.013738
-0.009224
-0.019429
-0.0105
-0.020067
-0.025488
-0.028678
-0.036012
-0.037607
-0.01337
-0.012094
-0.012094
-0.011137
0.0003433
0.0095917
0.011186
0.013738
0.019159
0.0095917
0.0019378
0.004808
-0.005716
-0.009224
-0.0076295
-0.011775
-0.019748
0.00098112
0.0099106
0.0022568
0.011824
0.017564
0.020754
0.026813
0.03064
0.012143
0.014056
0.017564
0.011824
0.004808
0.00098112
-0.0044404
-0.0025269
-0.002208
0.0067215
0.016289
0.011824
0.022986
0.029683
0.021072
0.029045
0.042758
0.018521
0.011824
0.019478
0.0079971
0.0016189
-0.00029452
-0.0085862
-0.012094
0.011824
0.0076782
0.0038513
0.0035324
0.012462
0.019797
0.019797
0.019159
0.017246
0.008635
-0.0012513
0.0003433
-0.0095429
-0.011456
-0.010181
-0.015283
-0.023894
-0.00029452
0.0070404
-0.00093234
0.010548
0.018521
0.016289
0.024262
0.032234
0.012462
0.0095917
0.015013
0.0054459
-0.00093234
-0.0038025
-0.009224
-0.0105
-0.0073105
-0.0015702
0.0095917
0.0044891
0.013738
0.020435
0.0131
0.018202
0.031278
0.0095917
0.0003433
0.0099106
-0.0038025
-0.0076295
-0.0095429
-0.018153
-0.020067
0.0035324
0.00066221
-0.0018891
0.00098112
0.0070404
0.015651
0.01884
0.016927
0.016289
0.0092728
0.0003433
0.00098112
-0.011456
-0.012413
-0.012413
-0.014645
-0.024532
-0.0050782
0.0022568
-0.0060349
0.0032135
0.0092728
0.008635
0.015013
0.024899
-0.00093234
-0.0034836
0.0022568
-0.0050782
-0.01337
-0.016559
-0.024532
-0.022299
-0.01624
-0.0105
-0.0028458
-0.0085862
0.0022568
0.0089539
0.0016189
0.01023
0.024899
0.0022568
-0.0069916
0.00098112
-0.011775
-0.017197
-0.016559
-0.023256
-0.026764
-0.0025269
-0.0041214
-0.0076295
-0.0038025
0.0041702
0.015013
0.016289
0.015332
0.011186
0.0070404
0.0013
0.00098112
-0.0098618
-0.011456
-0.0085862
-0.011775
-0.022618
-0.0012513
0.0076782
-0.00093234
0.0099106
0.015013
0.01597
0.023624
0.033829
0.0079971
0.0064026
0.014056
0.0028946
-0.0047593
-0.0089051
-0.01337
-0.011775
-0.0047593
-0.0015702
0.0073593
0.0019378
0.0099106
0.018521
0.011505
0.015332
0.029045
0.0095917
-0.0012513
0.0051269
-0.0076295
-0.012094
-0.011137
-0.018153
-0.023575
0.0003433
0.0003433
-0.0044404
-0.00029452
0.0064026
0.017564
0.021072
0.01884
0.014694
0.010867
0.0041702
0.0028946
-0.0066727
-0.0095429
-0.010181
-0.012094
-0.02198
-0.0038025
0.0054459
-0.0060349
0.0044891
0.0092728
0.0060837
0.0099106
0.022348
-0.0047593
-0.0069916
-0.0015702
-0.012094
-0.017197
-0.020067
-0.026445
-0.025488
-0.01624
-0.012413
-0.005716
-0.005716
0.0041702
0.013738
0.01023
0.013419
0.027451
0.011824
0.00098112
0.0079971
-0.002208
-0.0047593
-0.0028458
-0.0105
-0.016559
0.0089539
0.0057648
0.0041702
0.0089539
0.012462
0.021072
0.024899
0.023624
0.015013
0.011186
0.0032135
0.00098112
-0.0105
-0.013051
-0.012094
-0.014645
-0.024532
-0.005716
0.00066221
-0.0060349
0.0038513
0.0073593
0.0044891
0.015332
0.027132
2.4388e-05
-0.0028458
0.0044891
-0.0041214
-0.011137
-0.014327
-0.02198
-0.019748
-0.0076295
-0.0047593
0.0003433
-0.002208
0.0073593
0.01597
0.011824
0.014375
0.026813
0.008635
-0.002208
0.0041702
-0.009224
-0.013051
-0.011775
-0.01911
-0.026126
-0.00093234
-0.00061343
-0.0069916
-0.0018891
0.0035324
0.01023
0.015651
0.01597
0.0041702
0.0016189
-0.0034836
-0.005716
-0.013689
-0.018153
-0.017835
-0.021024
-0.027083
-0.010819
-0.00061343
-0.0079484
0.0032135
0.0089539
0.0038513
0.012781
0.025856
-0.0025269
-0.0038025
0.0044891
-0.0066727
-0.012413
-0.015283
-0.022937
-0.021024
-0.0066727
-0.0047593
-0.00061343
-0.0025269
0.0076782
0.01597
0.013419
0.016289
0.025856
0.0092728
-0.0015702
0.0035324
-0.009224
-0.01337
-0.010181
-0.017197
-0.024213
-0.0015702
-0.00093234
-0.0076295
-0.0015702
0.0060837
0.011505
0.016927
0.017564
0.0038513
0.0028946
-0.00061343
-0.0038025
-0.012413
-0.014964
-0.016559
-0.017197
-0.02198
-0.0073105
0.0028946
-0.0031647
0.0076782
0.012462
0.0070404
0.01597
0.03064
0.0032135
0.0003433
0.0092728
-0.0031647
-0.0076295
-0.011456
-0.018791
-0.017516
-0.0018891
-0.0028458
0.0013
0.0003433
0.0079971
0.018521
0.013738
0.016927
0.026175
0.0099106
-0.0012513
0.0035324
-0.0085862
-0.012413
-0.010181
-0.015921
-0.024851
0.00066221
0.0019378
-0.0063538
0.00098112
0.0054459
0.010548
0.017246
0.019159
0.0041702
0.0019378
-0.00029452
-0.0038025
-0.01337
-0.01624
-0.018791
-0.01911
-0.023575
-0.0098618
-0.00061343
-0.0069916
0.0028946
0.008635
0.0028946
0.011505
0.025537
-0.002208
-0.0060349
0.0025757
-0.0095429
-0.014008
-0.016878
-0.023894
-0.025488
-0.0069916
-0.0060349
-0.0050782
-0.0066727
0.0025757
0.013738
0.01023
0.0131
0.021391
0.0057648
-0.0041214
0.00066221
-0.0095429
-0.014645
-0.012413
-0.018791
-0.027083
-0.002208
0.0016189
-0.0066727
2.4388e-05
0.0060837
0.010867
0.017564
0.021391
0.0038513
0.0022568
0.0025757
-0.0031647
-0.010819
-0.014645
-0.017835
-0.017197
-0.020386
-0.0089051
0.0025757
-0.0034836
0.0067215
0.012462
0.0060837
0.013419
0.028088
0.0025757
-0.0025269
0.0067215
-0.0063538
-0.011456
-0.01337
-0.020705
-0.021661
-0.0025269
-0.0038025
-0.0018891
-0.0034836
0.0051269
0.015651
0.013738
0.014375
0.020754
0.008635
-0.0031647
0.0016189
-0.0105
-0.013689
-0.011137
-0.017516
-0.026445
-0.002208
0.0013
-0.0066727
0.0019378
0.0054459
0.011505
0.017564
0.021391
0.0016189
0.0016189
0.0032135
-0.002208
-0.0105
-0.013689
-0.017516
-0.015921
-0.018472
-0.0066727
0.0028946
-0.0034836
0.008635
0.015332
0.0095917
0.01597
0.030959
0.0057648
0.00098112
0.0099106
-0.0025269
-0.0079484
-0.0089051
-0.016559
-0.017835
0.0022568
0.0019378
0.00066221
0.0019378
0.0089539
0.019797
0.018202
0.020116
0.022986
0.011505
2.4388e-05
0.0016189
-0.0085862
-0.010181
-0.0079484
-0.015283
-0.023256
-0.00061343
0.0041702
-0.0047593
0.0035324
0.0092728
0.012462
0.01884
0.026175
0.0044891
0.0035324
0.0073593
2.4388e-05
-0.0085862
-0.0105
-0.015283
-0.013689
-0.012094
-0.0038025
0.0054459
0.00098112
0.01023
0.017564
0.011824
0.019797
0.032872
0.0095917
0.0016189
0.011186
-0.00061343
-0.0060349
-0.0079484
-0.014964
-0.017516
0.0060837
0.0035324
0.00098112
0.0022568
0.012143
0.019797
0.020754
0.020435
0.02171
0.0131
0.0022568
0.0054459
-0.0066727
-0.011137
-0.0089051
-0.012413
-0.020386
2.4388e-05
0.0044891
-0.0034836
0.0057648
0.0092728
0.010867
0.01884
0.026175
0.0016189
0.00066221
0.0038513
-0.0034836
-0.011775
-0.014327
-0.020386
-0.017516
-0.017516
-0.0082673
0.0013
-0.005716
0.0051269
0.012781
0.0060837
0.013738
0.028088
0.0032135
-0.0034836
0.0044891
-0.0076295
-0.012413
-0.011775
-0.018472
-0.02198
0.00098112
-0.0018891
-0.0038025
-0.0012513
0.0070404
0.015332
0.018202
0.017564
0.017883
0.010867
0.0003433
0.0022568
-0.0073105
-0.012413
-0.0089051
-0.012732
-0.022618
-0.0015702
0.0051269
-0.0038025
0.0067215
0.01023
0.010548
0.018521
0.026175
0.0019378
0.0013
0.0067215
-0.0038025
-0.0105
-0.014327
-0.021343
-0.019748
-0.015602
-0.0082673
-0.00061343
-0.0069916
0.0044891
0.01023
0.0025757
0.0099106
0.023624
-0.00061343
-0.0098618
-0.0028458
-0.014645
-0.020705
-0.019748
-0.029315
-0.032186
-0.0079484
-0.011456
-0.014964
-0.011137
-0.0031647
0.0073593
0.0095917
0.0079971
0.0060837
2.4388e-05
-0.0073105
-0.0069916
-0.015283
-0.017197
-0.013051
-0.014327
-0.023894
-0.0028458
0.0060837
-0.0028458
0.0057648
0.0131
0.017246
0.026813
0.033829
0.008635
0.0079971
0.012462
0.0051269
-0.0012513
-0.0034836
-0.013051
-0.011456
-0.0050782
0.0003433
0.0099106
0.0057648
0.014056
0.021072
0.014694
0.020435
0.032553
0.011505
0.0016189
0.010548
-0.00061343
-0.0076295
-0.0069916
-0.015602
-0.019748
0.0032135
0.0025757
-0.0028458
0.0028946
0.0067215
0.015013
0.017883
0.018202
0.011824
0.004808
0.0016189
-0.0015702
-0.013689
-0.015283
-0.011775
-0.012413
-0.020386
-0.0034836
0.0041702
-0.0018891
0.0099106
0.016608
0.013419
0.022667
0.03351
0.010867
0.008316
0.015013
0.0051269
-0.00061343
-0.0060349
-0.011775
-0.010181
-0.0015702
0.0025757
0.0070404
0.0044891
0.014375
0.021072
0.013738
0.019159
0.031596
0.010548
-0.002208
0.0054459
-0.0076295
-0.012094
-0.012413
-0.02198
-0.027721
-0.00061343
-0.0028458
-0.0069916
-0.005716
0.0022568
0.012143
0.015651
0.017246
0.012462
0.010867
0.0054459
0.0025757
-0.0089051
-0.0085862
-0.0060349
-0.0069916
-0.012413
0.0051269
0.013738
0.0054459
0.016289
0.022986
0.019159
0.026813
0.037975
0.0131
0.01023
0.018202
0.0079971
0.00066221
2.4388e-05
-0.0098618
-0.0085862
-0.00061343
0.0076782
0.013738
0.0073593
0.015332
0.022667
0.018202
0.021072
0.034467
0.013419
0.0022568
0.008635
-0.0060349
-0.0095429
-0.010181
-0.019748
-0.025807
0.0013
-0.00061343
-0.0069916
0.0003433
0.010867
0.012462
0.019159
0.01884
0.0057648
0.0041702
-0.00029452
-0.00029452
-0.005716
-0.0079484
-0.011137
-0.0085862
-0.017516
-0.0031647
0.0064026
0.00098112
0.01884
0.024899
0.01884
0.032872
0.05392
0.019797
0.020116
0.022986
0.014375
0.0092728
0.008316
0.0057648
0.0041702
0.013419
0.010867
0.011824
0.0099106
0.017883
0.028407
0.019478
0.022348
0.03064
0.0073593
-0.0018891
0.0035324
-0.0098618
-0.014645
-0.005716
-0.0079484
-0.010181
0.018202
0.019159
0.016289
0.024262
0.035104
0.041164
0.053282
0.060298
0.051369
0.052645
0.046904
0.043396
0.033829
0.029683
0.026494
0.022348
0.010548
0.024899
0.03064
0.020116
0.027451
0.027132
0.017883
0.024262
0.035742
0.0089539
0.0060837
0.0095917
-0.0012513
-0.0069916
-0.0082673
-0.015921
-0.0098618
0.012143
0.0079971
0.0095917
0.01023
0.01884
0.02458
0.024899
0.030959
0.034467
0.0076782
-0.0066727
0.0025757
-0.0105
-0.024213
-0.02517
-0.033461
-0.040477
-0.01337
-0.011456
-0.015283
-0.01337
-0.0041214
0.0060837
0.013419
0.01597
2.4388e-05
0.013419
0.0013
-0.0069916
-0.011456
-0.016878
-0.022937
-0.020705
-0.029634
-0.018791
-0.0105
-0.015921
-0.0063538
0.008635
0.0076782
0.020116
0.040207
0.020435
0.024899
0.042121
0.047542
0.043715
0.047542
0.03638
0.058704
0.082622
0.081984
0.087406
0.098568
0.096973
0.10239
0.087725
0.088362
0.092508
0.084217
0.078476
0.066677
0.043715
0.035423
0.018521
0.02458
0.024899
0.03638
0.023305
-0.00061343
0.0041702
0.010548
-0.0012513
0.0013
0.021072
-0.0079484
0.0028946
0.0076782
-0.017516
-0.051001
-0.048131
-0.037926
-0.029953
-0.024851
-0.0105
0.01023
0.012143
0.032234
0.01023
0.014375
0.038294
0.065082
0.061893
0.04531
0.063169
0.059023
0.045947
0.038931
0.035104
0.030321
0.047861
0.052963
0.044991
0.028407
0.029364
0.036061
0.025218
0.022029
0.028407
0.013419
0.0057648
0.01023
0.0070404
0.012781
-0.0044404
-0.0095429
0.0038513
0.024262
0.026813
0.027451
0.03925
0.027451
0.034786
0.055515
0.038612
0.020116
0.021391
0.023305
0.027132
0.020116
-0.015921
-0.0047593
0.020435
0.023305
0.03638
0.046904
0.035104
0.02458
0.043715
0.060617
0.029683
0.046266
0.035104
0.013419
0.035742
0.0028946
-0.017197
-0.040158
-0.050363
-0.04558
-0.037288
-0.045899
-0.06025
-0.026126
-0.0076295
-0.029634
-0.073006
-0.047812
-0.038564
-0.056423
-0.064077
-0.047493
-0.080979
-0.11574
-0.098838
-0.1033
-0.10872
-0.090546
-0.10235
-0.096605
-0.078109
-0.051639
-0.026126
0.017883
0.0041702
-0.022618
0.017564
0.05105
0.046904
0.08039
0.089638
0.087725
0.09506
0.11419
0.1295
0.13492
0.11898
0.12057
0.10495
0.087087
0.086768
0.11579
0.091233
0.044991
0.050093
0.02777
0.014694
0.024899
0.008316
0.0064026
0.019159
-0.00093234
0.0028946
0.015013
0.038612
0.027132
0.013738
0.0019378
0.01597
0.014694
-0.014645
-0.028359
-0.042391
-0.052277
-0.040477
-0.061844
-0.10681
-0.082573
-0.07779
-0.10298
-0.090865
-0.087676
-0.075876
-0.051001
-0.055785
-0.12945
-0.13615
-0.11383
-0.13169
-0.11574
-0.12307
-0.15401
-0.14923
-0.16995
-0.16326
-0.17538
-0.16708
-0.16549
-0.12276
-0.097243
-0.13137
-0.12244
-0.11383
-0.11415
-0.090546
-0.039839
-0.0060349
0.05392
0.031915
0.018202
0.074012
0.089638
0.10399
0.12408
0.16905
0.19647
0.17574
0.18754
0.22294
0.18372
0.15278
0.1429
0.10431
0.098249
0.064444
0.030002
0.0054459
0.0076782
0.00098112
-0.028359
-0.051639
-0.079065
-0.090546
-0.097562
-0.10394
-0.14795
-0.14891
-0.1741
-0.15082
-0.1387
-0.16166
-0.16932
-0.16007
-0.17601
-0.13328
-0.10139
-0.12595
-0.11733
-0.098838
-0.10458
-0.087676
-0.061525
-0.094373
-0.13583
-0.13774
-0.11446
-0.11191
-0.098838
-0.091184
-0.072687
-0.038564
-0.051958
-0.028678
-0.005716
0.012143
0.042121
0.05105
0.10335
0.11802
0.12121
0.088362
0.088681
0.079433
0.090595
0.059979
0.0025757
-0.021024
-0.04271
-0.042072
-0.074919
-0.097881
-0.10203
-0.13711
-0.12212
-0.11415
-0.19961
-0.16932
-0.17027
-0.19324
-0.17761
-0.16549
-0.19387
-0.2079
-0.17155
-0.14827
-0.14125
-0.18112
-0.13232
-0.15815
-0.12945
-0.14827
-0.15369
-0.13424
-0.11191
-0.083849
-0.099476
-0.11
-0.066309
-0.041115
-0.0069916
0.035104
0.025537
0.090276
0.066677
0.081665
0.13875
0.17734
0.13524
0.13556
0.11866
0.069866
0.062531
0.052326
0.045947
0.0035324
-0.021343
-0.031548
-0.032186
-0.048131
-0.087676
-0.084806
-0.094054
-0.10617
-0.10904
-0.080022
-0.1167
-0.096605
-0.092141
-0.15082
-0.18909
-0.17282
-0.18367
-0.15943
-0.16772
-0.16071
-0.18335
-0.17378
-0.16868
-0.12084
-0.0864
-0.047493
-0.038564
-0.015283
-0.036012
-0.0041214
0.03925
0.048499
0.073374
0.086449
0.082303
0.064125
0.1177
0.092827
0.063806
0.07146
0.066677
0.088362
0.079114
0.034148
0.015013
0.02458
0.0038513
-0.0034836
0.012781
-0.0060349
-0.020067
-0.10011
-0.084487
-0.040477
-0.12563
-0.10394
-0.11191
-0.11829
-0.12882
-0.20089
-0.22226
-0.20535
-0.2162
-0.17857
-0.16549
-0.16772
-0.13328
-0.11255
-0.078109
-0.020386
0.012781
0.015013
0.064444
0.088681
0.075606
0.072736
0.068271
0.11356
0.070503
0.0073593
-0.022618
-0.060887
-0.074919
-0.072687
-0.094054
-0.08927
-0.090227
-0.059293
-0.053234
-0.052596
-0.025807
0.0092728
0.0051269
0.016289
-0.023575
-0.019429
0.023305
0.03638
0.0064026
-0.028678
-0.040158
-0.077152
-0.093735
-0.12595
-0.12116
-0.13487
-0.19802
-0.22194
-0.17888
-0.1269
-0.18431
-0.18654
-0.1454
-0.17155
-0.22226
-0.17729
-0.13169
-0.11351
-0.10171
-0.061206
-0.029634
0.029045
0.034786
0.044353
0.086449
0.038294
0.10399
0.11419
0.12312
0.1008
0.048499
0.012143
-0.00061343
-0.0047593
-0.014008
-0.044304
-0.085762
-0.085762
-0.17187
-0.18367
-0.132
-0.12977
-0.14572
-0.15847
-0.13743
-0.11606
-0.10681
-0.064077
-0.078109
-0.047812
-0.016878
-0.022299
0.017564
0.059979
0.080071
0.06859
0.037656
0.0025757
0.05105
0.06572
0.080709
0.014056
0.048818
0.012143
0.029683
0.02171
-0.0076295
-0.014327
0.032234
0.053601
0.047223
0.061255
0.075606
0.11324
0.11834
0.10718
0.12121
0.11993
0.064763
0.048499
0.078157
0.016927
-0.015921
-0.033461
-0.03091
-0.027083
-0.02198
-0.065671
-0.10617
-0.10522
-0.15688
-0.14954
-0.16294
-0.169
-0.18016
-0.11861
-0.08066
-0.12116
-0.15305
-0.16039
-0.075238
-0.045899
-0.073006
-0.0073105
0.03351
0.042439
0.10112
0.06572
0.069547
0.093146
0.095378
0.10909
0.086449
0.090914
0.078795
0.068271
0.022667
0.035742
0.070185
-0.0085862
-0.076195
-0.065671
-0.07173
-0.033142
-0.06025
-0.09246
-0.095011
-0.16421
-0.13966
-0.14923
-0.16485
-0.15624
-0.14253
-0.16166
-0.19547
-0.090865
-0.088314
-0.11925
-0.028996
-0.015602
-0.028678
-0.017516
0.00098112
-0.018791
-0.0031647
0.0032135
-0.021024
0.0032135
0.017883
-0.028359
0.0092728
-0.01624
-0.053871
-0.028359
-0.027721
0.022029
-0.0034836
-0.050682
-0.046855
0.012781
0.012462
0.055834
0.03351
-0.018791
-0.034737
0.011186
0.022348
0.07752
0.13524
0.087087
0.022348
0.012462
-0.011775
0.030959
0.022348
0.055515
0.055834
-0.026126
-0.091184
-0.086081
-0.091184
-0.0982
-0.12595
-0.099794
-0.093097
-0.019429
-0.017516
-0.055466
-0.055466
-0.021024
0.019797
0.040207
0.023624
-0.0089051
0.0092728
0.057109
-0.020386
-0.064395
-0.092141
-0.13232
-0.14508
-0.1808
-0.18526
-0.1505
-0.18016
-0.24617
-0.25223
-0.24968
-0.23278
-0.1556
-0.10553
-0.10809
-0.11223
-0.10298
-0.078427
-0.036012
0.024262
0.041802
0.13429
0.11196
0.1295
0.12536
0.14194
0.16267
0.14513
0.11738
0.10463
0.08039
0.028088
0.059342
0.05392
0.059342
0.037656
0.04531
0.0099106
0.074968
0.093784
0.098568
0.079114
0.092508
0.12918
0.15119
0.14194
0.13588
0.13078
0.10271
0.039569
0.020435
0.031915
0.00098112
-0.036969
-0.10011
-0.0864
-0.074601
-0.11128
-0.12116
-0.11765
-0.14891
-0.13934
-0.1639
-0.18845
-0.14636
-0.1521
-0.19866
-0.22162
-0.16198
-0.1792
-0.14508
-0.11159
-0.098519
-0.099476
-0.078746
0.0016189
0.0095917
-0.024213
-0.053871
0.0060837
0.016927
-0.0050782
-0.0034836
0.013738
-0.012094
0.014056
-0.039839
-0.027402
-0.033461
-0.044623
-0.024213
0.0051269
-0.062482
-0.070136
-0.0025269
-0.026764
-0.084806
-0.082573
-0.00029452
-0.0038025
-0.040796
-0.078746
-0.043347
-0.018153
-0.03091
-0.00029452
0.0032135
0.019797
0.060617
0.043396
0.062212
0.10112
0.098568
0.074012
0.07433
0.091233
0.043715
0.052326
0.073693
0.039569
-0.027083
-0.050682
-0.061525
-0.061525
-0.10107
-0.11415
-0.13519
-0.18207
-0.21588
-0.23661
-0.25478
-0.26722
-0.27456
-0.27647
-0.25319
-0.22449
-0.21428
-0.18622
-0.096286
-0.098519
-0.085443
-0.034737
0.011186
0.034786
0.066358
0.094741
0.081028
0.086768
0.095697
0.05105
0.03064
0.068909
0.026175
-0.0076295
0.0038513
0.040845
0.035423
-0.0038025
0.040845
0.069866
0.075606
0.051369
0.11611
0.14864
0.17383
0.12567
0.15406
0.16713
0.15438
0.15501
0.14768
0.13014
0.14385
0.076563
0.066995
0.028726
-0.0028458
0.0051269
-0.031867
-0.058974
-0.098838
-0.082254
-0.091503
-0.17761
-0.18239
-0.17282
-0.15975
-0.17187
-0.13615
-0.081935
-0.061525
-0.018472
-0.029634
-0.044623
-0.011775
0.035104
0.013738
0.054877
0.065082
0.064763
0.054239
0.043715
0.075287
0.083898
0.045947
0.026813
0.037975
0.032234
0.029683
0.021391
0.0060837
0.011824
0.078157
0.0070404
-0.0076295
-0.028996
-0.053871
-0.023575
0.026175
-0.027083
-0.058336
-0.0089051
0.01884
-0.00029452
-0.041753
-0.019748
-0.064395
-0.12563
-0.11415
-0.088633
-0.081935
-0.15146
-0.19068
-0.17059
-0.20344
-0.18973
-0.15592
-0.17793
-0.17027
-0.1521
-0.15592
-0.043985
-0.023894
-0.04271
-0.048131
-0.0031647
0.038294
0.061574
0.042758
0.064763
0.040845
0.046585
0.080709
0.059342
0.080071
0.038931
0.037656
-0.0047593
-0.0095429
0.049774
0.11515
0.12599
0.085811
0.067633
0.069866
0.047542
0.02171
0.028088
0.060617
0.01597
0.035104
0.069866
-0.0034836
-0.074919
-0.06599
-0.099476
-0.089908
-0.096286
-0.097562
-0.13902
-0.14349
-0.15624
-0.14731
-0.14285
-0.13041
-0.10107
-0.088633
-0.086719
-0.031548
-0.010819
0.025856
0.061574
0.081665
0.10016
0.11132
0.11451
0.10941
0.10845
0.11706
0.057747
0.020116
0.069547
0.066039
0.040845
0.031915
-0.0015702
-0.026445
-0.077152
-0.050044
-0.060887
-0.060569
-0.061844
-0.040477
-0.02198
-0.028678
-0.053234
-0.063758
-0.057698
-0.049088
-0.048131
-0.043985
0.012462
0.030321
-0.012413
-0.015921
-0.022937
0.0079971
-0.0034836
-0.017197
-0.035694
-0.062163
-0.026126
0.020116
0.018521
-0.01337
-0.0066727
-0.01337
0.044034
0.08039
0.07433
0.14066
0.1665
0.14258
0.12886
0.13429
0.15119
0.094741
0.048818
0.052326
0.022986
-0.041434
-0.090865
-0.12754
-0.13232
-0.16485
-0.18048
-0.22991
-0.25383
-0.22927
-0.2197
-0.20599
-0.22226
-0.17633
-0.15114
-0.15401
-0.12212
-0.12563
-0.11223
-0.082892
-0.062482
-0.051001
-0.031229
-0.0063538
-0.0082673
0.0060837
-0.026126
-0.031867
-0.034099
0.0099106
-0.026126
-0.035375
-0.040158
-0.038245
-0.048769
-0.054509
-0.032186
-0.026445
-0.097562
-0.072687
0.01884
0.022667
0.028726
0.027132
0.011824
0.052007
0.093146
0.091233
0.092508
0.08326
0.040207
0.048818
0.037018
0.048499
0.099205
0.06859
0.053601
0.037656
0.017246
0.0028946
0.02458
0.015651
0.011505
0.048818
0.026813
-0.005716
-0.016878
-0.01337
0.0022568
0.008635
0.014375
0.0070404
0.022986
0.03064
0.03925
0.037337
0.00066221
0.028726
-0.00093234
-0.0047593
-0.0069916
-0.0012513
-0.040158
-0.049088
-0.095011
-0.077152
-0.066628
-0.067585
-0.04845
-0.064395
-0.051958
-0.048769
-0.023256
0.032234
-0.014964
-0.02804
-0.04271
-0.070455
-0.035694
-0.0060349
-0.014327
-0.10553
-0.1167
-0.12563
-0.1167
-0.1218
-0.11064
-0.13743
-0.17984
-0.14221
-0.094373
-0.078427
-0.11893
-0.10394
-0.062801
-0.07173
-0.077152
-0.090546
-0.022618
-0.01911
-0.028678
-0.011456
0.034467
0.026494
0.0131
0.015013
0.067633
0.057428
0.028088
0.094103
0.050731
0.031915
0.023943
-0.0105
0.0035324
-0.023894
-0.039202
-0.044623
-0.053552
-0.050044
-0.035694
-0.066947
-0.046855
-0.0085862
-0.033461
-0.044304
-0.031867
-0.0066727
-0.065033
-0.037607
-0.03091
-0.018791
-0.031867
-0.023575
0.019159
0.046904
0.026175
0.019159
0.014056
0.10399
0.14034
0.11292
0.13779
0.17798
0.19041
0.20413
0.19552
0.14513
0.16299
0.17096
0.16076
0.15278
0.12663
0.090595
0.045947
-0.02198
-0.049407
-0.053871
-0.08353
-0.14891
-0.17793
-0.21492
-0.24394
-0.25287
-0.26212
-0.25542
-0.23182
-0.23916
-0.22959
-0.20153
-0.16581
-0.15752
-0.0864
-0.053234
-0.075238
-0.037288
0.052326
-0.016878
-0.043985
0.0022568
0.016608
0.032234
-0.009224
-0.029953
-0.047174
-0.048131
-0.032186
-0.039839
-0.05132
-0.043985
-0.046855
-0.046855
-0.051001
-0.051639
-0.055147
-0.053871
-0.047493
-0.051001
-0.047493
-0.025807
-0.01337
-0.033461
-0.00093234
0.0070404
0.024899
0.063487
0.10654
0.089638
0.10016
0.13397
0.099843
0.12536
0.11037
0.09793
0.10973
0.1126
0.073055
0.046904
0.10463
0.11579
0.071779
0.039888
0.074012
0.043077
0.0054459
0.030002
0.041802
-0.020705
-0.039202
0.044353
-0.023575
-0.068222
-0.064395
-0.056742
-0.053871
-0.034418
-0.061844
-0.072368
-0.072687
-0.057379
-0.038564
-0.080341
-0.055466
-0.034418
-0.053234
-0.066309
-0.058655
-0.084487
-0.099476
-0.10649
-0.11925
-0.088952
-0.073644
-0.090546
-0.082573
-0.070455
-0.089908
-0.079703
-0.058974
-0.031548
-0.065033
-0.064077
-0.076833
-0.082573
-0.063439
-0.04558
-0.071411
-0.081298
-0.076195
-0.058974
-0.0015702
0.048818
0.04531
0.0067215
0.008316
0.037975
0.048499
0.079114
0.074012
0.086449
0.079114
0.082303
0.081984
0.059979
0.012462
0.050731
0.088362
0.076563
0.05105
0.047542
0.072736
0.066358
0.050731
0.029364
0.0092728
0.010548
0.020754
0.0038513
-0.00061343
-0.0073105
-0.026445
-0.056742
-0.020705
0.016927
-0.01337
-0.0025269
-0.018153
-0.044942
-0.034737
-0.063439
-0.092141
-0.073325
-0.053552
-0.11223
-0.091184
-0.077471
-0.12339
-0.12403
-0.10266
-0.062801
-0.049088
-0.059293
-0.033142
0.0038513
-0.018472
0.04531
0.070503
0.046266
0.03064
0.050412
0.047861
0.050093
0.081984
0.040526
0.0070404
0.01023
0.0038513
0.048499
0.029364
0.037975
0.027451
0.028726
0.041483
0.02777
0.015332
-0.0041214
0.0089539
-0.01911
-0.014964
0.012143
0.056153
0.022029
-0.0098618
-0.0025269
0.011505
0.02458
0.0013
0.0038513
0.026494
0.043396
0.019797
0.0076782
-0.016878
-0.097562
-0.056423
-0.021024
-0.040158
-0.045899
-0.028359
-0.029634
-0.034418
-0.051958
2.4388e-05
0.015651
-0.0044404
-0.0066727
0.011505
-0.017197
-0.023256
-0.021024
-0.044304
-0.036331
-0.041434
-0.057379
-0.080979
-0.027721
-0.024851
-0.051639
-0.067903
-0.030591
0.0016189
0.043715
0.035104
0.039569
0.08039
0.07146
0.050412
0.015651
0.038294
0.043396
0.035742
0.052645
0.079752
0.028088
0.055834
0.062212
0.037975
0.0044891
-0.044304
-0.012413
-0.0047593
-0.0044404
-0.0031647
-0.023256
-0.045899
-0.017516
-0.018472
-0.038883
-0.062163
-0.017516
0.019159
-0.0044404
-0.021024
-0.017835
-0.0066727
0.0070404
-0.088952
-0.063758
-0.031867
-0.056423
-0.088633
-0.11542
-0.10617
-0.13169
-0.11702
-0.1033
-0.10649
-0.10298
-0.088314
-0.082573
-0.073325
-0.051639
-0.049407
-0.040477
-0.0041214
-0.014964
-0.039839
-0.026445
-0.0044404
0.011505
0.025218
0.0079971
0.022986
0.057747
0.055515
0.067314
0.081028
0.10686
0.12185
0.14258
0.10303
0.087406
0.090914
0.087087
0.084217
0.07146
0.068271
0.055196
0.035104
0.019478
0.040526
0.008635
0.046585
0.081984
0.0022568
-0.021343
-0.017835
-0.038245
-0.053871
-0.027721
-0.028359
-0.032823
-0.058655
-0.051958
-0.072368
-0.10171
-0.10777
-0.093097
-0.062163
-0.072687
-0.084806
-0.074282
-0.064077
-0.098838
-0.12371
-0.10553
-0.075876
-0.053234
-0.075238
-0.05419
-0.033142
-0.064395
-0.041434
2.4388e-05
-0.00029452
-0.012413
0.018202
0.052326
0.04531
0.028726
0.057109
0.0060837
-0.013689
-0.0060349
-0.01337
-0.0028458
-0.00029452
-0.01911
-0.023894
-0.055466
-0.016559
0.008316
0.004808
0.026813
0.019797
0.021391
0.043715
0.033191
0.025218
0.049455
0.024899
0.0054459
0.044672
0.036699
0.017246
0.038931
0.034786
0.0073593
0.0028946
0.026175
0.008635
0.0032135
0.016608
0.017883
0.020116
0.021391
0.041164
0.03925
0.028726
0.031596
0.055515
0.074012
0.082622
0.1075
0.076882
0.070503
0.082622
0.021391
0.027132
0.059342
0.018202
-0.021343
-0.065671
-0.096286
-0.11446
-0.10522
-0.12371
-0.13073
-0.10107
-0.097881
-0.098519
-0.14763
-0.15528
-0.079703
-0.044623
-0.07779
-0.046536
-0.049726
-0.062163
-0.071411
-0.062163
-0.070774
-0.070774
-0.059293
-0.040796
-0.044304
-0.018472
-0.0015702
0.015332
0.0095917
0.011824
0.037656
0.058704
0.053601
0.026175
-0.013051
0.0013
0.0022568
0.0032135
0.0067215
0.008316
-0.022299
0.008635
0.01884
0.019797
0.0016189
0.0016189
0.064444
0.070503
0.06572
0.038931
0.046585
0.069866
0.063487
-0.01337
0.019159
0.073055
0.044034
0.047542
0.048818
0.046904
0.055515
0.063487
0.056471
0.054877
0.07146
0.10622
0.084217
0.070503
0.071779
0.043077
0.02777
0.044034
0.025218
0.0070404
-0.0018891
-0.014964
-0.032186
-0.04271
-0.027402
-0.027083
-0.027083
0.01023
-0.015602
-0.029315
-0.028678
-0.0038025
0.016289
0.017883
0.016608
0.0057648
0.021072
0.011186
-0.029634
-0.018153
-0.018791
-0.029634
-0.0066727
-0.053234
-0.075876
-0.10617
-0.11415
-0.11765
-0.12435
-0.16517
-0.17538
-0.17857
-0.1387
-0.11638
-0.087357
-0.043985
-0.043985
-0.032504
-0.015921
-0.0069916
0.026175
0.062212
0.066677
0.044991
0.056153
0.058066
0.081028
0.062212
0.031596
0.0044891
0.036699
0.07433
0.066358
0.033829
0.0131
0.020116
0.01597
0.019478
-0.014645
-0.023256
-0.025488
-0.026445
-0.0044404
0.0025757
-0.01337
-0.01337
-0.029634
0.0025757
0.017564
0.029683
0.032872
0.047223
0.050731
0.062531
0.066358
0.0028946
0.016289
0.030959
0.020754
-0.0069916
-0.018153
-0.032186
-0.023575
-0.0038025
-0.005716
-0.022937
-0.0063538
-0.0098618
0.012143
0.05679
0.03351
0.044034
0.073055
0.066995
0.11515
0.10686
0.079433
0.064125
0.066039
0.076563
0.09187
0.094103
0.048499
0.068909
0.077201
-0.014008
-0.047174
-0.026126
-0.057061
-0.067903
-0.098519
-0.12148
-0.13169
-0.1572
-0.1572
-0.13615
-0.13998
-0.12371
-0.10011
-0.079065
-0.089908
-0.063439
-0.011775
0.0131
0.053601
0.046266
0.049455
0.081984
0.084536
0.10782
0.13779
0.13971
0.14353
0.17319
0.17192
0.16586
0.13811
0.087406
0.10877
0.10271
0.081665
0.077838
0.025218
-0.053552
-0.091822
-0.087038
-0.084806
-0.11702
-0.17155
-0.169
-0.12945
-0.11
-0.13711
-0.132
-0.11064
-0.095649
-0.056423
-0.034099
-0.071093
-0.069498
-0.031229
-0.018791
-0.022937
-0.034737
-0.021024
0.0028946
-0.0085862
0.015332
0.01884
0.0028946
-0.032504
0.019478
0.06572
0.059342
0.049455
0.028407
0.057747
0.057109
0.033191
0.041483
0.071779
0.039569
0.031596
0.08613
0.070503
0.060936
0.0131
0.017883
0.047861
0.037337
-0.013051
-0.035056
-0.029953
-0.057061
-0.066628
-0.11159
-0.091184
-0.052915
-0.057061
-0.044304
-0.010181
0.0022568
0.0016189
0.03064
0.084854
0.10813
0.076882
0.088681
0.10973
0.12121
0.10431
0.092189
0.03351
-0.015283
0.0079971
0.021072
-0.0089051
-0.036331
-0.10649
-0.051639
-0.072049
-0.11128
-0.11733
-0.11032
-0.088633
-0.10011
-0.10968
-0.12052
-0.095649
-0.078109
-0.10649
-0.088314
-0.069817
-0.036331
-0.033461
-0.030272
-0.024213
-0.014008
-0.0085862
0.017883
0.023943
0.015651
0.019797
0.023624
0.012462
0.015332
0.041164
0.026494
0.01597
0.01597
0.022986
0.051369
0.079114
0.071779
0.072736
0.076563
0.084536
0.10431
0.10941
0.096016
0.076563
0.074012
0.077201
0.09793
0.059979
0.068909
0.098568
0.056153
0.05679
0.079433
0.093784
0.040845
0.023943
0.022348
0.03925
2.4388e-05
-0.03378
-0.016878
-0.042072
-0.035694
-0.040477
-0.062482
-0.043985
0.0032135
-0.022937
-0.032504
-0.045899
-0.0069916
-0.0085862
-0.014964
-0.030591
0.0070404
-0.010819
-0.027721
-0.017516
-0.051639
-0.028678
-0.059612
-0.073325
-0.072049
0.00066221
-0.0076295
-0.042072
-0.012094
0.0131
0.0089539
-0.0066727
0.0041702
-0.022937
-0.03091
-0.0069916
-0.024532
-0.053234
-0.050044
-0.048769
-0.039839
-0.04558
-0.049088
-0.021024
-0.010181
-0.012413
-0.015283
-0.018153
0.016289
0.031915
0.015013
0.0019378
0.0054459
-0.011775
0.004808
0.01597
0.015651
-0.0079484
0.0060837
0.025856
0.048818
0.055196
0.041164
0.021072
0.0028946
0.024262
0.050093
0.038294
0.022986
0.018521
0.011186
0.040845
0.03351
0.021072
0.01597
0.02171
0.067952
0.069228
0.060617
0.081984
0.12217
0.12408
0.11675
0.074012
0.096335
0.067952
0.074012
0.046266
2.4388e-05
0.011505
0.0060837
0.01597
0.012781
0.024899
-0.0066727
0.0016189
0.017246
0.0131
0.012781
0.0070404
-0.0085862
-0.002208
0.014694
-0.018791
-0.048131
-0.015921
-0.040158
-0.058974
-0.031229
-0.0095429
-0.026126
-0.025807
-0.027721
-0.011775
0.013419
0.014375
0.01023
0.029364
0.022348
0.01597
-0.011137
-0.0060349
0.027132
0.041164
-0.01624
-0.012094
0.018521
0.0095917
0.0054459
-0.0089051
-0.0044404
0.03064
0.048818
-0.022618
-0.065352
-0.028996
-0.020067
-0.016878
0.008635
-0.021343
-0.019748
-0.02198
-0.0076295
0.011505
0.013738
0.028726
0.067633
0.081028
0.072736
0.079752
0.10941
0.093146
0.10431
0.089319
0.10845
0.10048
0.090914
0.089638
0.13747
0.087087
0.049455
0.023305
0.022986
0.052963
0.038294
0.0022568
-0.014645
-0.011456
-0.03665
-0.068222
-0.080022
-0.087038
-0.098519
-0.080022
-0.071411
-0.032504
-0.023894
-0.027083
-0.0018891
0.0032135
0.0003433
0.030002
0.045629
-0.013051
-0.014327
0.016289
0.0067215
-0.0089051
-0.018791
-0.037926
-0.017516
-0.033461
-0.047812
-0.014964
0.0019378
0.0044891
0.02171
0.010867
0.023305
0.061893
0.050731
0.05105
0.052326
0.080709
0.10144
0.094422
0.092508
0.072098
0.088044
0.10495
0.089
0.071779
0.071779
0.06285
0.080071
0.073055
0.03638
0.042121
0.01884
0.0079971
-0.015921
-0.031229
-0.035056
-0.049726
-0.071411
-0.062801
-0.060887
-0.032504
-0.0082673
-0.034099
-0.053871
-0.044942
-0.0015702
0.0041702
-0.0066727
-0.012094
-0.013051
0.013738
0.017246
0.010548
0.033191
0.072098
0.058704
0.040845
0.062531
0.074968
0.094103
0.078476
0.067633
0.087725
0.054558
0.046266
0.044034
0.0013
0.029683
0.034786
0.0038513
0.014375
0.059023
0.064444
0.066677
0.058704
0.064763
0.084536
0.092189
0.086768
0.07752
0.067314
0.05105
0.076244
0.036061
-0.0063538
0.0070404
0.011824
-0.0028458
2.4388e-05
-0.0025269
-0.024213
-0.024851
-0.021343
-0.011775
-0.00029452
0.019159
-0.013689
-0.0031647
0.03064
0.0054459
0.0089539
-0.005716
-0.0085862
0.042439
0.028726
0.0019378
0.038294
0.052645
0.024899
0.028407
0.035742
0.064125
0.046585
-0.057698
-0.050682
0.0070404
-0.063439
-0.12212
-0.10107
-0.085762
-0.11383
-0.10394
-0.10171
-0.11606
-0.10522
-0.092141
-0.077471
-0.05419
-0.025807
-0.038245
-0.002208
-0.0031647
0.024899
0.044034
0.037337
0.047542
0.065401
0.081984
0.089957
0.11101
0.12759
0.13684
0.11706
0.10144
0.11611
0.14194
0.10431
0.078157
0.063169
0.033829
0.048818
0.03638
0.03638
-0.0034836
-0.0095429
0.015651
0.026175
0.023305
0.011824
0.012781
0.025218
0.045947
0.057109
0.052007
0.081346
0.072098
0.06285
0.035742
0.045947
0.10782
0.10303
0.13205
0.14672
0.11898
0.13078
0.14385
0.11706
0.095378
0.11164
0.1126
0.064763
0.062212
0.082622
0.035423
0.018202
-0.0012513
-0.04845
-0.059293
-0.077152
-0.061844
-0.045261
-0.028359
-0.052915
-0.07779
-0.081298
-0.066947
-0.10553
-0.11319
-0.084168
-0.071411
-0.06599
-0.073006
-0.089908
-0.096286
-0.060887
-0.05419
-0.058655
-0.020386
-0.011456
-0.0028458
-0.011775
-0.01337
0.01023
-0.028359
-0.027083
-0.013689
-0.023575
-0.0095429
0.011186
0.0054459
-0.01624
0.023624
0.03351
0.043077
0.060936
0.077201
0.067952
0.081984
0.094103
0.089
0.1059
0.1346
0.10813
0.11643
0.14864
0.15342
0.17192
0.19647
0.18914
0.19839
0.18786
0.20604
0.22741
0.19839
0.17192
0.19105
0.1464
0.14672
0.098886
0.036699
0.030002
-0.0015702
-0.012732
-0.03378
-0.045899
-0.073006
-0.091503
-0.081298
-0.055147
-0.047812
-0.079384
-0.088952
-0.07779
-0.070136
-0.073006
-0.092778
-0.094373
-0.099794
-0.092141
-0.072368
-0.090546
-0.09533
-0.066947
-0.052277
-0.02804
-0.01911
-0.024213
-0.014327
0.021072
0.031596
0.028088
0.0041702
0.00098112
0.012781
0.049774
0.057109
0.055834
0.05105
0.058385
0.099205
0.1126
0.13492
0.10239
0.017564
0.044034
0.10973
0.077838
0.088681
0.079752
0.059342
0.03351
0.021072
0.015332
0.011505
0.04531
0.028407
0.020754
0.032872
0.059979
0.081028
0.054558
0.064763
0.087087
0.068271
0.046904
0.053601
0.054239
0.041483
0.039569
0.031596
0.022029
0.010867
0.016927
0.0013
-0.0076295
0.021391
0.02458
0.0044891
0.010548
-0.017835
-0.026126
-0.032823
-0.043666
-0.044304
-0.046855
-0.056742
-0.056423
-0.074601
-0.059293
-0.0028458
-0.009224
-0.013689
-0.034099
-0.039202
-0.0063538
0.014694
0.011824
0.021391
0.037018
0.012462
0.0067215
0.018202
-0.0047593
-0.02517
0.024899
0.065082
0.065401
0.083898
0.06859
0.07752
0.066995
0.072736
0.095378
0.095378
0.086768
0.085173
0.053601
0.046266
0.064763
0.063169
0.019797
0.042758
0.032553
-0.011456
-0.016878
0.0025757
0.016289
-0.009224
-0.018791
-0.03952
-0.04271
-0.049726
-0.068541
-0.041753
-0.039839
-0.058017
-0.06025
-0.043347
-0.036331
-0.034737
-0.016878
-0.014645
-0.0076295
-0.0105
-0.012732
-0.0018891
-0.025488
-0.029634
-0.0063538
-0.017835
-0.058974
-0.038245
-0.031229
-0.046855
-0.01624
0.011505
-0.005716
-0.0047593
0.032234
0.043396
0.043077
0.063169
0.076244
0.097292
0.13429
0.11228
0.11356
0.14545
0.16107
0.19934
0.18531
0.17542
0.1885
0.18212
0.17511
0.17064
0.15183
0.17893
0.15151
0.065401
0.028726
0.04531
0.05392
-0.03665
-0.076195
-0.093097
-0.081935
-0.0982
-0.12595
-0.10713
-0.091184
-0.097243
-0.086719
-0.099476
-0.087038
-0.046218
-0.072687
-0.081298
-0.070774
-0.056742
-0.049088
-0.060569
-0.058336
-0.050363
-0.018791
-0.031229
-0.03378
-0.014964
0.0076782
0.032872
0.029045
0.044353
0.023943
0.020116
-0.0041214
0.030959
0.032553
0.019797
0.022986
0.026813
0.0131
0.059661
0.0099106
-0.028996
0.032872
0.06859
0.069547
0.069547
0.066358
0.041483
0.056471
0.059342
0.051369
0.051688
0.06285
0.059979
0.054558
0.057747
0.064444
0.055834
0.082303
0.085811
0.077201
0.087087
0.075925
0.10335
0.057428
0.019797
0.052326
0.037975
0.023624
0.017564
0.0019378
-0.0066727
0.012143
-0.037288
-0.021661
-0.037926
-0.051639
-0.047174
-0.033142
-0.02517
-0.053234
-0.067903
-0.078746
-0.077152
-0.072687
-0.071093
-0.072687
-0.053552
-0.052915
-0.038883
-0.029315
-0.038245
-0.020705
-0.0034836
0.004808
0.011505
0.035742
-0.0066727
-0.022618
0.0089539
0.0003433
-0.014327
-0.037926
-0.00061343
-0.0053971
0.0038513
0.039888
0.0089539
-0.022937
-0.0069916
0.054558
0.06572
0.068909
0.069547
0.05392
0.1126
0.099524
0.052645
0.017246
0.034148
0.063487
0.060936
0.078476
0.062212
0.04531
0.046585
0.056471
0.038294
0.021072
0.015332
0.028726
0.0067215
-0.015921
-0.020067
-0.028359
-0.024851
-0.028678
-0.027721
-0.030591
-0.02804
-0.012094
-0.027402
-0.00029452
0.015332
0.024262
0.017564
0.061893
0.03925
0.033191
0.059979
0.050412
0.03925
0.031915
0.017246
0.03925
0.10654
0.12504
0.12057
0.069547
0.034786
0.063487
0.14768
0.081346
0.063169
0.064763
0.079114
0.046904
0.056471
0.026813
-0.0060349
-0.032504
-0.053552
0.0019378
-0.010819
-0.022299
-0.043985
-0.047812
-0.043347
-0.047174
-0.052277
-0.070455
-0.069817
-0.052915
-0.059293
-0.064395
-0.060887
-0.078109
-0.091822
-0.070136
-0.037288
-0.039839
-0.058336
-0.042391
-0.042072
-0.046536
-0.051958
-0.051639
-0.045899
-0.039839
-0.031867
-0.056423
-0.056742
-0.038564
-0.038245
-0.037288
0.0044891
0.020435
0.028407
0.034467
0.032234
0.067314
0.063169
0.015332
0.036699
0.064763
0.050412
0.037975
0.0095917
-0.038883
-0.015921
-0.016559
-0.017516
0.0044891
0.010867
-0.0105
0.0070404
0.027132
0.029045
0.052645
0.046266
0.040845
0.045947
0.069228
0.070822
0.058066
0.052007
0.079114
0.088681
0.081346
0.09187
0.086768
0.061574
0.088681
0.10782
0.099205
0.091233
0.080071
0.090276
0.094741
0.067314
0.050731
0.050412
0.058066
0.022029
0.0028946
0.034786
0.052326
0.020116
0.020754
0.02171
0.057747
0.017883
0.037656
0.069866
0.035423
0.010867
-0.0089051
-0.049407
-0.014964
-0.011456
-0.0015702
-0.038883
-0.020705
-0.049407
-0.04558
-0.01624
-0.050682
-0.092778
-0.053234
-0.032186
-0.066309
-0.047174
-0.056104
-0.11861
-0.1151
-0.075238
-0.067903
-0.067585
-0.065671
-0.053552
-0.040477
-0.050682
-0.034737
-0.017197
-0.024851
-0.0076295
0.017883
-0.012732
-0.028996
0.004808
-0.0073105
-0.00029452
-0.0060349
-0.024213
-0.011137
0.010548
-0.0050782
0.022667
-0.0053971
0.043077
0.069228
0.03925
0.023624
0.025218
0.058066
0.029045
0.0067215
0.014694
0.023943
0.020754
0.025218
0.0038513
0.037018
0.07146
0.05679
0.054877
0.065082
0.08613
0.10686
0.12344
0.10877
0.079114
0.07146
0.083898
0.085811
0.13142
0.12599
0.057428
0.040207
0.051369
0.097611
0.082303
0.07433
0.077201
0.041483
0.035742
0.053601
0.034467
0.016289
-0.0105
-0.034099
-0.035694
-0.039202
-0.071411
-0.091503
-0.11
-0.088314
-0.096605
-0.13519
-0.13392
-0.1033
-0.10681
-0.11223
-0.12212
-0.11542
-0.11702
-0.081935
-0.11478
-0.1151
-0.072368
-0.075876
-0.075557
-0.03952
-0.017516
-0.045899
-0.070774
-0.0089051
0.00066221
0.035742
0.050412
0.0092728
-0.0105
-0.02198
0.024899
0.031915
0.01884
0.03064
0.059979
0.055515
0.034786
0.055196
0.030002
0.042439
0.09793
0.090276
0.078476
0.079433
0.066995
0.03638
0.069866
0.060617
0.029683
0.042439
0.054558
0.068909
0.08613
0.064763
0.042758
0.037656
0.066677
0.069547
0.087087
0.049774
0.037975
0.0003433
-0.020067
-0.017835
-0.039202
-0.052915
-0.053871
-0.06025
-0.07173
-0.043347
-0.03378
-0.049726
-0.055147
-0.058336
-0.054828
-0.028359
-0.0073105
-0.017835
-0.010819
-0.0063538
-0.002208
0.017883
0.025537
0.02777
0.042121
0.022986
0.058385
0.074968
0.069547
0.088044
0.089319
0.080071
0.042758
0.065401
0.054239
0.023624
-0.019748
-0.00061343
0.0035324
-0.032823
-0.056742
-0.067266
-0.044623
-0.03665
-0.035375
-0.027083
-0.038245
-0.022618
-0.040477
-0.052277
-0.030272
-0.034099
-0.044623
-0.027721
-0.044304
-0.073006
-0.066628
-0.042391
-0.034418
-0.0105
-0.0063538
-0.010181
0.015332
0.030321
0.050731
0.068271
0.066039
0.063487
0.060298
0.076563
0.065082
0.052326
0.029364
0.014694
0.032872
0.049137
0.062531
0.039569
-0.012413
0.01023
0.031915
0.012462
0.0060837
0.0095917
-0.0069916
-0.016559
-0.0105
-0.03378
-0.027083
-0.034737
-0.065352
-0.047174
-0.014964
-0.010181
-0.014645
-0.0044404
0.031915
0.01023
0.046266
0.022029
0.019159
0.052326
0.011505
0.013738
-0.01624
0.028088
0.03064
0.019478
-0.0105
0.017564
0.032553
-0.04271
-0.01911
0.010548
-0.0031647
-0.011137
0.0076782
-0.020705
-0.027402
-0.034418
-0.049407
-0.038245
-0.033142
-0.034737
-0.032823
-0.023894
-0.040158
-0.00093234
0.022348
0.024262
0.020116
0.033191
0.05105
0.080071
0.046585
0.030321
0.066995
0.03925
0.021072
0.049137
0.032872
0.0095917
0.024899
0.0099106
0.021391
0.031915
0.017564
0.021072
0.011505
-0.037288
-0.034418
-0.02198
-0.030591
-0.055466
-0.080341
-0.086081
-0.067585
-0.079703
-0.091184
-0.069817
-0.041434
-0.051958
-0.044942
-0.032504
-0.034418
-0.010181
0.058704
-0.0031647
-0.014645
-0.0089051
0.0095917
-0.0095429
-0.0069916
-0.018153
-0.0063538
-0.0028458
-0.018472
-0.0066727
0.015651
0.022029
0.022667
0.0016189
0.02777
0.041164
0.019797
-0.0012513
0.01884
-0.0028458
-0.017197
-0.011775
-0.0015702
-0.0028458
0.024262
0.031596
0.008635
-0.02198
0.01884
0.083579
0.05679
0.03925
0.010867
0.0041702
0.0131
0.01597
0.0073593
-0.016878
-0.09246
-0.04271
-0.047174
-0.053871
-0.063439
-0.075876
-0.088314
-0.069498
-0.084168
-0.049407
-0.040158
-0.063439
-0.049726
-0.03378
-0.047493
-0.043985
-0.041753
-0.035694
-0.012094
-0.0028458
-0.017835
-0.005716
0.020754
0.032553
0.057747
0.060298
0.058066
0.090276
0.10335
0.085811
0.089319
0.069547
0.08039
0.077838
0.048499
0.026175
0.059661
0.05105
0.012143
-0.00029452
-0.035694
-0.04558
-0.057379
-0.063758
-0.063758
-0.042391
-0.044942
-0.0864
-0.10394
-0.082254
-0.049088
-0.039202
-0.043985
-0.0085862
0.015013
-0.0098618
0.012143
0.022348
0.016289
0.034786
0.011824
-0.022299
-0.015921
0.0019378
-0.010181
-0.038245
-0.041753
-0.023894
-0.0050782
0.004808
-0.005716
0.013419
0.015651
0.0003433
0.014056
0.0019378
0.033829
0.069866
0.042121
0.020435
0.03638
-0.016559
-0.03952
0.0073593
-0.014964
-0.034418
-0.017516
-0.024213
-0.009224
0.014056
0.038294
0.031278
-0.024532
-0.02517
-0.0076295
-0.042391
-0.06025
-0.009224
0.0025757
-0.018153
-0.026764
-0.041753
-0.057698
-0.038564
-0.018791
-0.019429
0.0044891
0.0041702
-0.011456
0.028407
0.045947
-0.0095429
-0.029953
-0.032504
-0.032504
-0.031229
-0.034099
-0.04271
-0.053234
-0.060569
-0.068222
-0.09533
-0.059612
-0.062163
-0.039202
-0.036012
-0.054509
-0.04558
-0.076514
-0.087995
-0.069179
-0.061844
-0.043347
-0.036331
-0.054509
-0.030591
0.010867
0.031278
0.039888
0.072098
0.057747
0.11547
0.091233
0.061255
0.057109
0.072736
0.061893
0.053601
0.01597
0.0041702
-0.011137
-0.0041214
-0.059931
-0.065033
-0.046218
-0.06312
-0.076195
-0.063439
-0.059931
-0.029953
-0.0012513
-0.021024
-0.0079484
0.020754
-0.0050782
0.0016189
0.0041702
0.01597
0.026175
0.040526
0.044034
0.056471
0.052326
0.065401
0.064125
0.032234
-0.0050782
0.034148
0.030002
-0.015283
-0.053234
-0.067585
-0.062482
-0.078109
-0.061525
-0.06312
-0.075238
-0.069498
-0.091184
-0.079703
-0.084168
-0.046218
-0.0105
0.0016189
-0.032186
-0.022618
-0.0089051
-0.026445
-0.039202
-0.012094
0.025218
-0.0038025
-0.010181
-0.044304
-0.0082673
-0.0089051
-0.044304
-0.049088
-0.054828
-0.043666
-0.024532
-0.04558
-0.092778
-0.10011
-0.098838
-0.091184
-0.095011
-0.12722
-0.11159
-0.054509
-0.041753
-0.047493
-0.03665
-0.0098618
0.0092728
0.0076782
0.024262
0.049455
0.043715
0.048818
0.055515
0.045947
0.052963
0.05105
0.028407
0.0099106
0.037656
0.054877
0.032234
0.012781
0.03064
0.032234
0.023624
0.026813
-0.027402
-0.031867
-0.022618
-0.066628
-0.081935
-0.073963
-0.080022
-0.096924
-0.11893
-0.10011
-0.08927
-0.1049
-0.091184
-0.053871
-0.061206
-0.069817
-0.02517
-0.054828
-0.033142
-0.012413
-0.020386
-0.029634
0.0131
0.023305
0.0003433
0.0067215
0.056471
0.074649
0.03638
0.051369
0.057747
0.044034
0.040526
0.040845
0.052963
0.02171
-0.0012513
-0.026126
-0.026764
-0.033461
-0.048131
-0.05419
-0.029315
-0.034099
-0.057698
-0.092778
-0.084168
-0.069817
-0.062163
-0.056104
-0.053552
-0.052596
-0.070136
-0.094373
-0.10171
-0.073325
-0.040796
-0.066628
-0.073325
-0.057698
-0.021024
0.023624
0.05679
0.028088
0.033829
0.052326
0.098249
0.081346
0.082941
0.10718
0.083898
0.080709
0.093784
0.07433
-0.0018891
0.023943
0.057747
0.028407
0.0044891
0.010548
0.01023
-0.012413
-0.041434
-0.051639
-0.056104
-0.080022
-0.088633
-0.086719
-0.061206
-0.059293
-0.04845
-0.075557
-0.061844
-0.043347
-0.036331
0.010867
0.040526
0.029364
0.01884
0.031278
0.0131
0.045947
0.054877
0.048499
0.020754
0.019478
0.0067215
0.022986
0.025856
0.033829
0.02777
0.0041702
0.017246
0.00098112
0.0019378
0.024899
0.052645
0.022029
-0.012094
-0.0050782
-0.0012513
-0.031548
-0.04558
-0.039202
-0.033142
-0.053234
-0.026126
-0.031867
-0.053871
-0.040796
-0.034099
-0.037288
-0.038564
-0.041434
-0.039202
-0.078427
-0.083849
-0.070136
-0.058017
-0.064077
-0.082254
-0.086719
-0.035375
-0.03091
-0.060887
-0.030591
0.0022568
-0.013689
-0.025488
-0.017835
-0.016878
0.0028946
0.012462
0.019797
0.02171
-0.014008
-0.018791
-0.012413
-0.023256
-0.0073105
-0.0018891
0.00098112
0.035104
0.018202
0.020116
0.02458
0.040845
-0.0073105
-0.0044404
0.011186
0.0060837
-0.002208
0.01597
0.012781
-0.038245
-0.020705
-0.01337
-0.012094
-0.0053971
0.00098112
-0.0060349
-0.019429
-0.031229
-0.036969
-0.041115
-0.064714
-0.042391
-0.059293
-0.067266
-0.040477
-0.068541
-0.080979
-0.047493
-0.03952
-0.049726
-0.042072
-0.014964
-0.023575
-0.01911
-0.010819
-0.032823
-0.046855
-0.040477
-0.028996
-0.038883
-0.045261
-0.058336
-0.073325
-0.051001
-0.043347
-0.043666
-0.059293
-0.075557
-0.031548
-0.0089051
-0.0015702
-0.0015702
-0.015283
-0.026764
-0.037607
0.004808
0.029683
0.03925
0.03064
0.018521
0.03638
0.028726
0.055515
0.079433
0.081346
0.091233
0.075606
0.043396
0.046904
0.089638
0.065082
0.022029
-0.0069916
0.011824
0.03351
0.018521
-0.0079484
-0.0015702
-0.005716
-0.018153
0.0022568
-0.00029452
-0.020067
-0.019748
-0.015921
-0.039202
-0.029953
-0.052915
-0.06886
-0.058336
-0.023575
-0.058336
-0.056104
-0.059612
-0.026764
-0.0047593
-0.024213
-0.009224
0.022348
0.0060837
-0.034737
-0.011456
-0.0063538
-0.021661
-0.044304
-0.052596
-0.043985
-0.041753
-0.088952
-0.10936
-0.054828
-0.068222
-0.074919
-0.065671
-0.052915
-0.043028
-0.023575
-0.021343
-0.0031647
-0.021024
-0.017197
0.004808
2.4388e-05
-0.020386
0.01023
0.012781
-0.021024
0.034786
0.059023
0.037656
0.024262
0.03351
0.017883
0.013419
0.081028
0.048499
0.023305
2.4388e-05
0.0032135
0.0073593
-0.0089051
-0.017197
-0.0015702
0.022667
-0.005716
-0.018791
-0.0069916
0.017564
0.021391
0.0028946
-0.0073105
-0.00061343
-0.0050782
-0.036012
-0.036969
-0.051639
-0.073644
-0.048769
-0.055466
-0.093416
-0.069817
-0.061206
-0.074919
-0.090227
-0.091822
-0.087038
-0.070774
-0.067585
-0.096286
-0.13296
-0.11415
-0.070455
-0.10362
-0.11765
-0.12371
-0.10171
-0.088633
-0.037607
0.0028946
0.0092728
0.0079971
0.036699
0.041483
0.07752
0.12695
0.080071
0.099843
0.12599
0.13556
0.11611
0.11898
0.11356
0.094422
0.12344
0.078795
0.034148
0.020754
0.078476
0.043077
0.043077
0.05679
0.073693
0.010867
-0.041434
-0.032823
-0.021661
-0.016878
-0.02517
-0.073963
-0.067585
-0.018791
-0.020705
-0.047493
-0.08066
-0.055466
-0.054828
-0.061206
-0.058655
-0.061525
-0.08066
-0.086719
-0.069498
-0.0864
-0.084168
-0.11287
-0.069817
-0.052277
-0.067585
-0.063758
-0.033142
-0.02804
-0.022299
-0.049088
-0.020705
0.029683
-0.01337
-0.016559
-0.005716
-0.053234
-0.0105
-0.0085862
0.00098112
0.0019378
0.01023
0.015651
0.017246
0.020435
0.025856
0.037018
0.043715
0.026813
0.043715
0.012143
0.016927
0.015332
-0.014964
-0.04271
-0.075238
-0.067903
-0.057379
-0.04845
-0.058655
-0.061844
-0.061206
-0.061844
-0.053234
-0.021343
-0.028678
-0.04558
-0.046536
-0.052596
-0.036969
-0.023894
-0.047493
-0.052915
-0.025488
-0.011775
-0.015283
-0.034099
-0.043347
-0.0095429
-0.015921
-0.044304
-0.030591
-0.021343
-0.082573
-0.080022
-0.063439
-0.065033
-0.037288
-0.068541
-0.086081
-0.066309
-0.028678
-0.043347
-0.0066727
0.068271
0.069228
0.067314
0.069547
0.10016
0.11802
0.12344
0.11419
0.10367
0.087087
0.098249
0.085492
0.053601
0.0032135
-0.0060349
0.010548
-0.012413
-0.031229
-0.047174
-0.058974
-0.070455
-0.073644
-0.06312
-0.053871
-0.068222
-0.066309
-0.063758
-0.053871
-0.073644
-0.059931
-0.061844
-0.029315
-0.00093234
-0.027083
-0.02198
-0.005716
-0.049726
-0.076514
-0.034737
-0.04271
-0.057698
-0.057061
-0.087676
-0.081298
-0.095649
-0.10362
-0.1049
-0.081617
-0.083849
-0.060887
-0.043028
-0.050044
0.0095917
0.02171
0.046585
0.050412
0.04818
0.051369
0.052645
0.060936
0.07146
0.092189
0.10335
0.058385
0.068271
0.064763
0.058385
0.054239
0.049137
0.030959
-0.018791
-0.059293
-0.047812
-0.026764
-0.061206
-0.05419
-0.071093
-0.11351
-0.12754
-0.10394
-0.11319
-0.09246
-0.06599
-0.069179
-0.061844
-0.056742
-0.069498
-0.06312
-0.051639
-0.053234
-0.06312
-0.089589
-0.084487
-0.07173
-0.064395
-0.060569
-0.04271
-0.02517
-0.021024
-0.037926
-0.028996
0.0044891
0.017883
0.022348
0.0003433
0.047542
0.052007
0.031915
0.036699
-0.00061343
0.022029
0.049774
0.035423
0.018202
0.042439
0.058385
0.049774
0.075287
0.08039
0.085492
0.035104
0.034467
-0.0095429
-0.029634
0.040526
-0.013051
-0.072687
-0.096605
-0.085443
-0.10426
-0.12244
-0.10968
-0.091184
-0.10011
-0.10745
-0.095649
-0.095968
-0.068222
-0.051001
-0.071411
-0.079065
-0.042072
-0.019429
-0.050044
-0.040477
-0.038883
-0.051639
-0.022937
-0.0095429
0.0028946
0.0060837
0.021391
0.047542
0.061893
0.10558
0.07752
0.062212
0.029045
0.087725
0.084854
0.085811
0.088362
0.09187
0.069866
0.059342
0.094422
0.07433
0.071779
0.084217
0.025856
0.020116
0.04818
0.015013
-0.029315
-0.048769
-0.04558
-0.057379
-0.073006
-0.082573
-0.078746
-0.10075
-0.13806
-0.092141
-0.069179
-0.048769
-0.058017
-0.069817
-0.082892
-0.076514
-0.051001
-0.088952
-0.077471
-0.078109
-0.050363
-0.047812
-0.0982
-0.11223
-0.069817
-0.056104
-0.057061
-0.068541
-0.072368
-0.061525
-0.045899
-0.047493
-0.049407
-0.065352
-0.087995
-0.086081
-0.084168
-0.085443
-0.064714
-0.052915
-0.080979
-0.057379
-0.020386
-0.005716
0.032872
0.017564
0.0095917
0.070822
0.12217
0.093465
0.069547
0.07752
0.089319
0.088681
0.10367
0.09506
0.091233
0.054239
0.061255
0.076244
0.059342
0.059979
0.064125
0.086768
0.06859
0.032872
0.015651
-0.012094
0.0025757
-0.0038025
-0.015921
-0.0105
-0.018472
-0.033461
0.023624
0.0041702
-0.023894
-0.032504
0.0067215
0.012143
-0.029315
-0.027402
-0.034737
-0.032504
-0.026126
-0.046218
-0.071093
-0.091184
-0.067585
-0.078109
-0.099476
-0.098838
-0.095649
-0.10681
-0.084487
-0.076833
-0.076514
-0.066309
-0.057379
-0.08353
-0.062482
-0.05419
-0.093416
-0.070774
-0.064714
-0.066628
-0.058655
-0.058336
-0.034099
-0.013689
-0.017197
-0.015283
0.0038513
0.0035324
-0.0050782
0.015332
0.00098112
-0.019429
-0.026764
-0.019429
-0.046855
-0.012413
0.040207
0.011186
-0.00029452
0.0038513
0.03351
0.050093
0.077838
0.10239
0.1008
0.090276
0.095378
0.094422
0.07146
0.070185
0.061893
0.055515
0.06859
0.074012
0.048818
0.014056
0.012462
-0.011137
-0.0031647
0.022348
0.0089539
-0.00093234
-0.0069916
-0.0098618
-0.039202
-0.059293
-0.028996
-0.023894
-0.021343
-0.066947
-0.059931
-0.037607
-0.01624
-0.037607
-0.06599
-0.009224
0.015013
-0.021024
-0.057379
-0.031229
-0.043028
-0.051958
-0.055466
-0.064714
-0.091184
-0.095011
-0.10681
-0.12786
-0.085762
-0.064077
-0.071093
-0.063439
-0.049726
-0.070774
-0.083211
-0.066628
-0.055466
-0.056104
-0.062482
-0.055147
-0.03952
-0.025488
-0.017197
-0.02804
-0.038883
-0.028359
0.0064026
0.0041702
0.014056
0.060298
0.066677
0.061893
0.089319
0.062212
0.054558
0.07433
0.063169
0.050093
0.061574
0.0099106
0.035742
0.062212
0.019797
0.0131
0.0089539
0.0057648
0.018521
-0.013051
-0.027721
-0.0085862
-0.036012
-0.059612
-0.054509
-0.068222
-0.048769
-0.029634
-0.0076295
-0.013689
-0.035694
-0.020705
-0.005716
0.00066221
0.025856
0.06859
0.14034
0.09506
0.075925
0.10909
0.066995
0.057747
0.077201
0.097292
0.075287
0.079114
0.044991
0.05392
0.03351
-0.0053971
0.0051269
0.0076782
-0.032186
-0.038245
-0.039202
-0.073963
-0.12977
-0.14636
-0.12945
-0.13296
-0.12754
-0.13456
-0.12754
-0.11223
-0.097562
-0.08353
-0.088633
-0.04845
-0.01624
-0.022618
-0.011456
-0.0060349
-0.03952
-0.035056
-0.030272
-0.028996
-0.020386
-0.032504
-0.043347
-0.051958
-0.061525
-0.037607
-0.035375
-0.051639
-0.044942
-0.027721
-0.021343
-0.020705
-0.028996
-0.03378
-0.036331
-0.02804
-0.044304
-0.047174
-0.05132
-0.041115
-0.057379
-0.035056
-0.017197
-0.033142
0.012781
0.069228
0.078795
0.061574
0.085492
0.059023
0.052645
0.11005
0.13652
0.10622
0.11738
0.11547
0.11037
0.12504
0.10399
0.084536
0.075925
0.082941
0.092189
0.1126
0.039569
0.076244
0.090595
0.097292
0.065401
0.06285
0.072098
0.10239
0.079752
0.059023
0.085492
0.096016
0.090276
0.081984
0.069228
0.0073593
-0.015921
-0.032504
-0.062482
-0.061525
-0.08066
-0.13774
-0.17857
-0.19132
-0.1808
-0.17506
-0.21014
-0.22513
-0.18112
-0.1572
-0.16134
-0.15688
-0.15146
-0.12595
-0.10553
-0.1218
-0.12435
-0.099794
-0.082573
-0.083849
-0.068222
-0.071411
-0.052915
-0.046536
0.014375
0.024899
0.019159
0.043396
0.070185
0.076882
0.067314
0.076244
0.075287
0.067952
0.076563
0.047542
0.03638
0.048818
0.044991
0.033829
0.035104
0.025856
0.026175
0.047861
0.042758
0.052007
0.076563
0.08613
0.05392
0.062531
0.068909
0.064444
0.052645
0.059342
0.07146
0.033829
0.026175
0.048499
0.058704
0.030002
0.036699
0.026175
-0.0053971
-0.033142
-0.030272
-0.025488
-0.06025
-0.080979
-0.094373
-0.085443
-0.058655
-0.099157
-0.085125
-0.072368
-0.059612
-0.06312
-0.071093
-0.018791
0.0060837
-0.016559
-0.010181
0.040845
0.029683
0.017564
-0.0044404
-0.038883
-0.030272
-0.016878
-0.029315
-0.039202
-0.012732
-0.023894
-0.018472
-0.012413
-0.025488
-0.0076295
-0.0066727
-0.0085862
-0.04845
-0.053871
-0.063758
-0.054509
-0.062801
-0.061206
-0.080341
-0.074601
-0.089589
-0.062482
-0.058017
-0.072049
-0.062801
-0.036969
-0.038883
-0.0038025
0.042439
0.015332
0.019478
0.06859
0.065082
0.065082
0.060936
0.046904
0.066995
0.10718
0.064763
0.065082
0.12504
0.15119
0.13078
0.097611
0.10495
0.1193
0.06285
0.034786
0.055196
0.041483
0.025537
0.0038513
-0.0018891
-0.033142
-0.0053971
-0.021343
-0.037607
-0.034099
-0.046218
-0.053871
-0.03091
-0.01624
-0.061206
-0.039839
-0.0076295
-0.017197
-0.036331
-0.019429
-0.017516
0.0067215
-0.011137
0.0057648
0.019478
0.0067215
0.022348
0.073374
0.048818
0.028088
0.029045
0.017883
0.032553
0.031915
-0.0063538
-0.034418
-0.026764
-0.042391
-0.047174
-0.0085862
-0.033461
-0.08353
-0.098838
-0.067903
-0.063439
-0.069817
-0.058655
-0.058974
-0.083849
-0.072687
-0.076833
-0.10235
-0.09533
-0.060569
-0.061525
-0.079065
-0.050044
-0.036969
-0.047812
-0.035694
-0.042072
-0.016878
0.012462
0.01597
-0.011775
-0.0095429
-0.005716
-0.013051
-0.00093234
0.012781
0.01597
0.00066221
0.016289
0.067314
0.070185
0.059342
0.074649
0.10303
0.10686
0.048818
0.089319
0.11164
0.11005
0.11324
0.081346
0.077838
0.076244
0.077838
0.046904
0.060936
0.052963
0.052963
0.030959
0.059661
0.040207
0.029045
0.0003433
-0.021024
-0.027402
-0.034099
-0.045261
-0.078427
-0.034737
-0.022937
-0.088952
-0.10298
-0.071411
-0.044942
-0.062801
-0.047174
-0.057061
-0.060569
-0.02804
-0.015283
-0.047493
-0.059931
-0.053234
-0.096924
-0.091822
-0.074919
-0.094692
-0.0982
-0.096286
-0.072368
-0.083211
-0.042391
-0.0082673
-0.0044404
0.0038513
0.018202
0.040845
0.024262
0.033829
0.048818
0.055515
0.038931
0.054877
0.052645
0.03351
0.041802
0.043077
0.044672
0.04531
0.027451
0.021391
0.0035324
-0.017835
-0.022937
-0.014645
0.013419
-0.0063538
-0.034737
-0.032504
-0.04558
-0.051001
-0.082254
-0.058655
-0.044942
-0.029953
-0.048131
-0.026126
-0.028678
-0.0079484
-0.015602
-0.031867
-0.048131
-0.022937
-0.011775
-0.04845
-0.053234
-0.037288
-0.034737
-0.023894
-0.011137
-0.0053971
-0.014008
-0.0073105
0.018202
0.025856
0.0076782
0.034786
0.039569
0.033191
0.048499
0.027132
0.039888
0.061255
0.048499
0.012781
0.024899
0.081346
0.098249
0.092827
0.051369
0.06859
0.081984
0.07433
0.044034
0.022029
0.031278
0.010867
-0.030591
-0.036969
-0.045261
-0.046218
-0.055785
-0.076195
-0.057379
-0.052915
-0.062482
-0.074601
-0.094692
-0.074282
-0.057379
-0.070136
-0.06886
-0.052277
-0.052915
-0.050682
-0.044304
-0.044304
-0.033142
-0.026764
-0.046218
-0.010819
0.0013
0.0028946
0.021391
0.0028946
0.014375
0.0032135
-0.01911
-0.016559
-0.012413
-0.0053971
-0.012413
-0.014964
0.0057648
-0.032823
-0.034418
0.0089539
0.025856
0.028088
0.044991
0.063169
0.076244
0.087406
0.059661
0.035104
0.065082
0.067952
0.026494
0.029364
0.090914
0.11005
0.066039
0.02777
0.033191
0.039888
0.057428
0.052963
0.020435
0.029364
0.030321
-0.01337
-0.061525
-0.029634
-0.034418
-0.079065
-0.1167
-0.12403
-0.10841
-0.085443
-0.080022
-0.086719
-0.080979
-0.079703
-0.070136
-0.069179
-0.058017
-0.040158
-0.047812
-0.060887
-0.037607
-0.057379
-0.078746
-0.084806
-0.079703
-0.062163
-0.043347
-0.059612
-0.071093
-0.03091
-0.012732
-0.012094
-0.0015702
-0.0041214
-0.012094
0.0003433
0.014694
0.0057648
-0.0047593
0.0073593
-0.0089051
-0.0044404
0.0038513
0.022348
0.028407
0.02458
0.0016189
-0.0085862
0.0057648
-0.02198
-0.0079484
-0.036969
-0.037288
-0.027083
-0.069498
-0.031548
-0.032504
-0.067266
-0.076195
-0.049726
-0.0041214
-0.03378
-0.058336
-0.046855
0.0092728
0.033191
-0.0044404
-0.013689
-0.029953
-0.011137
2.4388e-05
-0.026445
-0.026126
-0.014645
0.0028946
-0.012732
0.0057648
0.021391
0.04531
0.056471
0.066995
0.082303
0.084217
0.10303
0.097292
0.08613
0.08613
0.060298
0.066039
0.076563
0.10622
0.070185
0.040526
0.029045
0.03638
0.018521
0.030959
0.020754
0.013738
0.0060837
0.011186
0.00066221
-0.057698
-0.10107
-0.050363
-0.015602
-0.042391
-0.060887
-0.086719
-0.070455
-0.067903
-0.047812
-0.049088
-0.041753
-0.032823
-0.037926
-0.049407
-0.04558
-0.061206
-0.076833
-0.03952
-0.063758
-0.11638
-0.11478
-0.0864
-0.081298
-0.07779
-0.090546
-0.10139
-0.070774
-0.068541
-0.059612
-0.056742
-0.064395
-0.081298
-0.072049
-0.064395
-0.072368
-0.083849
-0.094373
-0.08927
-0.067903
-0.075557
-0.052277
-0.029315
-0.027721
-0.0098618
0.0073593
-0.0098618
0.0054459
0.0092728
-0.0053971
0.0013
0.0041702
-0.0098618
0.015332
0.016289
-0.0098618
-0.0105
0.045947
0.083898
0.07433
0.056471
0.049774
0.074968
0.10909
0.13014
0.12025
0.11515
0.078476
0.066995
0.052326
0.09793
0.10973
0.019797
-0.038564
-0.0050782
-0.014008
-0.049088
-0.046536
-0.046536
-0.070455
-0.063439
-0.077152
-0.10809
-0.10394
-0.11893
-0.096605
-0.077471
-0.079703
-0.10075
-0.083211
-0.061844
-0.049088
-0.026126
-0.020386
-0.010819
-0.00029452
-0.0105
-0.01911
-0.025807
0.00098112
0.011505
-0.0041214
-0.064395
-0.077152
-0.04845
-0.062801
-0.066947
-0.056742
-0.04845
-0.040796
-0.02804
-0.025807
-0.03091
-0.026126
-0.020067
-0.031548
-0.044623
-0.010819
0.0064026
-0.019429
-0.024532
-0.020067
-0.0082673
-0.014645
0.0067215
0.022986
0.01884
0.029045
0.019159
0.027132
0.032872
0.027132
-0.005716
0.0089539
0.021072
0.015013
-0.0018891
-0.0073105
0.016927
-0.012094
0.015332
0.071141
0.092508
0.087087
0.077201
0.083579
0.075606
0.099524
0.091552
0.063169
0.080709
0.032234
-0.0015702
-0.00029452
-0.01911
-0.044304
-0.034737
-0.047174
-0.080979
-0.080022
-0.09246
-0.076514
-0.090546
-0.055466
0.008316
-0.017516
-0.045261
-0.050363
-0.016559
0.00098112
-0.021661
-0.0089051
0.0003433
-0.014327
0.01884
0.038612
0.012781
0.031915
0.016608
-0.015602
-0.012413
0.008316
0.02458
-0.0025269
-0.050682
-0.064714
-0.03665
-0.04558
-0.053234
-0.049088
-0.042391
-0.047493
-0.041434
-0.047812
-0.038883
-0.046218
-0.058017
-0.059931
-0.0079484
-0.01911
-0.059612
-0.057379
-0.062482
-0.066628
-0.062163
-0.058655
-0.055466
-0.018153
-0.009224
-0.014964
-0.005716
-0.0044404
0.0054459
0.020754
0.026494
0.040207
0.047861
0.02777
0.017246
0.016608
0.016608
0.019478
-0.0018891
0.0054459
0.048818
0.035104
0.041802
0.038612
0.038612
0.034467
0.037337
0.05392
0.069228
0.053282
0.029364
0.013419
-0.0089051
0.0092728
0.0019378
-0.010181
-0.022299
-0.012732
-0.032186
-0.040477
-0.043028
-0.047174
-0.093097
-0.04845
-0.02198
-0.058655
-0.071093
-0.052596
-0.068541
-0.082254
-0.064395
-0.051958
-0.044304
-0.017516
-0.005716
-0.011456
-0.0044404
-0.0063538
0.0044891
0.028407
0.011824
0.0022568
0.00098112
0.0076782
0.0041702
-0.0031647
0.033191
0.022348
0.021391
0.012781
0.029364
0.055515
0.037018
0.047861
0.066358
0.043396
0.055515
0.06859
0.049137
0.027451
0.028088
-0.01911
-0.019429
-0.019429
-0.035375
-0.02517
-0.031229
-0.065671
-0.048769
-0.043347
-0.01337
-0.026126
-0.040158
-0.036969
-0.036969
-0.043028
-0.055466
-0.036012
-0.052596
-0.047174
-0.05419
-0.064077
-0.062801
-0.03091
-0.0066727
-0.014964
0.0019378
0.021391
2.4388e-05
0.039569
0.089319
0.053282
0.039888
0.035423
0.070822
0.055196
0.034148
0.044991
0.034786
0.02777
0.033829
0.040207
0.019159
0.073055
0.074012
0.03638
0.030959
0.059661
0.034148
0.035104
0.025856
0.014056
0.021391
2.4388e-05
-0.017197
-0.023256
-0.031229
-0.011137
-0.021343
-0.033142
-0.029634
-0.023256
-0.046855
-0.075876
-0.06312
-0.061844
-0.03378
-0.046536
-0.067903
-0.088952
-0.058655
-0.081298
-0.093735
-0.049726
-0.041753
-0.061206
-0.03952
-0.034737
-0.022937
-0.013051
0.0025757
-0.0031647
0.0057648
0.050412
0.03925
0.015013
0.019797
0.054558
0.075925
0.038931
0.0079971
0.052326
0.064125
0.038612
0.04818
0.036061
0.033191
0.026494
-0.034737
-0.028996
-0.014645
-0.04271
-0.048769
-0.038564
-0.028996
-0.03378
-0.010181
-0.014327
-0.015602
-0.00029452
0.024899
0.032234
0.022348
-0.00029452
0.028407
0.049137
0.066995
0.043715
0.014056
0.0089539
0.0022568
0.014375
0.015332
0.0038513
0.0003433
-0.016559
-0.014964
-0.00029452
-0.021343
-0.041753
-0.040477
-0.045899
-0.06025
-0.094054
-0.13073
-0.12403
-0.11989
-0.11733
-0.10235
-0.10777
-0.048131
-0.048131
-0.08353
-0.058655
0.0032135
-0.00093234
0.011824
0.059023
0.062531
0.062531
0.042758
0.045947
0.085492
0.078795
0.070185
0.081984
0.083898
0.078157
0.07433
0.042758
0.042758
0.076563
0.06285
-0.0060349
0.0035324
-0.015921
-0.065352
-0.066947
-0.069498
-0.073325
-0.094054
-0.11159
-0.12818
-0.092141
-0.076833
-0.052915
-0.043666
-0.034737
-0.015283
0.0019378
0.019797
0.027451
0.03351
0.046904
0.048818
0.043077
0.042758
0.08039
0.086768
0.076563
0.058066
0.069547
0.094103
0.090914
0.089319
0.12982
0.11324
0.10303
0.079114
0.069866
0.051688
0.055515
0.031596
0.0095917
-0.005716
-0.028678
-0.014964
-0.005716
-0.036012
-0.03952
-0.058336
-0.075876
-0.043028
-0.067903
-0.073006
-0.09246
-0.11191
-0.11542
-0.1285
-0.11861
-0.082573
-0.096924
-0.10904
-0.087357
-0.11574
-0.15241
-0.11925
-0.087995
-0.059931
-0.069817
-0.09246
-0.11415
-0.11574
-0.11319
-0.10968
-0.10617
-0.11319
-0.12626
-0.085762
-0.073963
-0.026764
-0.0082673
-0.0041214
0.021391
0.043077
0.060936
0.083898
0.10877
0.11037
0.10654
0.13046
0.11993
0.10973
0.087406
0.086449
0.09793
0.091233
0.091233
0.10112
0.11292
0.11388
0.13301
0.12217
0.16235
0.1665
0.14832
0.14194
0.15246
0.11324
0.10303
0.09793
0.11356
0.095378
0.090276
0.069547
0.015013
0.004808
-0.0089051
0.0022568
-0.0047593
-0.031229
-0.097562
-0.12276
-0.11223
-0.1218
-0.11446
-0.14221
-0.14572
-0.17697
-0.17538
-0.15146
-0.17251
-0.18494
-0.1572
-0.14061
-0.17282
-0.16039
-0.12467
-0.12977
-0.13105
-0.12595
-0.12148
-0.10904
-0.096605
-0.077471
-0.041434
-0.041434
-0.044623
-0.044942
-0.013689
0.016289
0.043077
0.049455
0.046585
0.043077
0.057747
0.051369
0.046585
0.044991
0.013738
0.052326
0.10239
0.064125
0.082622
0.094741
0.10526
0.10973
0.11579
0.11993
0.1413
0.15087
0.10686
0.1228
0.1177
0.072736
0.076244
0.093465
0.077201
0.066358
0.03064
0.039888
0.030959
-0.0012513
0.030002
0.029045
-0.014645
-0.01337
-0.0034836
-0.052277
-0.055785
-0.072368
-0.088633
-0.11032
-0.096286
-0.10394
-0.12786
-0.10585
-0.11446
-0.14349
-0.12818
-0.09246
-0.075876
-0.065352
-0.06025
-0.086081
-0.058017
-0.051001
-0.050363
-0.045261
2.4388e-05
-0.0066727
0.02171
0.0070404
0.025856
0.058066
0.062212
0.084217
0.082303
0.077838
0.13269
0.17096
0.12855
0.13684
0.13301
0.11005
0.12025
0.12249
0.11324
0.10813
0.088362
0.071779
0.068271
0.039569
0.014375
-0.046855
-0.03952
-0.0079484
-0.026764
-0.078427
-0.10872
-0.10522
-0.1403
-0.1438
-0.14572
-0.15401
-0.14923
-0.10872
-0.10043
-0.089908
-0.1033
-0.10968
-0.054509
-0.018791
-0.047174
-0.047493
-0.053234
-0.037607
-0.029315
-0.034737
-0.029634
-0.038883
-0.021343
-0.038564
-0.02198
-0.0041214
-0.01337
-0.0053971
-0.014964
-0.014327
-0.0069916
0.0038513
0.0032135
-0.005716
-0.0044404
-0.020386
-0.027721
-0.011456
0.012781
0.037975
0.033829
0.03925
0.059023
0.072736
0.064763
0.089957
0.067952
0.069547
0.087087
0.1008
0.094103
0.064444
0.035423
0.03638
0.01023
0.0022568
0.0131
0.045947
0.030002
-0.0073105
0.0028946
0.015332
0.01023
0.014375
0.01597
0.011505
0.015013
-0.022937
-0.005716
0.0057648
0.0057648
0.012781
0.0016189
-0.032504
0.011505
0.028407
0.05679
0.064444
0.034467
0.055196
0.067952
0.046904
0.038294
0.062531
0.072736
0.013419
0.0035324
0.0016189
-0.015283
-0.026126
-0.033142
-0.015283
-0.012094
-0.037607
-0.0038025
0.0089539
-0.042391
-0.051639
-0.03952
-0.044623
-0.052277
-0.065352
-0.092141
-0.069179
-0.064077
-0.094054
-0.11446
-0.10043
-0.085443
-0.095011
-0.099794
-0.089589
-0.098519
-0.065671
-0.078746
-0.070455
-0.043985
-0.051639
-0.070455
-0.078746
-0.057379
-0.056423
-0.011137
-0.0105
0.0013
0.034786
0.038294
0.069547
0.080709
0.06285
0.067314
0.091552
0.085811
0.078795
0.072417
0.086768
0.065082
0.064125
0.04818
0.071779
0.12855
0.12376
0.092189
0.14927
0.17
0.15119
0.1649
0.19424
0.20827
0.15788
0.14927
0.23921
0.19009
0.093465
0.084536
0.078476
0.043715
0.044034
-0.022618
-0.044942
-0.10043
-0.094373
-0.11478
-0.12339
-0.17442
-0.21014
-0.17123
-0.15784
-0.16772
-0.21365
-0.21907
-0.18622
-0.169
-0.14125
-0.10394
-0.073325
-0.064395
-0.047174
-0.0073105
0.0044891
-0.028678
-0.036012
-0.0098618
-0.0079484
-0.0076295
-0.012732
-0.017835
-0.043347
-0.074919
-0.10522
-0.066628
-0.061525
-0.067903
-0.075557
-0.054509
-0.047493
-0.050682
-0.050044
-0.033142
-0.029315
-0.045899
-0.024213
-0.033461
-0.02804
-0.0050782
0.0131
-0.015921
0.02777
0.051688
0.053601
0.068909
0.029683
0.03638
0.079433
0.10239
0.12089
0.10782
0.098886
0.090595
0.072098
0.075287
0.10271
0.098886
0.094422
0.086449
0.093784
0.084854
0.063487
0.075287
0.082622
0.052326
0.05392
0.0079971
0.0022568
-0.020067
-0.045261
-0.055147
-0.044942
-0.067266
-0.06886
-0.080979
-0.088633
-0.074282
-0.050363
-0.02517
-0.024851
-0.04845
-0.040158
-0.0031647
-0.00029452
0.0095917
-0.0034836
0.0013
-0.01337
0.0089539
0.023624
0.0070404
0.0131
-0.010181
-0.0095429
-0.0082673
-0.005716
-0.011137
-0.023894
-0.03378
-0.023575
-0.041434
-0.036012
-0.068541
-0.10585
-0.079065
-0.066947
-0.023256
-0.026126
-0.022299
-0.017197
0.0051269
0.042758
0.034467
0.034467
0.048499
0.087725
0.06572
0.047223
0.038931
0.05679
0.077201
0.05392
0.040207
0.033191
0.057747
0.078157
0.038612
0.025856
0.054239
0.043396
0.031915
-0.01624
0.0089539
0.036699
0.0013
-0.0053971
-0.012732
-0.036331
-0.051001
-0.050044
-0.065671
-0.021661
-0.027402
-0.017516
-0.010819
-0.0012513
0.0131
0.017246
0.014375
-0.020705
-0.030272
-0.0089051
-0.017516
-0.050363
-0.040796
-0.041434
-0.039202
-0.037926
-0.050363
-0.041753
-0.034737
-0.044304
-0.018153
-0.025807
-0.020386
0.0016189
-0.010819
-0.024851
-0.028678
-0.034099
-0.041115
-0.038245
-0.029953
-0.035056
-0.0044404
-0.024532
-0.023894
-0.022618
0.008635
0.013738
-0.0063538
-0.00061343
0.019478
0.017246
0.010548
-0.015921
-0.026126
-0.012413
-0.014645
-0.024213
-0.028678
0.025218
-0.00093234
0.011505
0.04531
0.052007
0.054239
0.042758
0.066677
0.057747
0.084854
0.094422
0.099843
0.070822
0.072736
0.079114
0.080709
0.064763
0.078157
0.082622
0.10271
0.09187
0.044353
0.019478
0.034148
0.064444
0.037018
-0.0085862
-0.0066727
-0.011775
-0.050682
-0.053234
-0.029315
-0.05419
-0.055466
-0.05419
-0.074919
-0.066628
-0.040158
-0.017516
-0.027402
-0.045261
-0.052596
-0.053234
-0.058974
-0.062163
-0.074919
-0.076514
-0.052915
-0.096605
-0.080979
-0.046218
-0.0050782
-0.041115
-0.024851
-0.009224
0.0025757
0.014694
0.017564
0.03925
0.024262
-0.029634
-0.022618
-0.002208
-0.0038025
-0.024213
-0.041753
-0.074601
-0.078746
-0.055785
-0.046536
-0.052277
-0.058336
-0.056423
-0.02804
-0.017835
-0.048131
-0.055785
-0.036969
-0.017835
-0.014008
-0.011775
-0.026126
-0.00061343
0.039569
0.041483
0.029364
0.05679
0.055515
0.064125
0.027451
0.043715
0.075287
0.049455
0.036699
0.048818
0.040845
0.026494
0.016608
-0.011456
0.0099106
0.048818
0.042758
0.040845
0.047223
0.032872
0.029045
0.029045
0.044991
0.066677
0.093146
0.064444
0.024262
0.010548
0.0044891
0.018202
0.028088
0.028407
0.019478
0.029364
0.011505
0.00066221
-0.023894
-0.018472
-0.031229
-0.053871
-0.061206
-0.049088
-0.050363
-0.13615
-0.17442
-0.15082
-0.1674
-0.16262
-0.09246
-0.11478
-0.15752
-0.16039
-0.13838
-0.097562
-0.088952
-0.091503
-0.089908
-0.08066
-0.066309
-0.068541
-0.067585
-0.01911
0.0095917
-0.017516
-0.031548
0.0003433
0.030959
0.040207
0.065401
0.084217
0.071141
0.088681
0.093146
0.081346
0.12504
0.10303
0.059023
0.068271
0.056471
0.060298
0.066358
0.058066
0.034467
0.058066
0.05392
0.055196
0.040845
0.0028946
-0.013689
0.027451
0.0070404
-0.029634
-0.031867
-0.047493
-0.037607
-0.039202
-0.069498
-0.080022
-0.021024
-0.033142
-0.064395
-0.037607
-0.022937
2.4388e-05
-0.0025269
-0.0050782
-0.012732
-0.0063538
-0.010819
-0.011456
-0.035694
-0.032186
-0.018791
-0.02517
-0.023256
-0.017197
0.010867
0.0041702
0.00066221
0.011186
0.008635
0.035423
0.059979
0.036061
0.069866
0.097292
0.13301
0.10208
0.10813
0.12376
0.13078
0.12823
0.1598
0.18117
0.1582
0.15597
0.16458
0.13747
0.11579
0.09506
0.082622
0.011824
-0.0079484
-0.032823
-0.05132
-0.082254
-0.087995
-0.11893
-0.12403
-0.10266
-0.13487
-0.14986
-0.12307
-0.10043
-0.096286
-0.11415
-0.10522
-0.093735
-0.085443
-0.081617
-0.081935
-0.089908
-0.096286
-0.084487
-0.078746
-0.072049
-0.08066
-0.081298
-0.062482
-0.065352
-0.074601
-0.071093
-0.056423
-0.073644
-0.074601
-0.064077
-0.075876
-0.071093
-0.05419
-0.058017
-0.051001
-0.036331
-0.038245
-0.011456
-0.013051
-0.0105
0.0089539
-0.00093234
-0.0098618
-0.0038025
-0.013689
-0.029953
-0.0089051
-0.017197
-0.044304
-0.03091
-0.018791
-0.023575
-0.0063538
-0.017197
-0.0044404
0.040845
0.065401
0.089
0.08613
0.096335
0.083579
0.088362
0.1126
0.11388
0.11993
0.1413
0.12121
0.1582
0.14449
0.11611
0.16554
0.13875
0.1244
0.15087
0.13875
0.1228
0.15055
0.12153
0.046904
-0.00061343
0.0057648
0.022029
0.0060837
-0.015921
-0.051958
-0.064077
-0.087357
-0.10011
-0.069498
-0.074919
-0.071411
-0.085125
-0.063439
-0.050044
-0.074601
-0.087038
-0.050044
-0.038245
-0.064077
-0.063758
-0.042391
-0.024213
-0.022937
-0.03952
-0.024851
-0.011137
-0.021343
-0.043985
-0.028359
-0.0073105
-0.021024
-0.043666
-0.08927
-0.086719
-0.096924
-0.095011
-0.085762
-0.08066
-0.094373
-0.071093
-0.040158
-0.031867
-0.015283
-0.0066727
-0.034099
-0.0012513
0.03638
0.028726
0.0131
0.022667
0.034786
0.053282
0.06859
0.0073593
0.039569
0.058066
0.093465
0.096016
0.06859
0.09506
0.075925
0.071141
0.070185
0.092189
0.11005
0.074649
0.060617
0.042439
0.039888
0.042439
0.019159
0.017564
0.048499
0.044353
0.023624
0.051688
0.029683
0.073374
0.11547
0.11164
0.035104
-0.0047593
0.014375
-0.0053971
0.019478
0.023624
-0.032186
-0.060569
-0.034099
-0.032186
-0.076833
-0.014327
-0.043347
-0.06599
-0.087357
-0.0864
-0.034737
-0.047174
-0.073963
-0.066628
-0.054509
-0.069179
-0.064395
-0.092141
-0.064077
-0.05132
-0.063758
-0.046218
-0.046855
-0.038883
-0.0063538
-0.0098618
0.0076782
0.021391
-0.02517
-0.031229
-0.0105
-0.016559
-0.022937
0.0057648
-0.0095429
-0.0098618
0.0013
-0.012094
-0.032186
-0.00093234
0.022986
0.026494
0.016289
0.02171
0.008635
0.0060837
0.0025757
-0.00029452
0.014694
0.01597
-0.027402
-0.0095429
0.022986
0.025218
0.014694
0.033191
0.046585
0.048818
0.051369
0.07433
0.078157
0.079114
0.053601
0.073374
0.078795
0.077838
0.051688
0.015013
0.014056
0.053601
0.020435
0.0060837
0.03064
0.029364
-0.0105
-0.038564
-0.047493
-0.0034836
0.0092728
-0.017516
-0.04845
-0.051958
-0.061206
-0.02517
0.014375
0.0131
0.047542
0.054239
0.050093
0.093146
0.085492
0.062531
0.039888
0.081984
0.078157
0.074649
0.092827
0.037018
0.043715
0.023943
0.0028946
0.0044891
0.027132
0.0057648
-0.0085862
-0.038883
-0.021661
-0.057379
-0.077471
-0.058974
-0.042391
-0.071411
-0.075876
-0.08353
-0.093735
-0.14923
-0.16645
-0.13902
-0.1151
-0.075238
-0.084168
-0.078109
-0.057379
-0.041434
-0.03665
-0.039839
-0.03952
-0.023256
-0.027721
-0.02804
-0.021024
-0.03091
-0.02804
-0.023256
-0.018791
-0.034099
-0.0047593
0.0060837
0.0019378
0.018202
0.015332
0.013738
0.042121
0.069866
0.054558
0.030959
0.035104
0.049455
0.061255
0.063806
0.060936
0.08613
0.11388
0.11388
0.13843
0.11069
0.14353
0.11164
0.10845
0.13046
0.14991
0.12631
0.11069
0.08039
0.078157
0.01884
-0.0025269
-0.0060349
-0.03952
0.0067215
-0.0050782
-0.017197
-0.028359
-0.025807
-0.041115
-0.060569
-0.048769
-0.03952
-0.028996
-0.074919
-0.058974
-0.076833
-0.068222
-0.058336
-0.084168
-0.098838
-0.094054
-0.079065
-0.072049
-0.061844
-0.052915
-0.058974
-0.036969
-0.024213
-0.074601
-0.088633
-0.067903
-0.064714
-0.044942
-0.034418
-0.045899
-0.048769
-0.055147
-0.047174
-0.025488
-0.0095429
-0.029953
-0.032504
-0.010181
-0.00093234
0.0089539
-0.024851
-0.026126
-0.01624
-0.033461
-0.032504
-0.011775
-0.0018891
0.0057648
0.040845
0.033829
0.028088
0.04531
0.075606
0.08039
0.090914
0.072736
0.096335
0.10176
0.098886
0.077201
0.072417
0.078157
0.08326
0.060617
0.02458
0.054877
0.066358
0.086768
0.092508
0.10016
0.10335
0.12759
0.13811
0.10558
0.07752
0.11579
0.087725
0.040526
0.057747
0.08613
0.052963
0.0003433
-0.026764
-0.015921
-0.058336
-0.044942
-0.074601
-0.09246
-0.09533
-0.091822
-0.14285
-0.16294
-0.14667
-0.15592
-0.15018
-0.13551
-0.14795
-0.13934
-0.10266
-0.10011
-0.086081
-0.051001
-0.027721
-0.019748
-0.014327
-0.026764
-0.023575
-0.009224
-0.01337
0.0060837
0.011824
-0.0073105
0.0038513
-0.00029452
-0.018791
0.024262
0.035423
0.01023
0.0064026
0.008316
0.013419
0.019159
0.036699
0.017564
-0.005716
-0.0063538
-0.024851
-0.02804
-0.002208
-0.005716
-0.039202
-0.028996
-0.005716
0.0032135
0.023943
0.045947
0.054239
0.059661
0.060617
0.080709
0.088362
0.097292
0.11547
0.11292
0.12025
0.1244
0.1177
0.11579
0.1547
0.15246
0.1783
0.11483
0.098886
0.14577
0.1413
0.070503
0.018521
0.0070404
-0.021343
-0.046855
-0.095968
-0.10968
-0.17857
-0.20248
-0.19611
-0.18877
-0.16358
-0.18526
-0.169
-0.1757
-0.1792
-0.14412
-0.089589
-0.10394
-0.10203
-0.05132
-0.033142
-0.027083
-0.015283
0.008635
0.028407
0.047223
0.037018
0.041483
0.043077
0.084536
0.086768
0.03351
0.042439
0.058385
0.03064
-0.011775
0.01597
-0.012413
-0.00061343
-0.012413
-0.047174
-0.073963
-0.042391
-0.028996
-0.041434
-0.024532
-0.0063538
-0.00093234
0.039888
0.052007
0.019797
0.029045
0.048818
0.040526
0.043715
0.040207
0.04531
0.087406
0.069547
0.073055
0.07752
0.076244
0.10176
0.10176
0.086449
0.068271
0.081984
0.04818
0.023305
0.0051269
-0.002208
-0.021343
-0.047493
-0.065033
-0.06312
-0.067266
-0.085762
-0.082892
-0.080979
-0.037607
-0.034099
-0.02804
-0.028996
0.035742
0.025856
0.011824
0.02458
0.032872
0.032553
0.061255
0.049137
0.013419
0.044991
0.067952
0.043715
0.054239
0.052326
0.060936
0.035104
-0.0095429
-0.0025269
0.0035324
-0.038883
-0.058336
-0.05132
-0.049407
-0.092778
-0.11733
-0.12563
-0.11574
-0.10011
-0.11223
-0.10649
-0.10266
-0.093416
-0.057698
-0.046855
-0.061206
-0.028678
-0.0073105
0.0060837
0.008316
0.035423
0.048818
0.055834
0.065082
0.084854
0.10558
0.13588
0.12249
0.10845
0.13747
0.14449
0.097611
0.1244
0.11866
0.11419
0.099843
0.079114
0.043396
0.037337
0.013738
0.018202
0.028407
0.048499
0.010867
0.016608
0.016927
0.030002
0.0054459
-0.01337
0.0099106
0.021391
0.022348
-0.011137
-0.02198
-0.03378
-0.0047593
-0.030591
-0.027402
-0.025488
-0.04845
-0.034099
-0.043985
-0.03665
-0.050363
-0.047493
-0.075557
-0.11765
-0.11415
-0.097243
-0.090546
-0.074601
-0.09246
-0.09246
-0.065671
-0.078427
-0.065033
-0.039839
-0.023256
0.0025757
0.012143
0.022029
0.026813
0.020435
0.019797
0.034786
0.026494
0.013419
0.019478
0.0044891
-0.0028458
0.017564
0.037337
0.017564
0.0028946
0.0032135
0.0035324
-0.02198
-0.023894
-0.052277
-0.05132
-0.052277
-0.044304
-0.084168
-0.10809
-0.085443
-0.083849
-0.063758
-0.046855
-0.035375
-0.02198
-0.013689
0.008635
0.015332
0.037975
0.042439
0.049137
0.071141
0.093465
0.079114
0.079752
0.098568
0.092508
0.10367
0.10048
0.10112
0.1059
0.11419
0.093465
0.12408
0.13429
0.12408
0.11993
0.10239
0.047223
0.056471
0.045947
0.034786
-0.005716
0.00066221
-0.014008
0.011186
0.0044891
0.0003433
0.012781
-0.021024
-0.0098618
0.032234
0.010548
0.016289
0.015332
-0.0098618
-0.0082673
-0.017197
-0.050044
-0.026764
-0.040158
-0.062163
-0.06312
-0.052915
-0.068222
-0.066628
-0.074919
-0.064714
-0.073006
-0.10011
-0.12882
-0.12435
-0.10171
-0.10968
-0.11191
-0.11415
-0.084806
-0.063439
-0.062482
-0.076195
-0.078427
-0.01911
0.0095917
0.0095917
0.023305
0.023305
0.04818
0.05105
0.055834
0.063806
0.039569
0.057747
0.085811
0.069547
0.062212
0.096335
0.091233
0.11164
0.11706
0.092508
0.065082
0.071779
0.078476
0.070185
0.054558
0.044353
0.061893
0.029045
-0.025488
-0.036331
-0.0063538
-0.032504
-0.034418
-0.00093234
0.025856
0.014694
0.020116
0.032872
0.011186
0.036699
0.033191
0.0099106
0.0054459
0.019797
0.037656
0.03064
-0.018791
-0.056423
-0.04558
-0.03378
-0.028996
-0.036012
-0.053871
-0.055785
-0.072049
-0.087676
-0.09533
-0.077152
-0.093097
-0.066309
-0.078109
-0.074282
-0.076833
-0.064395
-0.081617
-0.029315
-0.0028458
0.0076782
0.041483
0.040207
0.026494
0.057109
0.056153
0.058385
0.05679
0.065082
0.042758
0.044353
0.026175
0.0041702
0.013738
0.0060837
0.01023
0.022986
0.026175
0.01597
0.0057648
-0.021024
0.0057648
0.027132
0.00098112
0.0131
-0.0044404
-0.031229
-0.023894
-0.0098618
-0.020067
-0.03091
-0.033142
-0.046536
-0.0025269
-0.01624
-0.012094
-0.0041214
0.023305
-0.005716
-0.02517
-0.026445
-0.026764
-0.024213
-0.0076295
0.015651
0.017564
0.051688
0.019797
0.04531
0.059342
0.050731
0.075606
0.10239
0.082622
0.11483
0.12599
0.098249
0.092508
0.090595
0.066039
0.010867
0.025537
0.030321
0.015013
-0.0034836
-0.015921
-0.005716
-0.034737
-0.0073105
-0.015921
-0.028678
-0.015283
0.018202
-0.0095429
-0.024851
-0.017835
-0.037288
-0.026764
-0.017516
-0.034418
-0.034099
-0.026126
-0.0044404
-0.0105
-0.002208
-0.0050782
0.0089539
0.044034
0.0044891
0.0076782
-0.00061343
0.0028946
0.008316
0.011824
-0.0018891
-0.03665
-0.017835
-0.05132
-0.034737
-0.026764
-0.034737
0.0003433
-0.01624
-0.019429
-0.012094
0.017246
-0.031229
-0.026764
-0.0025269
0.017246
0.031596
0.0099106
0.0067215
0.03925
0.046585
0.027451
0.018202
0.012143
0.045947
0.055196
0.015651
-0.023575
-0.0060349
0.035423
-0.0085862
-0.020705
-0.037288
-0.065352
-0.088633
-0.070774
-0.058655
-0.04271
-0.038245
-0.068222
-0.055466
-0.044623
-0.039839
-0.03952
0.0003433
-0.021024
-0.034737
-0.028359
-0.036969
-0.028678
-0.03665
-0.039202
-0.024213
-0.041753
-0.029634
-0.015283
-0.014964
0.0035324
-0.024213
-0.0041214
0.011824
0.062531
0.082622
0.052326
0.061255
0.046266
0.060298
0.06572
0.060617
0.080071
0.087087
0.08613
0.084536
0.1075
0.097611
0.070185
0.054558
0.040526
0.051369
-0.0028458
-0.0085862
0.0092728
-0.027083
-0.023894
-0.031548
-0.049407
-0.068222
-0.044942
-0.049407
-0.067903
-0.031229
0.016289
-0.00093234
-0.012732
0.017564
0.027451
0.0070404
-0.01337
0.01597
0.014694
-0.0069916
0.037337
0.043077
0.020754
0.0013
0.020116
0.0076782
0.021072
0.024899
0.016289
0.033829
0.042121
-0.0105
-0.014645
0.0076782
0.0099106
-0.035694
-0.034099
-0.0012513
0.019159
0.02458
0.0067215
0.030321
0.018202
0.046266
0.074012
0.066995
0.054558
0.074012
0.026494
0.019797
0.049137
0.011505
-0.031229
-0.023575
-0.018153
-0.046855
-0.037288
-0.028996
-0.053234
-0.050682
-0.026126
-0.045261
-0.032186
-0.0082673
-0.015602
-0.0095429
-0.021661
-0.030591
-0.051639
-0.016559
-0.024532
-0.030272
-0.010819
0.0076782
-0.0031647
-0.036969
-0.033142
-0.0015702
0.015651
0.030002
0.02458
-0.0025269
0.0060837
0.017883
0.014375
0.023305
0.034148
0.046585
0.055515
0.052963
0.047861
0.051369
0.071141
0.086768
0.079433
0.059661
0.03638
0.043396
0.042758
0.027451
0.03064
-0.020067
0.0038513
-0.018153
-0.034099
-0.045899
-0.046536
-0.043347
-0.058017
-0.034737
-0.037926
-0.029953
-0.051639
-0.058974
-0.080022
-0.075876
-0.066947
-0.10362
-0.077152
-0.097562
-0.13169
-0.11829
-0.12977
-0.12116
-0.075557
-0.08353
-0.035375
-0.018791
-0.036331
-0.015283
0.011824
-0.011775
-0.0044404
0.034467
0.022986
0.020754
0.032234
0.052963
0.096335
0.11515
0.12408
0.10654
0.11356
0.15565
0.20253
0.19105
0.18786
0.18659
0.17
0.1547
0.15183
0.094103
0.075606
0.088681
0.074968
0.031278
0.017564
0.004808
-0.017835
-0.028359
-0.06312
-0.071093
-0.077471
-0.087676
-0.092141
-0.11319
-0.11032
-0.11415
-0.093735
-0.071093
-0.077152
-0.080979
-0.048131
-0.002208
0.0044891
0.010548
0.022029
0.03925
0.058704
0.095697
0.11802
0.092189
0.058704
0.056153
0.056153
0.046266
0.011186
-0.011137
-0.02517
0.034786
-0.01911
-0.044304
-0.023256
-0.023575
-0.038245
-0.059293
-0.079703
-0.038883
-0.039202
-0.075557
-0.050363
-0.023894
-0.075238
-0.084806
-0.077152
-0.099157
-0.070455
-0.038245
-0.036969
-0.045899
-0.010819
0.025537
0.050731
0.037656
0.035742
0.046904
0.074012
0.074968
0.051688
0.086449
0.097292
0.089
0.082303
0.078795
0.081028
0.068909
0.070185
0.065401
0.019797
0.02171
0.022667
-0.0073105
-0.019429
-0.019748
-0.051001
-0.066628
-0.051639
-0.066628
-0.065352
-0.052915
-0.055785
-0.05132
-0.046855
-0.042072
-0.020705
-0.0073105
-0.024213
-0.012732
-0.021343
-0.005716
0.026813
0.026494
0.042121
0.049774
0.055515
0.07752
0.11898
0.1126
0.11228
0.13907
0.14577
0.1429
0.11898
0.1464
0.12695
0.08613
0.016289
0.00066221
0.01597
0.004808
-0.024851
-0.058017
-0.07779
-0.0864
-0.059612
-0.067266
-0.083211
-0.093416
-0.1049
-0.056742
-0.020067
-0.052915
-0.079703
-0.052915
-0.080341
-0.090227
-0.082254
-0.082254
-0.083211
-0.063439
-0.071093
-0.04845
-0.03091
2.4388e-05
-0.027083
-0.028678
-0.0076295
-0.0089051
0.00098112
-0.0060349
0.014694
0.022986
0.011186
0.0019378
0.0013
-0.0098618
0.0019378
0.020435
0.036061
0.0092728
0.013419
0.023943
0.037975
0.032872
-0.010819
0.024262
0.047861
0.063806
0.059023
0.031915
0.024899
0.037337
0.04818
0.069228
0.081028
0.073374
0.072736
0.054877
0.02458
0.02458
0.069228
0.032553
-0.0028458
-0.0028458
-0.029315
-0.025488
-0.039839
-0.038564
-0.049407
-0.022937
-0.041753
-0.052915
-0.037607
-0.017835
-0.014645
-0.027402
-0.056423
-0.036012
-0.02804
-0.054828
-0.0098618
-0.0073105
-0.035694
-0.077152
-0.01624
0.0041702
0.015013
0.018521
0.0032135
0.03064
0.046585
0.033191
0.026494
0.037656
0.00098112
0.028726
0.035423
0.012781
0.030002
0.008635
-0.022299
0.0035324
0.065082
0.081346
0.069866
0.059661
0.081028
0.10208
0.092827
0.094422
0.10144
0.069547
0.059023
0.060298
0.0089539
-0.0034836
-0.018791
-0.015921
-0.036012
-0.039202
-0.040158
-0.062801
-0.060569
-0.052277
-0.047493
-0.04271
-0.041115
-0.029634
-0.027083
-0.051958
-0.065352
-0.075557
-0.050682
-0.040477
-0.052596
-0.077471
-0.020386
0.0022568
-0.023894
-0.017835
-0.0060349
-0.027083
-0.030272
-0.020705
-0.041434
-0.050363
-0.037607
-0.073006
-0.076514
-0.076195
-0.089908
-0.08066
-0.056742
-0.01624
0.022029
0.0035324
-0.0082673
0.019159
0.047223
0.071779
0.10813
0.070503
0.067952
0.10686
0.10526
0.11866
0.15342
0.15151
0.13333
0.1193
0.12025
0.13365
0.17
0.15661
0.13588
0.12472
0.1582
0.14864
0.13173
0.072736
0.037018
0.015013
0.062212
0.049774
0.0028946
-0.039202
-0.049407
-0.022618
-0.033142
-0.027083
-0.018153
-0.064077
-0.067266
-0.043985
-0.067585
-0.069179
-0.095011
-0.11383
-0.10426
-0.078746
-0.10809
-0.10841
-0.098519
-0.063439
-0.039202
-0.044304
-0.06025
-0.043347
-0.049407
-0.011775
0.0070404
-0.031548
-0.050363
-0.036969
-0.052277
-0.072368
-0.052596
-0.028359
-0.055466
-0.014008
-0.016559
-0.012413
-0.012094
-0.0038025
0.010867
0.011186
0.017246
-0.0034836
0.012781
0.025856
0.02777
-0.0028458
-0.0050782
-0.0053971
0.0022568
-0.0069916
0.022667
0.040845
0.032553
0.029683
0.032234
0.04818
0.041802
0.047542
0.037337
0.040845
0.052007
0.035742
0.01884
0.034148
0.050731
0.050731
0.066677
0.055834
0.069228
0.089638
0.072098
0.08039
0.07146
0.078795
0.09793
0.052963
-0.0034836
-0.0038025
-0.034418
0.0013
0.041802
-0.013689
-0.061844
-0.038245
-0.040477
-0.03952
-0.0085862
-0.0025269
0.0035324
0.038612
0.11579
0.098249
0.058385
0.072736
0.10144
0.078157
0.08613
0.089
0.073374
0.066995
0.097611
0.084217
0.038612
0.037018
0.02171
-0.027083
-0.031229
-0.038883
-0.071093
-0.1285
-0.11797
-0.15146
-0.1792
-0.17474
-0.1757
-0.1792
-0.16772
-0.1623
-0.14986
-0.14508
-0.12626
-0.11223
-0.11989
-0.12052
-0.074282
-0.069498
-0.078109
-0.06599
-0.060569
-0.041115
-0.030591
-0.012413
-0.0041214
0.052007
0.057747
0.04531
0.069547
0.080071
0.12472
0.1311
0.13237
0.13046
0.12249
0.11419
0.13333
0.093784
0.066995
0.097611
0.093146
0.074649
0.075606
0.079114
0.060617
0.054239
0.049137
0.052963
0.064125
0.067314
0.030002
0.052326
0.06859
0.032553
-0.017197
0.0057648
0.017246
-0.016559
-0.0031647
-0.012094
-0.0050782
-0.016878
-0.023575
-0.03091
-0.056423
-0.085443
-0.095011
-0.09533
-0.080341
-0.094692
-0.098519
-0.078109
-0.08927
-0.079065
-0.094373
-0.069179
-0.03091
-0.0063538
0.013419
0.038612
0.023305
0.038612
0.048818
0.047223
0.042439
0.011186
-0.0018891
0.004808
0.033829
0.014375
-0.0012513
-0.020067
-0.00061343
0.016608
0.0070404
0.014694
0.01884
0.0095917
0.011505
0.036699
0.028726
-0.023256
0.011505
0.020435
0.0028946
-0.025488
-0.055785
-0.053234
-0.035375
-0.016559
-0.0098618
-0.01337
0.0054459
-0.0044404
0.0051269
-0.005716
0.028088
0.03638
0.037337
0.0038513
0.0028946
0.032234
0.063806
0.091233
0.04531
0.079752
0.088362
0.069547
0.11611
0.10782
0.095378
0.10654
0.098568
0.081665
0.089319
0.092189
0.046266
-0.025807
-0.009224
0.0131
-0.017835
-0.054828
-0.04271
-0.043985
-0.058336
-0.053234
-0.064395
-0.063758
-0.060569
-0.024213
-0.034099
-0.073006
-0.061206
-0.055785
-0.050044
-0.038564
-0.047812
-0.055147
-0.032186
-0.040158
-0.057698
-0.06025
-0.050363
-0.024851
-0.038245
-0.059931
-0.024851
-0.04845
-0.055785
-0.060569
-0.050044
-0.037926
-0.019429
-0.016559
0.0032135
0.06572
0.10335
0.11898
0.12567
0.12759
0.13365
0.16681
0.17511
0.14385
0.148
0.11388
0.089957
0.061574
0.027132
0.016289
0.018202
-0.029953
-0.031229
-0.026764
-0.039839
-0.048769
-0.053871
-0.069817
-0.041434
-0.021024
-0.03378
-0.05132
-0.064395
-0.06312
-0.049088
-0.039839
-0.050044
-0.056423
-0.022937
-0.02198
-0.029953
-0.038245
-0.03091
-0.035694
-0.039202
0.0028946
0.024899
-0.0012513
-0.015602
-0.023575
-0.028996
-0.044942
-0.045899
-0.04558
-0.087038
-0.062163
-0.057061
-0.054828
-0.038883
-0.047493
-0.065671
-0.053234
-0.016878
-0.0060349
0.030959
0.023305
-0.017197
-0.011775
0.019797
0.059979
0.076882
0.082622
0.081346
0.096654
0.11706
0.12695
0.11515
0.11164
0.085492
0.06285
0.062212
0.076882
0.064763
0.092827
0.06285
0.059979
0.073693
0.052963
0.096973
0.11675
0.11515
0.12217
0.13684
0.14449
0.11005
0.10622
0.059979
0.048499
0.058385
-0.00029452
-0.042391
-0.056423
-0.071411
-0.10458
-0.15114
-0.12658
-0.11096
-0.10617
-0.067585
-0.098519
-0.12212
-0.092141
-0.089908
-0.11478
-0.078746
-0.053234
-0.066947
-0.078109
-0.06599
-0.084806
-0.092778
-0.084806
-0.074919
-0.064077
-0.054828
-0.018472
-0.021343
-0.027083
-0.038883
-0.017835
-0.016878
-0.02804
-0.013051
-0.021024
-0.026764
-0.012094
-0.015283
-0.023575
0.030321
0.048818
0.027132
0.031596
0.044034
0.07146
0.070185
0.059979
0.059342
0.047542
0.025856
0.042758
0.042758
0.028088
0.028407
0.016289
-0.0060349
0.012143
0.054239
0.018202
0.00098112
0.0067215
0.0099106
0.014694
0.026813
0.012462
0.031596
0.035742
0.010548
-0.009224
-0.041434
-0.017835
0.018202
0.059979
0.058704
0.05392
0.058704
0.079114
0.080071
0.081665
0.10431
0.10144
0.079433
0.065401
0.076882
0.041164
-0.0012513
0.00066221
-0.0028458
-0.0031647
-0.0034836
-0.0069916
-0.031867
-0.029953
-0.031229
-0.030272
-0.023256
0.0076782
-0.0044404
-0.054509
-0.065352
-0.023894
-0.032186
-0.052915
-0.059931
-0.033461
-0.06312
-0.058017
-0.021024
-0.013689
0.0051269
-0.0066727
-0.023256
-0.045261
-0.050363
-0.03378
-0.028359
-0.037926
-0.066947
-0.079065
-0.08353
-0.082892
-0.04845
-0.027402
-0.027721
-0.03378
-0.039202
-0.031229
-0.0105
0.0028946
0.01597
0.030959
-0.0038025
-0.020705
-0.024851
-0.03378
-0.051639
-0.026445
-0.045899
-0.066309
-0.044304
-0.021024
-0.0034836
0.025218
0.032553
0.039888
0.038294
0.086768
0.15884
0.12153
0.14449
0.16586
0.16968
0.17415
0.18563
0.20094
0.16522
0.15948
0.18244
0.18882
0.15214
0.12472
0.11132
0.15948
0.14513
0.043715
0.030321
0.036699
0.0022568
-0.031229
-0.041115
-0.051958
-0.093416
-0.085443
-0.080979
-0.088314
-0.11064
-0.14412
-0.13137
-0.12435
-0.12531
-0.12626
-0.16039
-0.18207
-0.1741
-0.18048
-0.17155
-0.14412
-0.15305
-0.12818
-0.091822
-0.084487
-0.055466
-0.033461
-0.012094
0.0095917
0.040207
0.056471
0.046585
0.062531
0.085173
0.068271
0.064763
0.048499
0.064125
0.10239
0.075287
0.072417
0.089957
0.041164
0.0070404
0.027132
0.038294
0.044353
0.074968
0.063806
0.034786
0.025856
0.016289
0.014694
-0.014645
-0.0085862
0.004808
0.0131
0.020754
0.022029
0.017246
0.022029
0.044034
0.014375
-0.021024
0.015651
0.008635
-0.023575
-0.024851
-0.038564
-0.057698
-0.052596
-0.06599
-0.061525
-0.02517
-0.017197
-0.041115
-0.031548
-0.02198
-0.029953
-0.016878
-0.0095429
-0.045261
-0.037607
-0.02804
-0.039839
-0.032823
-0.035694
-0.02804
-0.0050782
-0.0034836
0.027451
0.037656
0.050412
0.075925
0.10271
0.083579
0.091552
0.13907
0.11132
0.10048
0.086768
0.023943
0.037018
0.073374
0.0089539
0.0092728
-0.02517
-0.026126
-0.036012
-0.062163
-0.042072
-0.031548
-0.070455
-0.08927
-0.074919
-0.091503
-0.095011
-0.088952
-0.10298
-0.096605
-0.061525
-0.053552
-0.055147
-0.055147
-0.058974
-0.044304
-0.01337
0.028407
0.065082
0.084217
0.088044
0.049455
0.037656
0.070503
0.049774
0.027451
0.069547
0.042439
0.037975
0.032872
0.031915
0.036699
0.042758
0.036699
0.016927
0.039569
0.041483
0.046266
0.0060837
-0.0053971
-0.014964
-0.01911
-0.0038025
-0.011775
-0.034737
-0.040158
-0.022618
-0.014645
-0.020705
-0.0098618
0.0022568
0.015013
0.01597
0.01597
0.0073593
-0.010819
-0.010181
0.017883
0.017564
0.03351
0.0041702
-0.0053971
-0.036012
-0.0076295
0.023943
0.0070404
0.018202
0.019478
0.026175
0.030321
0.036061
0.0099106
-0.025488
-0.03665
-0.038245
-0.037607
-0.038883
-0.044304
-0.0038025
-0.027402
0.00066221
0.049774
0.024899
0.053282
0.089
0.096973
0.12121
0.1362
0.11834
0.096654
0.074649
0.06859
0.077838
0.020754
0.0035324
-0.036331
-0.033461
-0.034099
-0.045261
-0.082573
-0.1202
-0.1269
-0.11032
-0.11191
-0.073006
-0.073644
-0.095968
-0.088314
-0.080341
-0.088633
-0.075557
-0.047493
-0.056742
-0.023256
-0.014964
-0.029634
-0.0085862
-0.014008
-0.027402
0.025537
0.023624
-0.0053971
2.4388e-05
0.014056
0.0076782
0.011505
0.018521
0.020435
0.015013
0.0073593
0.030002
0.11483
0.09506
0.042758
0.078157
0.079752
0.089638
0.11228
0.065082
0.052007
0.063806
0.039888
0.044353
0.067314
0.024262
-0.011775
0.0003433
-0.027402
-0.00093234
0.0099106
0.012781
0.05392
0.0079971
-0.01624
-0.0105
-0.0066727
0.0032135
-0.011456
-0.039202
0.0022568
-0.017197
0.008316
-0.010819
0.0067215
0.023624
0.00098112
-0.026126
0.0022568
0.020116
0.017564
-0.01624
-0.046855
-0.023575
-0.00029452
-0.02517
-0.061844
-0.076833
-0.058017
-0.042391
-0.036969
0.0041702
-0.00029452
-0.002208
-0.013051
0.0060837
0.019159
0.020754
0.040526
0.017883
0.0041702
-0.014327
-0.038245
-0.050044
-0.013051
-0.030272
-0.041434
-0.016559
-0.038245
-0.018791
0.0044891
0.0016189
-0.014645
-0.005716
0.03351
0.030002
0.0025757
-0.016878
-0.018791
-0.027083
-0.03091
-0.021343
-0.035056
-0.049407
-0.035056
-0.043347
-0.03378
-0.017197
-0.0044404
-0.0105
0.004808
0.02171
-0.0066727
0.011505
-0.002208
0.019159
-0.035694
-0.027402
-0.00061343
0.010867
-0.013689
-0.012413
0.01023
0.00098112
0.012143
0.020116
0.011505
0.046266
0.069866
0.021391
-0.0050782
0.026175
0.028407
0.0054459
0.0035324
0.046585
0.015651
0.047542
0.02171
0.0032135
0.028726
0.031278
0.05105
0.065082
0.047542
0.019797
0.019797
0.030002
0.020754
0.057428
0.037018
0.004808
0.075287
0.054239
0.059661
0.066995
0.039569
0.07146
0.088044
0.074968
0.063487
0.046266
0.0073593
0.034148
0.027451
-0.010181
-0.056742
-0.053234
-0.05419
-0.06599
-0.070455
-0.085125
-0.081298
-0.097562
-0.088952
-0.072049
-0.053234
-0.059293
-0.038564
-0.040477
-0.073325
-0.049407
-0.031867
-0.020067
-0.019429
-0.013051
-0.030272
0.0028946
-0.0089051
-0.0028458
-0.00029452
0.014056
0.021391
0.012781
0.020435
0.0016189
-0.022937
-0.021024
0.0041702
-0.072368
-0.078427
-0.034418
-0.026445
-0.067585
-0.018791
0.025218
0.0131
0.072417
0.070503
0.023624
0.037018
0.083579
0.075606
0.088681
0.083579
0.057428
0.049455
0.03064
0.0025757
0.0095917
0.03638
0.014375
0.0016189
0.0099106
0.011824
-0.028678
-0.059293
-0.037288
-0.005716
-0.048131
-0.080979
-0.042072
-0.059293
-0.075238
-0.077471
-0.080022
-0.081298
-0.051639
-0.079703
-0.089908
-0.069498
-0.055147
-0.037288
-0.032504
-0.012732
-0.0098618
0.01023
0.014694
0.0035324
0.019797
0.013738
0.023624
0.03064
0.008635
0.030002
0.058066
0.069866
0.043715
0.028088
0.0003433
-0.023256
0.008635
-0.014645
-0.010181
0.017883
-0.022937
0.025218
0.055834
0.035423
0.042439
0.087725
0.10686
0.11993
0.12695
0.1464
0.16012
0.15214
0.14098
0.14034
0.098568
0.066039
0.014694
-0.021343
-0.005716
-0.038245
-0.073325
-0.093735
-0.10235
-0.10968
-0.12148
-0.10841
-0.12626
-0.099794
-0.10075
-0.054828
-0.030591
-0.064077
-0.061206
-0.052277
-0.053234
-0.04845
-0.061206
-0.037288
-0.025488
-0.034737
-0.014645
-0.014327
0.012781
0.018521
0.0079971
-0.034418
-0.025488
-0.02517
-0.029315
-0.031867
-0.068222
-0.0864
-0.0864
-0.087357
-0.091503
-0.078746
-0.10266
-0.10362
-0.094054
-0.066309
-0.023256
-0.044623
-0.03091
0.014375
-0.0069916
0.0028946
0.038294
0.059979
0.09793
0.10654
0.092508
0.10303
0.1193
0.14417
0.14226
0.12185
0.13173
0.15119
0.15757
0.15214
0.11675
0.093784
0.059023
0.0099106
0.0092728
0.040845
0.043077
0.056153
0.0057648
-0.024532
0.0025757
0.036699
0.029683
0.069547
0.052007
0.046904
0.080071
0.063806
0.075925
0.089957
0.076563
0.052007
0.024262
0.040526
0.034148
0.022667
-0.012094
0.0016189
-0.016878
-0.021343
-0.055466
-0.070774
-0.057698
-0.077152
-0.09533
-0.11606
-0.11415
-0.12403
-0.1387
-0.1556
-0.16326
-0.1623
-0.10649
-0.090227
-0.11
-0.11351
-0.094373
-0.069498
-0.056742
-0.031548
-0.083211
-0.040477
-0.027402
-0.03378
-0.020067
-0.0076295
-0.0063538
0.0070404
-0.0028458
0.0044891
0.028407
0.015013
0.018521
0.065082
0.069547
0.039888
0.059342
0.034148
0.019159
0.030321
0.040207
0.026494
0.0022568
0.0044891
0.014375
0.030002
0.037337
0.04818
0.026494
0.028726
0.030002
0.044991
0.056471
0.060617
0.031278
0.020116
0.021072
0.023305
0.00098112
-0.0012513
0.0076782
-0.011456
0.026175
0.043715
0.050412
0.0099106
0.0022568
0.01023
0.028726
0.024262
-0.0031647
0.027132
0.012143
-0.028359
-0.04558
-0.041753
-0.041115
-0.043347
-0.074282
-0.079065
-0.0034836
0.019478
0.032872
0.032234
0.017564
0.021072
0.031596
0.014375
0.018202
0.013419
0.0095917
0.043396
0.032234
0.011505
-0.010819
0.0067215
0.0064026
0.015013
0.0022568
-0.0044404
-0.012413
-0.0063538
0.0054459
-0.014645
-0.01624
-0.033142
-0.031867
-0.036331
-0.070455
-0.086081
-0.094692
-0.0982
-0.097881
-0.06312
-0.04845
-0.018791
-0.016559
-0.037607
-0.011137
0.00098112
-0.030272
-0.017197
-0.021343
-0.022299
-0.0034836
-0.0028458
-0.030591
-0.014645
-0.024532
-0.018791
-0.01624
-0.012094
0.0070404
0.0035324
0.011186
0.041483
0.079433
0.042758
0.017246
0.037337
0.067314
0.087087
0.092827
0.052963
0.042758
0.09506
0.10367
0.080071
0.069866
0.12855
0.10431
0.053601
0.037975
0.044034
0.019159
-0.011137
-0.0012513
-0.0044404
0.016608
-0.029634
-0.04845
-0.005716
-0.0069916
0.004808
0.038612
0.027132
0.033829
0.05679
0.06285
0.1008
0.065401
0.058066
0.051369
0.056153
0.064763
0.055196
0.054877
0.033829
-0.02517
-0.044304
-0.026445
-0.024213
-0.023256
-0.019748
-0.050363
-0.054509
-0.051958
-0.088314
-0.12563
-0.1269
-0.12531
-0.12084
-0.13456
-0.13774
-0.14349
-0.1336
-0.13934
-0.1403
-0.12722
-0.12403
-0.12084
-0.12052
-0.12626
-0.14763
-0.13902
-0.12371
-0.12084
-0.11733
-0.12722
-0.11287
-0.0982
-0.074282
-0.036969
-0.015921
-0.0053971
0.031278
0.043396
0.051688
0.07433
0.094422
0.065401
0.064763
0.065401
0.06285
0.059661
0.046904
0.046585
0.071779
0.088362
0.061574
0.051369
0.064763
0.091233
0.12025
0.1177
0.12344
0.11228
0.096335
0.14003
0.13875
0.11292
0.12249
0.14545
0.12057
0.11675
0.11866
0.11515
0.16363
0.15055
0.13684
0.1649
0.12536
0.14226
0.14449
0.11834
0.058704
0.035104
0.018521
-0.0031647
-0.038564
-0.072049
-0.086719
-0.084806
-0.095649
-0.11287
-0.11893
-0.14667
-0.191
-0.16804
-0.14699
-0.1674
-0.16453
-0.17888
-0.19324
-0.18016
-0.16485
-0.19068
-0.17538
-0.13328
-0.13073
-0.13009
-0.11861
-0.10298
-0.05132
-0.05132
-0.038564
-0.0031647
-0.010819
-0.02198
-0.024532
-0.01624
-0.0066727
0.0041702
0.017883
0.020754
0.026813
0.038612
0.064125
0.088681
0.056153
0.039569
0.070822
0.065401
0.058704
0.066358
0.063169
0.058385
0.03638
0.0131
0.0051269
0.0079971
-0.00029452
0.021072
0.046266
0.03638
0.044991
0.071779
0.083579
0.079114
0.10144
0.068271
0.080071
0.11419
0.10909
0.10686
0.11419
0.10654
0.075287
0.057109
0.024899
0.089957
0.11196
0.054877
0.035742
-0.010181
0.00098112
0.0099106
-0.052596
-0.040158
-0.05419
-0.095649
-0.10745
-0.10362
-0.10553
-0.13487
-0.095968
-0.075876
-0.091503
-0.082892
-0.074601
-0.088314
-0.076833
-0.061525
-0.067903
-0.063439
-0.069179
-0.087676
-0.084806
-0.091184
-0.07779
-0.073963
-0.09246
-0.085762
-0.071093
-0.073325
-0.022618
-0.038245
-0.044304
-0.021024
-0.009224
-0.020705
-0.029953
-0.031867
0.0038513
0.0038513
-0.011775
-0.0053971
0.0028946
0.050412
0.064763
0.069228
0.10303
0.11419
0.11164
0.13142
0.13779
0.13843
0.14736
0.15023
0.16522
0.14481
0.1362
0.13556
0.10208
0.10271
0.069228
0.096654
0.067633
0.080709
0.075287
0.03638
0.024899
0.03064
0.0044891
-0.0053971
-0.023575
-0.079384
-0.098838
-0.10713
-0.11446
-0.069817
-0.075876
-0.084487
-0.076833
-0.060569
-0.063758
-0.079703
-0.07779
-0.051958
-0.005716
-0.053234
-0.05132
-0.017197
-0.038564
-0.044942
-0.043028
-0.055466
-0.050682
-0.050044
-0.051001
-0.017516
-0.017516
-0.026126
-0.016559
-0.024213
-0.032504
-0.00029452
-0.0060349
-0.012094
-0.0063538
-0.0025269
