-0.040796
-0.045261
-0.043985
-0.041115
-0.03665
-0.02804
-0.029315
-0.022299
-0.017516
-0.021343
-0.01911
-0.0060349
-0.020386
-0.032823
-0.028359
-0.037288
-0.038245
-0.034099
-0.041434
-0.04845
-0.031229
-0.031229
-0.031229
-0.02804
-0.022618
-0.017835
-0.016559
-0.019748
-0.019748
-0.022937
-0.031548
-0.032823
-0.040796
-0.040477
-0.040158
-0.038564
-0.050682
-0.037607
-0.028359
-0.032823
-0.024851
-0.022618
-0.029953
-0.020386
-0.01337
-0.029315
-0.033461
-0.030591
-0.03952
-0.045261
-0.043985
-0.049407
-0.047493
-0.043985
-0.041434
-0.034418
-0.035375
-0.027083
-0.021343
-0.026764
-0.026445
-0.011775
-0.027721
-0.036012
-0.03378
-0.043666
-0.043985
-0.040158
-0.046218
-0.051639
-0.036012
-0.034418
-0.03665
-0.031867
-0.028678
-0.02517
-0.021343
-0.024532
-0.026445
-0.029953
-0.03665
-0.039202
-0.048769
-0.048769
-0.048769
-0.04845
-0.060569
-0.047174
-0.038245
-0.042391
-0.03378
-0.032823
-0.039839
-0.033142
-0.021024
-0.038564
-0.04271
-0.038564
-0.049407
-0.052277
-0.05132
-0.055785
-0.05419
-0.048769
-0.04558
-0.042072
-0.040796
-0.03378
-0.028678
-0.031229
-0.031867
-0.018791
-0.031229
-0.039839
-0.038564
-0.047493
-0.047493
-0.043028
-0.048131
-0.055147
-0.03952
-0.036012
-0.037926
-0.032823
-0.02804
-0.026764
-0.022299
-0.023894
-0.028359
-0.030591
-0.035056
-0.038564
-0.04558
-0.047174
-0.046218
-0.042072
-0.053234
-0.042072
-0.032504
-0.035694
-0.027083
-0.025488
-0.03091
-0.024851
-0.014008
-0.029634
-0.034418
-0.031229
-0.040477
-0.044623
-0.043347
-0.049407
-0.049726
-0.040477
-0.040796
-0.034418
-0.034737
-0.026445
-0.022299
-0.024851
-0.026126
-0.014645
-0.026764
-0.038883
-0.03665
-0.043347
-0.045261
-0.042072
-0.045261
-0.056104
-0.039202
-0.036331
-0.036969
-0.031867
-0.028678
-0.028359
-0.023894
-0.023256
-0.030272
-0.031229
-0.036331
-0.040158
-0.046855
-0.047812
-0.048769
-0.044942
-0.05419
-0.044942
-0.035375
-0.038564
-0.030272
-0.027083
-0.034099
-0.029953
-0.017197
-0.032823
-0.039202
-0.034737
-0.04558
-0.048131
-0.047174
-0.050682
-0.051639
-0.04271
-0.042391
-0.037607
-0.03665
-0.03091
-0.023575
-0.02517
-0.027721
-0.017516
-0.02804
-0.039202
-0.03665
-0.045899
-0.046855
-0.042391
-0.046218
-0.056742
-0.040477
-0.036012
-0.039202
-0.031867
-0.029953
-0.029315
-0.023575
-0.023894
-0.032823
-0.034418
-0.036969
-0.043028
-0.050044
-0.04845
-0.050044
-0.047493
-0.055147
-0.044942
-0.035375
-0.037607
-0.028996
-0.026445
-0.033461
-0.027402
-0.014327
-0.031229
-0.038245
-0.033142
-0.044623
-0.047174
-0.045261
-0.050044
-0.051639
-0.040796
-0.041115
-0.038245
-0.036969
-0.030591
-0.025488
-0.027721
-0.028678
-0.018153
-0.028996
-0.042072
-0.03952
-0.04845
-0.049726
-0.044942
-0.049407
-0.060569
-0.04271
-0.037926
-0.041115
-0.033461
-0.031548
-0.031229
-0.026126
-0.023575
-0.034099
-0.036331
-0.038564
-0.042072
-0.050363
-0.049726
-0.051958
-0.047174
-0.054828
-0.046218
-0.034737
-0.038564
-0.03091
-0.029953
-0.035694
-0.029634
-0.014645
-0.032504
-0.03952
-0.035694
-0.046218
-0.04845
-0.047493
-0.051639
-0.052915
-0.040477
-0.042391
-0.038245
-0.037607
-0.029953
-0.02517
-0.024532
-0.028996
-0.020386
-0.02804
-0.03952
-0.03952
-0.047812
-0.048769
-0.044304
-0.047493
-0.058336
-0.042391
-0.035694
-0.040796
-0.033461
-0.030272
-0.030591
-0.025807
-0.02198
-0.033142
-0.035694
-0.036012
-0.041753
-0.048131
-0.048131
-0.050363
-0.046855
-0.05132
-0.043028
-0.035056
-0.03665
-0.027721
-0.024851
-0.031229
-0.026445
-0.01337
-0.029315
-0.037607
-0.03378
-0.043347
-0.045899
-0.041753
-0.046855
-0.05132
-0.040158
-0.038883
-0.03665
-0.034418
-0.028359
-0.023575
-0.022937
-0.028359
-0.022618
-0.02804
-0.038883
-0.039202
-0.046855
-0.046218
-0.044942
-0.046536
-0.057061
-0.041434
-0.034099
-0.037926
-0.031229
-0.027721
-0.029634
-0.021661
-0.018153
-0.031229
-0.033142
-0.034099
-0.038883
-0.044942
-0.04271
-0.048131
-0.04271
-0.047493
-0.039202
-0.030272
-0.033142
-0.024851
-0.019748
-0.026126
-0.022937
-0.0095429
-0.02517
-0.033461
-0.028359
-0.038245
-0.039202
-0.037288
-0.043028
-0.048131
-0.033142
-0.033142
-0.031229
-0.028996
-0.024213
-0.018791
-0.018791
-0.022618
-0.018791
-0.026126
-0.035375
-0.035375
-0.043985
-0.044304
-0.043347
-0.045261
-0.056104
-0.04271
-0.034737
-0.037926
-0.029634
-0.028678
-0.031548
-0.02517
-0.018472
-0.03378
-0.037926
-0.03665
-0.043028
-0.047812
-0.046855
-0.051958
-0.048769
-0.050363
-0.044942
-0.036012
-0.039202
-0.028996
-0.023894
-0.030272
-0.028359
-0.012413
-0.028678
-0.038245
-0.032186
-0.044304
-0.044942
-0.04271
-0.047812
-0.051958
-0.036331
-0.034737
-0.03665
-0.033142
-0.028359
-0.021343
-0.021343
-0.023575
-0.021024
-0.025807
-0.035694
-0.035375
-0.043028
-0.041753
-0.039839
-0.041434
-0.052596
-0.036331
-0.02804
-0.032186
-0.024851
-0.021661
-0.025488
-0.01911
-0.011775
-0.026126
-0.029315
-0.027721
-0.034737
-0.039839
-0.039202
-0.04558
-0.040796
-0.040796
-0.036012
-0.028359
-0.029953
-0.020705
-0.017516
-0.021024
-0.021024
-0.0050782
-0.022937
-0.031867
-0.028678
-0.037926
-0.040158
-0.036969
-0.043028
-0.048131
-0.031229
-0.031867
-0.032186
-0.027721
-0.023894
-0.018791
-0.015921
-0.019748
-0.01911
-0.024532
-0.032823
-0.033461
-0.041434
-0.041753
-0.040796
-0.041434
-0.052277
-0.03952
-0.030272
-0.034099
-0.026126
-0.022937
-0.027083
-0.021343
-0.013689
-0.02804
-0.03091
-0.028678
-0.035375
-0.039839
-0.039839
-0.043985
-0.039202
-0.035694
-0.033461
-0.025807
-0.025807
-0.017197
-0.012732
-0.017197
-0.014645
-0.00061343
-0.014008
-0.026126
-0.022299
-0.031548
-0.034737
-0.028996
-0.033142
-0.039839
-0.022618
-0.023575
-0.024213
-0.017835
-0.012732
-0.010181
-0.0076295
-0.010181
-0.010819
-0.013051
-0.02198
-0.023256
-0.030272
-0.031867
-0.029953
-0.030591
-0.041434
-0.02804
-0.01911
-0.023575
-0.014964
-0.012732
-0.01911
-0.013051
-0.0038025
-0.021024
-0.02517
-0.021343
-0.03091
-0.036012
-0.034737
-0.039839
-0.03665
-0.032186
-0.03091
-0.022937
-0.024213
-0.014645
-0.010181
-0.014008
-0.013051
0.0003433
-0.01337
-0.023575
-0.020705
-0.029953
-0.031229
-0.025807
-0.032504
-0.038245
-0.022618
-0.020386
-0.022618
-0.016559
-0.013051
-0.0105
-0.0073105
-0.0076295
-0.012094
-0.014327
-0.021343
-0.024532
-0.032186
-0.032504
-0.031229
-0.030591
-0.041434
-0.028996
-0.017197
-0.021343
-0.012413
-0.011456
-0.016878
-0.011137
-0.00061343
-0.016878
-0.019748
-0.017197
-0.025488
-0.028996
-0.030591
-0.033142
-0.033142
-0.025807
-0.023575
-0.016878
-0.01911
-0.011456
-0.0050782
-0.0082673
-0.011137
0.0028946
-0.009224
-0.020386
-0.018791
-0.028996
-0.028996
-0.024851
-0.029315
-0.037288
-0.021024
-0.018153
-0.021024
-0.015283
-0.011456
-0.0095429
-0.0038025
-0.005716
-0.011775
-0.012094
-0.018153
-0.020386
-0.028996
-0.027721
-0.02804
-0.026126
-0.035375
-0.024213
-0.01337
-0.015283
-0.0069916
-0.0047593
-0.0098618
-0.0044404
0.0060837
-0.0098618
-0.01624
-0.010819
-0.020705
-0.024213
-0.021661
-0.030272
-0.027721
-0.01911
-0.017197
-0.013051
-0.013051
-0.005716
2.4388e-05
-0.0028458
-0.0034836
0.0089539
-0.0047593
-0.015283
-0.014327
-0.022299
-0.022937
-0.018153
-0.022937
-0.031548
-0.015602
-0.011775
-0.014964
-0.0098618
-0.0047593
-0.0025269
2.4388e-05
0.00098112
-0.0085862
-0.0098618
-0.013051
-0.017197
-0.024851
-0.024851
-0.027083
-0.024213
-0.032823
-0.02198
-0.012094
-0.01624
-0.0069916
-0.0041214
-0.011456
-0.0063538
0.0067215
-0.010181
-0.017516
-0.012732
-0.021343
-0.024213
-0.02517
-0.03091
-0.028996
-0.018472
-0.01911
-0.015283
-0.01337
-0.0073105
-0.0025269
-0.0034836
-0.005716
0.004808
-0.0047593
-0.017197
-0.01624
-0.024213
-0.024851
-0.020386
-0.025488
-0.035056
-0.019429
-0.012094
-0.017516
-0.010819
-0.0076295
-0.0069916
-0.0018891
-0.0012513
-0.0085862
-0.010819
-0.014645
-0.01911
-0.02804
-0.026126
-0.029634
-0.024532
-0.033142
-0.02198
-0.012413
-0.016878
-0.009224
-0.0044404
-0.0095429
-0.0069916
0.0051269
-0.012094
-0.01624
-0.011456
-0.02198
-0.026445
-0.02517
-0.029953
-0.032186
-0.020067
-0.019429
-0.017197
-0.015602
-0.0089051
-0.0018891
-0.0044404
-0.0066727
0.0032135
-0.0079484
-0.019429
-0.016878
-0.02517
-0.026126
-0.02198
-0.02517
-0.034737
-0.017835
-0.013051
-0.01624
-0.009224
-0.0066727
-0.0073105
-0.0015702
0.0016189
-0.0089051
-0.012094
-0.01337
-0.018472
-0.026445
-0.024851
-0.028996
-0.023256
-0.031867
-0.022618
-0.012413
-0.01624
-0.009224
-0.0044404
-0.013051
-0.0089051
0.0073593
-0.011775
-0.020386
-0.014645
-0.025488
-0.029315
-0.026764
-0.032504
-0.032823
-0.021024
-0.020386
-0.018153
-0.018153
-0.011456
-0.0050782
-0.005716
-0.009224
-0.0015702
-0.012094
-0.022299
-0.023256
-0.031548
-0.034737
-0.029634
-0.034737
-0.045261
-0.031229
-0.026126
-0.028996
-0.023575
-0.021024
-0.022618
-0.018153
-0.014327
-0.026764
-0.029953
-0.031867
-0.038883
-0.04271
-0.044304
-0.049726
-0.044623
-0.050044
-0.043028
-0.034418
-0.03665
-0.028359
-0.024851
-0.031229
-0.027721
-0.012413
-0.03091
-0.040158
-0.035694
-0.04558
-0.049088
-0.047174
-0.052277
-0.055147
-0.040796
-0.040158
-0.037607
-0.035056
-0.028678
-0.022618
-0.023894
-0.026126
-0.019429
-0.026764
-0.035694
-0.03665
-0.044623
-0.044942
-0.041115
-0.043347
-0.053871
-0.037607
-0.03091
-0.033142
-0.025488
-0.022299
-0.023256
-0.017197
-0.012094
-0.027402
-0.026445
-0.027083
-0.035375
-0.039839
-0.039839
-0.043347
-0.039202
-0.040477
-0.034737
-0.024851
-0.026764
-0.016559
-0.012094
-0.018791
-0.014645
-0.00061343
-0.015921
-0.024213
-0.018791
-0.02804
-0.031867
-0.02804
-0.033142
-0.036969
-0.019748
-0.018791
-0.017516
-0.015283
-0.0089051
-0.0028458
-0.00029452
-0.0047593
-0.00061343
-0.0079484
-0.016878
-0.016559
-0.025807
-0.025488
-0.023256
-0.026126
-0.03665
-0.020386
-0.012413
-0.016559
-0.0082673
-0.0069916
-0.0082673
-0.00061343
0.0038513
-0.010819
-0.013689
-0.012094
-0.020705
-0.026764
-0.027721
-0.03091
-0.025488
-0.027402
-0.02198
-0.013689
-0.015921
-0.0069916
-0.0018891
-0.009224
-0.0063538
0.0095917
-0.0073105
-0.016878
-0.012094
-0.023575
-0.026126
-0.021024
-0.030272
-0.032504
-0.015283
-0.016878
-0.017835
-0.014327
-0.0079484
-0.0031647
-0.0025269
-0.0044404
-0.0038025
-0.0105
-0.018153
-0.01911
-0.028678
-0.028996
-0.027402
-0.026126
-0.037288
-0.021343
-0.014008
-0.017197
-0.010181
-0.0063538
-0.0098618
-0.0041214
0.0044891
-0.012094
-0.014645
-0.012413
-0.020705
-0.026126
-0.025488
-0.031229
-0.027721
-0.024213
-0.021024
-0.012732
-0.013689
-0.0060349
-0.00061343
-0.0069916
-0.0038025
0.01023
-0.0076295
-0.015921
-0.012732
-0.024213
-0.027083
-0.022937
-0.030272
-0.034099
-0.016559
-0.016878
-0.018153
-0.013689
-0.0089051
-0.0034836
-0.0018891
-0.0044404
-0.005716
-0.0095429
-0.018153
-0.019748
-0.027721
-0.028359
-0.024851
-0.02517
-0.035375
-0.020705
-0.010819
-0.014964
-0.0050782
-0.002208
-0.0073105
0.0022568
0.011824
-0.0063538
-0.010819
-0.0076295
-0.015921
-0.019429
-0.020067
-0.027083
-0.022299
-0.018791
-0.015921
-0.0095429
-0.011456
-0.0031647
0.00066221
-0.0044404
-0.002208
0.010867
-0.0050782
-0.015283
-0.012094
-0.022299
-0.027083
-0.022299
-0.027721
-0.032823
-0.01624
-0.012732
-0.016878
-0.012413
-0.0063538
-0.00093234
0.0019378
-0.0018891
-0.0047593
-0.0063538
-0.014964
-0.01624
-0.025488
-0.02517
-0.023575
-0.023575
-0.035694
-0.020386
-0.0098618
-0.015602
-0.0073105
-0.0050782
-0.009224
-0.0028458
0.0079971
-0.012413
-0.014645
-0.0105
-0.020705
-0.024851
-0.026126
-0.032504
-0.027402
-0.019748
-0.020705
-0.013689
-0.013689
-0.0044404
0.0019378
-0.00061343
2.4388e-05
0.014375
-0.0018891
-0.012094
-0.0085862
-0.018153
-0.018472
-0.014327
-0.018153
-0.026445
-0.0069916
-0.0044404
-0.0066727
-0.0015702
0.0028946
0.0076782
0.0131
0.008635
0.0051269
0.0028946
-0.0031647
-0.0047593
-0.014327
-0.013689
-0.012094
-0.012094
-0.021343
-0.0066727
0.0032135
-0.00061343
0.008316
0.011186
0.0079971
0.015332
0.027132
0.0079971
0.0028946
0.0099106
-0.002208
-0.0069916
-0.0069916
-0.011775
-0.0085862
0.0016189
0.0016189
0.0073593
0.008316
0.015651
0.023305
0.019478
0.019478
0.034148
0.019159
0.008316
0.012462
0.0025757
0.00066221
0.0060837
0.00098112
-0.0060349
0.013419
0.016927
0.013419
0.021391
0.025218
0.030002
0.033829
0.03351
0.026494
0.025218
0.020435
0.017883
0.0099106
0.008316
0.0067215
0.0092728
2.4388e-05
0.012143
0.022667
0.01597
0.027132
0.029683
0.022986
0.030002
0.042121
0.022348
0.016927
0.02171
0.010867
0.0067215
0.0070404
0.0003433
0.0019378
0.011824
0.010548
0.01597
0.01597
0.025537
0.029045
0.025218
0.024899
0.037018
0.024899
0.011824
0.013419
0.004808
0.0038513
0.0070404
0.0003433
-0.0085862
0.0089539
0.014375
0.0092728
0.014694
0.017564
0.018521
0.023943
0.022986
0.013419
0.010867
0.0060837
0.00098112
-0.0089051
-0.0095429
-0.012732
-0.0098618
-0.019429
-0.009224
0.00098112
-0.0047593
0.0025757
0.004808
-0.0018891
0.0041702
0.015013
-0.0047593
-0.010819
-0.005716
-0.020067
-0.022618
-0.021343
-0.028996
-0.030272
-0.019748
-0.019748
-0.01624
-0.016559
-0.010181
-0.0034836
-0.0076295
-0.0098618
2.4388e-05
-0.012094
-0.023256
-0.022937
-0.033461
-0.035056
-0.030591
-0.03665
-0.04558
-0.02804
-0.02517
-0.029315
-0.022618
-0.019748
-0.016878
-0.011775
-0.011775
-0.021661
-0.022299
-0.025807
-0.029953
-0.039202
-0.036012
-0.039202
-0.03665
-0.04271
-0.032186
-0.022937
-0.027083
-0.01624
-0.011775
-0.018153
-0.011775
0.0016189
-0.017197
-0.023256
-0.017197
-0.02804
-0.031229
-0.028359
-0.034737
-0.034099
-0.021661
-0.021024
-0.017516
-0.017197
-0.0085862
-0.00093234
-0.0028458
-0.0041214
0.004808
-0.0044404
-0.015921
-0.01337
-0.02198
-0.023575
-0.018153
-0.02198
-0.030591
-0.013051
-0.0076295
-0.012094
-0.0034836
0.0016189
0.0041702
0.0092728
0.012462
0.00098112
0.0013
-0.00061343
-0.0050782
-0.010181
-0.010181
-0.012413
-0.009224
-0.014008
-0.0018891
0.0079971
0.004808
0.014694
0.018202
0.013419
0.021072
0.034148
0.015013
0.008635
0.016289
0.0044891
0.0022568
0.0057648
-0.00061343
-0.0012513
0.014694
0.015332
0.016289
0.020435
0.027132
0.033191
0.032553
0.030959
0.038612
0.028726
0.017246
0.017883
0.0095917
0.0070404
0.011505
0.0079971
-0.0018891
0.014375
0.020754
0.01597
0.023943
0.028088
0.027132
0.03351
0.037975
0.022986
0.022029
0.022348
0.016289
0.0089539
0.0092728
0.0044891
0.010867
0.0067215
0.015013
0.025537
0.020754
0.031915
0.036061
0.03064
0.035104
0.049455
0.032234
0.020754
0.02777
0.016608
0.013419
0.01597
0.0099106
0.0060837
0.02171
0.02171
0.022348
0.022986
0.030002
0.035742
0.035423
0.032234
0.037018
0.029045
0.016289
0.016289
0.0067215
0.0057648
0.0073593
0.0028946
-0.0079484
0.0079971
0.013738
0.0079971
0.015651
0.01884
0.01597
0.022986
0.027132
0.0089539
0.008635
0.008635
-0.00029452
-0.0063538
-0.0073105
-0.011775
-0.0076295
-0.011137
-0.0034836
0.0044891
2.4388e-05
0.010867
0.013419
0.0070404
0.010867
0.024262
0.0057648
-0.0038025
0.0003433
-0.010819
-0.012413
-0.013689
-0.01911
-0.022618
-0.0066727
-0.0076295
-0.0076295
-0.005716
0.0016189
0.0070404
0.008635
0.0041702
0.0067215
0.0013
-0.0098618
-0.010181
-0.018472
-0.01911
-0.017835
-0.018791
-0.030272
-0.014645
-0.0060349
-0.010819
-0.002208
-0.0012513
-0.0025269
0.0038513
0.0099106
-0.0063538
-0.0089051
-0.0073105
-0.014327
-0.021661
-0.020386
-0.02517
-0.022299
-0.022299
-0.016559
-0.0085862
-0.010181
0.00066221
0.0044891
-0.0015702
0.0028946
0.017246
2.4388e-05
-0.010181
-0.0047593
-0.016878
-0.018472
-0.014645
-0.02198
-0.025488
-0.0076295
-0.0076295
-0.0076295
-0.0047593
0.0016189
0.0067215
0.0092728
0.0070404
0.008316
0.0051269
-0.005716
-0.0069916
-0.015921
-0.015602
-0.012732
-0.012413
-0.025488
-0.0095429
-0.00029452
-0.0041214
0.0044891
0.0079971
0.0051269
0.012143
0.01884
0.0035324
0.0003433
0.0038513
-0.0050782
-0.010181
-0.0095429
-0.014008
-0.0098618
-0.0076295
-0.002208
0.0067215
0.0025757
0.013738
0.020754
0.0131
0.016608
0.031278
0.014694
0.0038513
0.0079971
-0.002208
-0.0060349
-0.0028458
-0.0076295
-0.014008
0.0041702
0.0025757
0.0019378
0.0051269
0.011505
0.015013
0.016608
0.0131
0.011824
0.0060837
-0.00093234
-0.0034836
-0.012413
-0.014008
-0.013051
-0.013689
-0.025488
-0.0098618
-0.0018891
-0.0073105
0.0013
0.0041702
0.0003433
0.0057648
0.016289
-0.0031647
-0.0066727
-0.0034836
-0.012413
-0.016559
-0.018472
-0.023894
-0.021343
-0.016878
-0.01337
-0.0066727
-0.009224
0.0003433
0.0067215
-0.00029452
0.0025757
0.018521
0.0013
-0.0095429
-0.0034836
-0.014645
-0.01624
-0.012732
-0.019429
-0.02517
-0.0041214
-0.0038025
-0.005716
-0.00061343
0.0060837
0.010548
0.013738
0.011824
0.0099106
0.0060837
-0.00061343
-0.0028458
-0.011456
-0.011775
-0.010181
-0.0105
-0.021024
-0.0063538
0.0032135
-0.0012513
0.0070404
0.011824
0.0054459
0.014375
0.02171
0.004808
0.0003433
0.0051269
-0.0038025
-0.0105
-0.0105
-0.015283
-0.014008
-0.0079484
-0.0060349
-0.00029452
-0.0018891
0.0060837
0.012143
0.0070404
0.0089539
0.023943
0.0057648
-0.005716
-0.00093234
-0.013689
-0.014327
-0.012413
-0.016878
-0.025807
-0.005716
-0.0044404
-0.0076295
-0.0031647
0.0019378
0.0057648
0.0092728
0.0076782
0.0022568
2.4388e-05
-0.0073105
-0.0095429
-0.019429
-0.018791
-0.017835
-0.016878
-0.027083
-0.014008
-0.0028458
-0.0082673
0.0022568
0.0057648
-0.0018891
0.0057648
0.017883
-0.0025269
-0.0060349
-0.0018891
-0.012732
-0.017197
-0.017197
-0.02198
-0.022299
-0.012094
-0.011775
-0.0063538
-0.005716
0.0028946
0.0079971
0.0044891
0.0057648
0.01884
0.0044891
-0.0066727
-0.0044404
-0.012732
-0.015921
-0.0105
-0.016878
-0.02517
-0.0060349
-0.0018891
-0.0060349
-0.00029452
0.0032135
0.008635
0.0131
0.011505
0.0044891
0.0044891
-0.00061343
-0.0047593
-0.011456
-0.011137
-0.013051
-0.012094
-0.024213
-0.0085862
0.0051269
0.0003433
0.011824
0.015332
0.008635
0.016608
0.030002
0.010867
-0.0012513
0.0003433
-0.0089051
-0.0060349
-0.0076295
-0.01337
-0.01337
-0.0076295
-0.0098618
-0.0060349
-0.0069916
0.0013
0.0067215
0.0041702
0.0038513
0.015332
0.0025757
-0.009224
-0.0060349
-0.015921
-0.017197
-0.011775
-0.015283
-0.02517
-0.0047593
-0.0025269
-0.0063538
0.0016189
0.0079971
0.0089539
0.014056
0.015332
0.004808
0.0044891
0.00066221
-0.0028458
-0.0098618
-0.011137
-0.012732
-0.0095429
-0.018472
-0.005716
0.0041702
2.4388e-05
0.0095917
0.012462
0.0057648
0.011824
0.026175
0.0060837
-0.00029452
0.0057648
-0.0060349
-0.0098618
-0.0098618
-0.015921
-0.01624
-0.0044404
-0.0050782
-0.0012513
-0.0018891
0.0076782
0.013419
0.011505
0.01023
0.018521
0.0076782
-0.0041214
-0.0034836
-0.012094
-0.013689
-0.0105
-0.014327
-0.022618
-0.0038025
0.0019378
-0.005716
0.0025757
0.0060837
0.008635
0.015013
0.016927
0.0067215
0.0067215
0.0035324
-0.00061343
-0.0079484
-0.011456
-0.014008
-0.011137
-0.015283
-0.0047593
0.0051269
-0.00029452
0.0079971
0.012781
0.0044891
0.0079971
0.020754
0.0044891
-0.0031647
0.0016189
-0.0095429
-0.013051
-0.012732
-0.018153
-0.017516
-0.0044404
-0.0041214
-0.0031647
-0.0025269
0.0054459
0.0131
0.011824
0.0089539
0.016289
0.0064026
-0.0041214
-0.0025269
-0.012413
-0.012094
-0.0085862
-0.018791
-0.029953
-0.0095429
-0.0012513
-0.0066727
0.0013
0.0022568
0.00066221
0.0067215
0.01023
-0.0028458
-0.0041214
-0.0069916
-0.012094
-0.018472
-0.017197
-0.020705
-0.015921
-0.02198
-0.012094
-0.00093234
-0.0041214
0.008635
0.011505
0.0028946
0.0079971
0.023943
0.0054459
-0.0012513
0.0044891
-0.0076295
-0.011775
-0.0095429
-0.01624
-0.018472
-0.0050782
-0.0047593
-0.0034836
-0.0015702
0.0057648
0.011186
0.010867
0.008635
0.015332
0.0060837
-0.005716
-0.0044404
-0.014008
-0.014327
-0.010181
-0.012413
-0.023575
-0.0050782
0.00066221
-0.0041214
0.0044891
0.0070404
0.0073593
0.013738
0.017246
0.0028946
0.00098112
0.0028946
-0.005716
-0.012094
-0.012094
-0.01624
-0.012732
-0.01624
-0.0076295
0.0025757
-0.0015702
0.008635
0.013738
0.0060837
0.01023
0.025218
0.0073593
-0.00061343
0.0060837
-0.0069916
-0.0089051
-0.0076295
-0.01337
-0.015921
0.0013
0.0013
0.00098112
0.0032135
0.0089539
0.015013
0.016927
0.013738
0.017246
0.0076782
-0.0018891
-0.0015702
-0.012413
-0.012094
-0.0089051
-0.011456
-0.022937
-0.0047593
0.0032135
-0.0025269
0.0044891
0.0070404
0.008635
0.015651
0.020754
0.004808
0.0019378
0.0044891
-0.0041214
-0.010819
-0.011456
-0.015602
-0.010181
-0.013051
-0.005716
0.0032135
-0.00061343
0.012143
0.016608
0.008635
0.013419
0.028726
0.010867
0.0019378
0.0057648
-0.0031647
-0.0060349
-0.0041214
-0.0098618
-0.01337
0.0028946
0.0057648
0.0028946
0.0073593
0.012781
0.020754
0.022029
0.017883
0.021391
0.015332
0.0057648
0.0051269
-0.0034836
-0.002208
0.0019378
-0.0028458
-0.010819
0.0054459
0.010867
0.0076782
0.015013
0.017883
0.011186
0.021072
0.02777
0.010867
0.0070404
0.0054459
-0.0044404
-0.012094
-0.013051
-0.01911
-0.014645
-0.015283
-0.010181
-0.0031647
-0.0063538
0.0022568
0.0076782
0.0003433
0.0038513
0.018202
-0.00093234
-0.0105
-0.0047593
-0.014964
-0.019429
-0.016878
-0.022937
-0.027083
-0.0089051
-0.0098618
-0.011456
-0.0076295
-0.0012513
0.0041702
0.0070404
0.0032135
0.004808
-0.0018891
-0.0098618
-0.0105
-0.019748
-0.019429
-0.017197
-0.018472
-0.028678
-0.010819
-0.0041214
-0.012094
-0.00061343
0.0038513
2.4388e-05
0.0060837
0.013738
-0.0047593
-0.0085862
-0.0044404
-0.016559
-0.01911
-0.022618
-0.028359
-0.028996
-0.023894
-0.021024
-0.012094
-0.017516
-0.0098618
-0.00061343
-0.0050782
-0.0044404
0.01023
-0.0034836
-0.016878
-0.012413
-0.022937
-0.02517
-0.02517
-0.033142
-0.039839
-0.018791
-0.018472
-0.019429
-0.018472
-0.011775
-0.0041214
0.0079971
0.008316
0.0044891
-0.00093234
-0.0028458
0.0057648
0.0019378
-0.0012513
0.0051269
0.008635
0.004808
0.022029
0.033829
0.027132
0.041164
0.03925
0.039888
0.043077
0.057109
0.041483
0.034148
0.034786
0.018521
0.016927
0.010548
0.0070404
0.012462
0.012781
0.011824
0.0131
0.0095917
0.019159
0.02171
0.013738
0.015013
0.025218
0.0025757
-0.0076295
0.0022568
-0.0085862
-0.010819
-0.009224
-0.01911
-0.026764
-0.0050782
-0.0069916
-0.014645
-0.010181
-0.005716
0.0003433
0.0022568
-0.014008
-0.026126
-0.045899
-0.055466
-0.059612
-0.074282
-0.085443
-0.098519
-0.10394
-0.13041
-0.13073
-0.11829
-0.12913
-0.13073
-0.12722
-0.12595
-0.11733
-0.12371
-0.14253
-0.14508
-0.13519
-0.12754
-0.1218
-0.11128
-0.10872
-0.096605
-0.076514
-0.058655
-0.036331
-0.02198
0.0095917
0.038612
0.060298
0.082303
0.10718
0.10431
0.1059
0.12217
0.12536
0.14258
0.16394
0.16331
0.14577
0.15661
0.148
0.16363
0.18563
0.16267
0.16426
0.16203
0.15119
0.13652
0.11643
0.10622
0.10909
0.083898
0.077201
0.069228
0.050093
0.016927
0.019478
0.028726
0.019159
0.017246
0.016927
0.0003433
-0.012094
-0.0018891
-0.04845
-0.055147
-0.048769
-0.058974
-0.08066
-0.088314
-0.10043
-0.10904
-0.10777
-0.12977
-0.15815
-0.13456
-0.14125
-0.18016
-0.19611
-0.22226
-0.21365
-0.2449
-0.26914
-0.28094
-0.29848
-0.30103
-0.29784
-0.28221
-0.2854
-0.25734
-0.23469
-0.21492
-0.19292
-0.16166
-0.13774
-0.10936
-0.061206
-0.037607
-0.03665
-0.030591
-0.010819
-0.0044404
0.011186
0.031915
0.040845
0.04531
0.051369
0.056471
0.058066
0.10495
0.12057
0.11451
0.15055
0.18212
0.17606
0.17128
0.19105
0.18085
0.19807
0.21274
0.20859
0.20636
0.22964
0.22358
0.20604
0.19009
0.19743
0.19839
0.17542
0.17319
0.19041
0.14162
0.11834
0.13014
0.10303
0.096335
0.095378
0.094103
0.074012
0.092508
0.098568
0.092189
0.11292
0.081984
0.069228
0.064125
0.052963
0.0054459
-0.041434
-0.073006
-0.08353
-0.12882
-0.18494
-0.22385
-0.26627
-0.33547
-0.35141
-0.35237
-0.38618
-0.37661
-0.368
-0.38012
-0.33802
-0.32973
-0.34663
-0.31474
-0.24777
-0.2382
-0.25128
-0.23852
-0.21524
-0.18941
-0.15528
-0.13902
-0.11064
-0.11096
-0.093416
-0.1049
-0.099794
-0.11128
-0.093416
-0.10649
-0.093416
-0.070455
-0.03665
-0.029634
-0.01337
0.034467
0.054558
0.062212
0.045947
0.077201
0.1008
0.1075
0.13333
0.15597
0.16713
0.15214
0.15565
0.16745
0.17
0.15438
0.15884
0.14226
0.12695
0.11802
0.12855
0.14258
0.15055
0.13269
0.1346
0.13078
0.11962
0.11898
0.088681
0.033829
0.0003433
0.019478
-0.081935
-0.082573
-0.08927
-0.1167
-0.094054
-0.11191
-0.14827
-0.19483
-0.17314
-0.18048
-0.14986
-0.11893
-0.17857
-0.17984
-0.12945
-0.11478
-0.10266
-0.13487
-0.13551
-0.073963
-0.10777
-0.12052
-0.11191
-0.11383
-0.132
-0.11191
-0.19483
-0.17219
-0.1556
-0.21652
-0.27392
-0.23693
-0.22608
-0.26053
-0.24522
-0.20472
-0.22927
-0.21078
-0.17601
-0.11765
-0.13392
-0.14795
-0.091503
-0.077471
-0.031229
-0.02198
-0.056104
-0.051639
-0.032823
-0.032823
-0.035375
-0.00029452
-0.029953
-0.022299
0.012462
0.0025757
0.040526
0.046585
0.048499
0.058385
0.082941
0.077201
0.080071
0.059979
0.067314
0.092508
0.090276
0.069228
0.072736
0.059342
0.042758
0.078157
0.075925
0.044353
0.052645
0.059023
0.057109
0.058704
0.060936
0.0092728
-0.0089051
-0.044304
-0.073325
-0.062801
-0.098838
-0.13041
-0.10458
-0.13137
-0.15847
-0.16326
-0.18016
-0.19036
-0.17442
-0.16358
-0.15497
-0.11638
-0.10139
-0.13806
-0.12148
-0.17027
-0.15784
-0.14636
-0.094054
-0.084168
-0.09533
-0.090865
-0.064077
-0.035375
-0.026445
-0.016878
-0.072049
-0.088633
-0.091503
-0.1167
-0.080979
-0.0050782
-0.00061343
-0.080979
-0.088633
-0.11319
-0.040158
-0.011456
0.0099106
-0.021343
0.06285
0.11228
0.072417
0.05392
0.096335
0.13492
0.12344
0.13875
0.14991
0.148
0.14417
0.087087
0.081984
0.07752
0.023305
0.0003433
0.014694
-0.0031647
-0.049088
-0.084168
-0.1336
-0.097243
-0.13487
-0.15018
-0.14253
-0.15178
-0.16581
-0.1521
-0.12212
-0.1403
-0.10107
-0.099476
-0.070774
-0.052277
-0.03091
-0.024213
-0.062801
-0.080979
-0.088633
-0.1049
-0.13519
-0.14285
-0.18622
-0.20312
-0.19451
-0.22895
-0.27201
-0.24713
-0.2516
-0.2162
-0.20567
-0.16708
-0.12913
-0.16708
-0.13264
-0.10617
-0.036331
-0.0085862
-0.021343
0.040845
0.070185
0.064763
0.148
0.14545
0.12185
0.148
0.17798
0.14832
0.16139
0.21656
0.22549
0.18085
0.15501
0.19424
0.20381
0.15661
0.13142
0.13173
0.14481
0.10718
0.10399
0.093465
0.073055
0.049137
0.014056
0.037975
0.046904
-0.048769
-0.11446
-0.14795
-0.12052
-0.15784
-0.21492
-0.21843
-0.24426
-0.27073
-0.29497
-0.24809
-0.23437
-0.23788
-0.22162
-0.20376
-0.1741
-0.17123
-0.14604
-0.13456
-0.13934
-0.12658
-0.11574
-0.0982
-0.050044
-0.04845
-0.071093
-0.057698
-0.043985
-0.037926
-0.017835
-0.0018891
-0.0079484
-0.043985
-0.044942
0.027132
0.0003433
-0.078427
-0.035694
-0.0105
-0.0095429
0.015651
0.0038513
-0.0041214
-0.0069916
0.066039
0.088044
0.082303
0.066358
0.11005
0.095697
0.079433
0.089638
0.090276
0.045947
0.037975
0.024262
0.029364
0.03638
-0.017197
-0.09533
-0.028678
-0.054828
-0.018153
0.0035324
-0.023894
-0.058336
-0.06312
-0.028359
-0.048131
-0.10139
-0.15082
-0.13711
-0.11032
-0.10266
-0.10075
-0.19834
-0.26658
-0.26308
-0.23597
-0.21014
-0.19483
-0.21428
-0.23406
-0.20854
-0.1859
-0.20631
-0.18462
-0.13998
-0.13296
-0.095968
-0.095968
-0.05132
-0.053552
-0.027402
0.019797
0.029683
0.05392
0.082303
0.10654
0.11834
0.083579
0.085811
0.080071
0.06285
0.085811
0.064125
0.036699
0.032553
0.030002
0.0067215
0.0054459
-0.0073105
-0.062163
-0.074282
-0.04845
-0.077471
-0.058017
-0.019748
-0.018153
-0.046218
-0.040796
-0.0073105
0.08613
0.11005
0.1126
0.11962
0.12153
0.16554
0.22422
0.26057
0.19201
0.21465
0.23984
0.23219
0.27237
0.27397
0.22709
0.13046
0.0028946
0.0092728
0.032553
-0.0063538
-0.080022
-0.082892
-0.047174
-0.10522
-0.19579
-0.19355
-0.19642
-0.17601
-0.1623
-0.17888
-0.14859
-0.19036
-0.18941
-0.17825
-0.17761
-0.18686
-0.13806
-0.13551
-0.1387
-0.14699
-0.169
-0.16549
-0.169
-0.21907
-0.24139
-0.21779
-0.24873
-0.24171
-0.21779
-0.20312
-0.20918
-0.19036
-0.18112
-0.12626
-0.081617
-0.069179
-0.023256
0.025856
0.058066
0.078157
0.082941
0.056471
0.074649
0.088362
0.097611
0.071779
0.037337
0.017564
0.021391
0.0003433
-0.0018891
0.04531
0.063487
0.11483
0.090914
0.038612
0.088044
0.10909
0.11037
0.089957
0.11675
0.20987
0.22805
0.23251
0.26057
0.24654
0.26855
0.20413
0.15852
0.19296
0.2121
0.22358
0.20317
0.15629
0.11483
0.023624
0.010867
-0.063439
-0.12658
-0.11446
-0.14125
-0.25319
-0.32239
-0.32845
-0.29497
-0.30772
-0.33164
-0.32367
-0.29401
-0.28285
-0.22002
-0.169
-0.20376
-0.23055
-0.191
-0.1792
-0.17825
-0.10936
-0.012413
-0.03665
-0.098838
-0.016559
0.037656
0.010548
-0.015602
0.0035324
-0.0069916
0.032553
0.033829
0.029683
0.063169
0.045629
0.020116
0.025537
0.021391
-0.0028458
0.0035324
0.0035324
0.004808
0.027132
0.030321
0.036699
0.040845
0.031278
0.023943
0.031915
0.044034
0.035104
0.032872
0.014694
-0.0073105
-0.0044404
0.019797
0.037975
0.032234
0.028407
0.030002
0.036699
0.053282
0.050412
0.066677
0.071141
0.080709
0.062212
0.038931
0.0095917
-0.032504
-0.012094
-0.023256
-0.043985
-0.066309
-0.045899
-0.10362
-0.13009
-0.12754
-0.06599
-0.030591
-0.066628
-0.14157
-0.13711
-0.097562
-0.03091
-0.0079484
-0.0028458
-0.0034836
0.017883
0.01597
0.02458
0.045947
0.059023
0.042439
0.065082
0.079433
0.021072
-0.00093234
-0.0015702
-0.050682
-0.064077
-0.077471
-0.10777
-0.086719
-0.099157
-0.1623
-0.11925
-0.087357
-0.093097
-0.11478
-0.10553
-0.073325
-0.033461
-0.034418
-0.053234
-0.036969
-0.0044404
-0.0041214
-0.023894
-0.035694
-0.042072
-0.032823
0.0028946
-0.0073105
0.014375
0.014694
0.040845
0.056471
0.047861
0.047542
0.066677
0.081984
0.039569
0.05679
0.070822
0.019797
0.008635
0.022986
0.029045
-0.011775
-0.033461
-0.0041214
0.024262
2.4388e-05
-0.0076295
-0.0105
0.00098112
0.012781
0.010548
-0.0095429
-0.00093234
0.024262
0.004808
-0.005716
-0.0038025
-0.009224
-0.0063538
0.020754
0.045629
0.045629
0.035742
0.057109
0.081028
0.10399
0.033829
0.044991
0.067952
0.036061
0.021391
0.019478
0.0013
-0.052915
-0.068541
-0.066309
-0.050044
-0.081935
-0.10203
-0.13105
-0.17282
-0.16995
-0.15879
-0.15465
-0.16039
-0.1572
-0.15305
-0.12626
-0.094692
-0.090865
-0.076195
-0.087995
-0.086719
-0.049726
-0.020386
0.011186
0.05679
0.060617
0.032872
0.02777
0.046904
0.0095917
-0.010181
-0.033142
-0.051639
-0.034418
-0.03378
-0.051001
0.023943
0.042439
0.0022568
0.015013
0.023943
0.049455
0.087087
0.084217
0.061255
0.11643
0.10558
0.10399
0.12599
0.093784
0.059342
0.020754
0.017564
0.015013
0.023943
0.021391
-0.0095429
-0.034418
-0.038564
-0.037288
-0.03378
-0.04271
-0.060887
-0.046218
-0.056742
-0.10394
-0.091822
-0.084487
-0.082892
-0.06025
-0.090865
-0.093416
-0.089908
-0.076833
-0.063758
-0.055466
-0.075876
-0.10203
-0.090546
-0.059293
-0.078746
-0.095011
-0.094054
-0.10745
-0.067585
-0.059293
-0.039839
-0.02198
-0.032186
-0.032186
-0.020067
0.047542
0.047223
0.043715
0.048818
0.055196
0.038294
-0.0047593
0.032553
0.02458
0.020116
0.008635
-0.011775
0.0070404
0.017564
-0.0012513
-0.017516
-0.017835
-0.010181
-0.042391
-0.028996
-0.017835
-0.045899
-0.039839
-0.064714
-0.088952
-0.066628
-0.0073105
-0.034737
-0.017197
-0.031229
-0.043985
-0.0047593
0.0070404
0.029364
0.043396
0.041164
0.043396
0.055515
0.029683
0.017883
0.019478
-0.026126
-0.00029452
0.020754
-0.018153
-0.053871
-0.028996
-0.02198
-0.031548
-0.014327
0.020116
0.0028946
0.0041702
-0.0098618
0.020116
-0.0034836
-0.032823
-0.009224
-0.029953
-0.047174
-0.025488
-0.010181
-0.035694
-0.043028
-0.053234
-0.03091
-0.023894
-0.024851
-0.037288
-0.037607
-0.0076295
-0.039839
-0.067266
-0.044942
0.014694
0.027132
-0.013689
-0.017516
0.0032135
0.010867
0.034786
0.061893
0.038294
0.033191
0.090276
0.084217
0.038612
0.062212
0.038612
0.0073593
0.032553
0.0095917
-0.044304
-0.06025
-0.068541
-0.054509
-0.070455
-0.053234
-0.088633
-0.060887
-0.026764
-0.05132
-0.022937
0.019159
0.013419
0.0131
0.021391
0.063169
0.056471
0.041802
0.021072
0.020116
0.011505
0.026813
0.010867
-0.0073105
-0.044304
-0.058655
-0.11638
-0.097562
-0.094692
-0.16421
-0.17091
-0.18303
-0.19324
-0.19292
-0.18048
-0.18462
-0.17346
-0.16294
-0.14699
-0.12307
-0.10298
-0.085443
-0.069179
-0.064714
-0.054828
-0.024851
-0.01911
-0.026445
-0.012094
-0.013051
-0.0050782
0.032234
0.026494
0.008635
0.041802
0.067952
0.058704
0.044034
0.079433
0.075925
0.044353
0.069228
0.079752
0.092508
0.044991
0.057747
0.047542
0.07146
0.031278
-0.0031647
0.056153
0.068271
0.066039
0.073374
0.05392
0.035742
0.033829
0.046904
0.076244
0.029683
0.0054459
-0.023575
0.024899
-0.015921
-0.036331
-0.0012513
-0.028359
-0.045899
-0.052277
-0.016559
0.00098112
-0.017835
-0.033142
-0.018472
0.0073593
0.010548
0.01023
-0.013051
-0.024532
0.0016189
0.013738
0.028088
-0.012413
-0.033142
-0.028996
-0.024851
-0.0018891
0.022986
-0.012732
-0.066628
-0.081298
-0.062801
-0.11574
-0.14859
-0.18112
-0.17346
-0.18877
-0.1859
-0.18845
-0.16995
-0.17697
-0.18909
-0.16485
-0.14061
-0.11096
-0.088314
-0.075876
-0.082892
-0.046536
-0.04558
-0.037607
-0.042391
-0.051001
-0.037607
-0.047174
-0.035056
-0.032823
-0.0025269
-0.03378
-0.016559
-0.0076295
-0.020067
0.018202
0.041164
0.050731
0.066995
0.022029
0.00098112
0.034786
0.046266
0.049137
0.063806
0.043396
0.02777
0.058066
0.051369
0.048499
0.055515
0.04818
0.040845
0.030321
0.008316
-0.00093234
0.019159
0.008635
-0.011775
-0.02198
0.037337
0.028726
0.017246
0.015332
0.037018
0.031278
0.030321
0.06285
0.066677
0.04818
0.074012
0.059661
-0.002208
0.03064
-0.0034836
-0.063758
-0.033142
-0.051958
-0.08353
-0.090227
-0.062482
-0.066947
-0.015921
-0.03665
-0.05132
-0.018791
-0.023256
-0.020705
2.4388e-05
0.0038513
0.011505
0.0003433
-0.031867
-0.053871
-0.025807
-0.026445
-0.059612
-0.051639
-0.071093
-0.066628
-0.056104
-0.080022
-0.093735
-0.085762
-0.10617
-0.10936
-0.12052
-0.089589
-0.12212
-0.14731
-0.11446
-0.10841
-0.1049
-0.10777
-0.084806
-0.068541
-0.063439
-0.024851
0.0032135
0.0067215
0.027132
0.06572
0.050412
0.044353
0.069866
0.059023
0.063487
0.08326
0.095697
0.08326
0.059342
0.052963
0.041164
0.058385
0.066358
0.035104
0.090595
0.046585
0.0013
-0.011456
-0.036969
-0.023894
-0.018153
-0.032504
-0.043666
-0.040158
-0.039839
-0.03952
-0.04845
-0.040477
0.0044891
0.038612
0.033191
0.04818
0.012781
-0.010181
0.052645
0.06285
0.025856
0.049774
0.053282
-0.0034836
0.0044891
0.021072
0.045629
0.020435
0.0003433
0.0019378
-0.009224
-0.017516
2.4388e-05
-0.0076295
-0.054509
-0.067266
-0.046218
-0.08066
-0.10075
-0.070136
-0.086719
-0.099157
-0.088952
-0.098519
-0.098838
-0.10649
-0.061844
-0.04271
-0.068541
-0.085125
-0.053552
-0.049088
-0.062801
-0.053871
-0.055147
-0.057379
-0.052915
-0.050044
-0.046218
-0.02198
-0.03378
-0.020705
-0.018472
-0.0012513
-0.0041214
-0.0053971
-0.0041214
0.0038513
-0.0031647
-0.0089051
-0.033142
-0.01624
0.004808
-0.0044404
-0.012413
0.0003433
0.0073593
0.045629
0.026813
0.023305
0.099524
0.13365
0.11292
0.10686
0.085811
0.063487
0.081665
0.090914
0.07146
0.076563
0.071141
0.043077
0.039888
0.0099106
-0.014964
-0.012413
-0.0079484
0.015651
0.016608
-0.02804
-0.052915
-0.062801
-0.059293
-0.06025
-0.058974
-0.069498
-0.072049
-0.064077
-0.08353
-0.053871
-0.054509
-0.085443
-0.059931
-0.047174
-0.070136
-0.048769
-0.020067
-0.043347
-0.061525
-0.057698
-0.057379
-0.064077
-0.073325
-0.066628
-0.064714
-0.048769
-0.023575
-0.027083
-0.026126
-0.017835
-0.014008
-0.032504
-0.0069916
0.03351
0.0060837
-0.0012513
0.008316
-0.016878
-0.021024
0.0099106
0.01597
0.027451
0.037656
0.028088
0.026175
0.033829
0.042121
0.047542
0.047223
0.029364
0.023624
0.046266
0.055196
0.056471
0.037975
0.061574
0.046904
0.05392
0.033829
0.037656
0.059661
0.066358
0.10208
0.11675
0.070503
0.073055
0.077201
0.056153
0.06285
0.041483
0.031596
0.017883
0.014694
-0.005716
-0.021343
-0.0038025
-0.0038025
0.0060837
0.0064026
-0.0053971
-0.014645
-0.022299
-0.031229
-0.057061
-0.098519
-0.093097
-0.080979
-0.12467
-0.14125
-0.14891
-0.15688
-0.16103
-0.14667
-0.13456
-0.12116
-0.10522
-0.086719
-0.080022
-0.075557
-0.054509
0.00098112
0.0089539
0.021391
0.034786
0.05679
0.061893
0.04818
0.14226
0.14003
0.13779
0.098568
0.1177
0.17032
0.16937
0.13811
0.093146
0.11579
0.10271
0.081984
0.046585
-0.0044404
-0.023575
-0.035375
-0.030272
-0.059931
-0.068222
-0.076833
-0.087676
-0.097881
-0.065033
-0.073006
-0.076514
-0.079065
-0.064395
-0.053871
-0.066947
-0.059931
-0.068541
-0.060569
-0.028678
-0.034099
-0.031229
0.00098112
0.011824
0.022029
0.022348
0.041483
0.044991
0.062212
0.069547
0.073693
0.040526
0.010867
0.024262
-0.011775
-0.0050782
-0.00029452
0.0095917
-0.055785
-0.052915
-0.040158
-0.04271
-0.023575
-0.0105
-0.043028
-0.032823
0.020435
-0.00061343
-0.029953
-0.02517
0.0057648
0.0051269
-0.0050782
-0.0098618
0.0060837
0.0041702
0.022986
0.031915
0.0041702
-0.0012513
-0.0041214
0.0070404
-0.0050782
0.017883
0.0019378
-0.041115
-0.052277
-0.059612
-0.059293
-0.066309
-0.058336
-0.040477
-0.0018891
0.013738
0.037018
0.04531
0.046904
0.049774
0.061255
0.10654
0.14258
0.12153
0.11483
0.12057
0.10048
0.094741
0.07433
0.048818
0.058066
0.067952
0.040526
0.022348
0.035742
-0.0050782
-0.020386
-0.015921
-0.0041214
-0.02804
-0.023575
-0.030591
-0.045261
-0.04271
-0.052915
-0.0073105
0.0076782
-0.0066727
-0.019748
-0.0085862
0.03064
0.030959
0.031915
0.031915
0.021072
0.022348
0.032872
-0.0063538
-0.048131
-0.04845
-0.038245
-0.056423
-0.070774
-0.088314
-0.067266
-0.073325
-0.097243
-0.081617
-0.086719
-0.085762
-0.08066
-0.088314
-0.06312
-0.074919
-0.075876
-0.092778
-0.10649
-0.081935
-0.073006
-0.071093
-0.096286
-0.084806
-0.050044
-0.048131
-0.050682
-0.0098618
0.016927
0.027132
0.049774
0.045947
0.033829
0.032234
0.081346
0.088362
0.09187
0.11228
0.13429
0.1464
0.13843
0.13684
0.12153
0.13684
0.14704
0.1464
0.14991
0.18244
0.15023
0.08039
0.044672
0.052963
0.064444
0.069866
0.05679
0.022348
0.010867
0.041483
0.0057648
-0.002208
-0.030591
-0.0044404
-0.016559
-0.052277
-0.066309
-0.038883
-0.034737
-0.077471
-0.096605
-0.084806
-0.081935
-0.035375
-0.009224
-0.011775
-0.023256
-0.015283
0.016289
0.026494
-0.0028458
0.070185
0.13811
0.07752
0.072736
0.079114
0.041483
0.0073593
-0.0079484
0.011505
0.035423
0.0035324
-0.03952
-0.035694
-0.047493
-0.053234
-0.057061
-0.083211
-0.094692
-0.076195
-0.0982
-0.12882
-0.11319
-0.1218
-0.12148
-0.10522
-0.11032
-0.10809
-0.079065
-0.053552
-0.047493
-0.028996
-0.021024
-0.011456
0.0016189
0.027451
0.041164
0.030002
0.041164
0.044353
0.043396
0.05392
0.045947
0.052326
0.046904
0.050093
0.058066
0.077838
0.067314
0.043077
0.036061
0.04818
0.071141
0.031915
-0.0047593
-0.0025269
-0.0085862
-0.018153
-0.012094
-0.014327
-0.029953
-0.0095429
0.022029
0.051369
0.022348
-0.0018891
0.0032135
0.052645
0.055196
0.041164
0.01884
-0.002208
-0.0044404
-0.0085862
0.037337
0.037018
0.027132
0.021072
0.020754
0.064763
0.094103
0.079114
0.06572
0.097611
0.14098
0.14353
0.12695
0.096654
0.084536
0.090914
0.057747
0.0057648
0.02777
-0.00061343
-0.071093
-0.062801
-0.038245
-0.06025
-0.091503
-0.11574
-0.13073
-0.097243
-0.091184
-0.12882
-0.099476
-0.08927
-0.11478
-0.10713
-0.079065
-0.059293
-0.064395
-0.035375
-0.024213
-0.012413
0.0016189
0.018202
0.05679
0.050731
0.042121
0.056471
0.054558
0.059661
0.04531
0.043396
0.058704
0.070503
0.050412
0.025218
0.045947
0.046266
0.062212
0.093465
0.091233
0.05392
0.057428
0.069228
0.037337
0.02171
0.049455
0.036699
0.0060837
-0.014964
-0.0095429
-0.00093234
-0.018153
-0.0082673
-0.0063538
-0.026445
-0.011775
0.020435
0.0022568
-0.060569
-0.029315
-0.0047593
0.0067215
0.0028946
-0.041434
-0.017516
-0.023894
-0.063439
-0.034099
0.03064
0.0054459
-0.031867
-0.023894
0.026813
0.049774
0.046585
0.061893
0.062212
0.038931
0.048499
0.095378
0.10782
0.081984
0.088362
0.1228
0.16267
0.1429
0.14768
0.15788
0.18435
0.21688
0.19265
0.19839
0.21975
0.18021
0.16012
0.16267
0.12312
0.092827
0.085811
0.05392
0.05392
0.023943
0.012781
-0.011775
-0.024213
-0.034418
-0.058655
-0.11733
-0.11255
-0.07779
-0.10585
-0.13456
-0.15465
-0.15465
-0.15369
-0.15337
-0.17442
-0.16071
-0.1336
-0.14444
-0.14795
-0.11797
-0.085125
-0.086081
-0.09246
-0.093097
-0.07173
-0.074282
-0.072687
-0.059931
-0.051958
-0.034099
-0.04271
-0.048131
-0.061844
0.0060837
0.038294
0.028088
0.042758
0.066677
0.064444
0.077201
0.092827
0.072417
0.09793
0.12504
0.098249
0.078157
0.11324
0.11515
0.1244
0.11962
0.13078
0.15183
0.14736
0.15214
0.15087
0.20636
0.18818
0.23857
0.22039
0.21242
0.19584
0.17542
0.19743
0.229
0.20572
0.22135
0.17096
0.15151
0.16299
0.18308
0.18499
0.11037
0.10495
0.091552
0.073693
0.02458
-0.024213
-0.037607
-0.060569
-0.10107
-0.14891
-0.17665
-0.17442
-0.17314
-0.21652
-0.2162
-0.19961
-0.20631
-0.22704
-0.19834
-0.20025
-0.25638
-0.25191
-0.22194
-0.21333
-0.19387
-0.17506
-0.16549
-0.16932
-0.16549
-0.12339
-0.08927
-0.072368
-0.031867
-0.0060349
-0.0095429
0.008635
0.048499
0.053282
0.044672
0.069228
0.073693
0.095378
0.11196
0.10909
0.11388
0.13907
0.13556
0.14098
0.18117
0.18691
0.19966
0.21274
0.20668
0.18786
0.16841
0.16905
0.21656
0.19711
0.17192
0.17574
0.20763
0.18659
0.2239
0.22836
0.20285
0.22358
0.16458
0.16235
0.19233
0.2357
0.20604
0.17957
0.1464
0.10144
0.05392
0.023624
-0.034418
-0.057061
-0.034099
-0.10458
-0.075876
-0.088314
-0.10968
-0.093097
-0.14699
-0.15975
-0.11478
-0.11415
-0.14859
-0.17378
-0.16645
-0.14636
-0.11861
-0.11574
-0.12913
-0.10904
-0.088952
-0.11064
-0.12307
-0.12403
-0.069179
-0.062163
-0.06025
-0.060887
-0.06025
-0.074282
-0.087038
-0.057698
-0.027721
-0.043028
-0.045261
-0.069817
-0.027721
-0.014964
-0.012094
0.023305
0.032234
0.015013
0.020116
0.052007
0.041802
0.041164
0.074012
0.087406
0.087087
0.10176
0.09506
0.13333
0.12918
0.13205
0.1582
0.14609
0.18754
0.2121
0.22581
0.21401
0.17957
0.20381
0.2711
0.23379
0.18531
0.20158
0.23155
0.25675
0.25005
0.22326
0.21114
0.2306
0.24686
0.21688
0.19488
0.12727
0.10271
0.082303
0.039888
0.011824
-0.0073105
-0.062801
-0.093097
-0.11446
-0.1572
-0.17314
-0.20567
-0.16964
-0.17761
-0.16708
-0.16995
-0.17314
-0.17155
-0.15241
-0.1741
-0.16995
-0.13998
-0.1521
-0.14923
-0.14285
-0.11223
-0.10266
-0.087676
-0.050682
-0.030591
-0.0095429
0.0079971
0.021391
0.048818
0.06859
0.090914
0.089319
0.086768
0.10048
0.11356
0.11324
0.099524
0.11675
0.057747
0.066677
0.076244
0.096654
0.070185
0.061574
0.061255
0.055834
0.057428
0.059979
0.052645
0.050412
0.078795
0.069547
0.048499
0.060617
0.097292
0.082303
0.10526
0.15087
0.13843
0.15533
0.15533
0.13237
0.14704
0.14609
0.11962
0.090914
0.097292
0.081028
0.10813
0.067314
0.042121
0.041483
0.059979
0.07146
0.088044
0.077201
0.094422
0.12376
0.085492
0.0019378
0.031915
0.072736
0.082941
0.037018
0.011186
-0.023256
-0.027721
-0.012094
-0.048769
-0.069179
-0.07779
-0.09533
-0.092778
-0.094692
-0.073006
-0.047812
-0.065033
-0.093416
-0.074282
-0.086081
-0.099157
-0.11415
-0.095011
-0.051001
-0.064714
-0.084806
-0.068222
-0.05419
-0.08927
-0.069498
-0.053871
-0.0069916
-0.050682
-0.074601
-0.080341
-0.071093
-0.038564
-0.044304
-0.050044
-0.0076295
0.013738
0.0092728
0.054558
0.075925
0.068909
0.10813
0.14577
0.16044
0.18085
0.20476
0.19711
0.19201
0.17479
0.15342
0.16586
0.16331
0.17287
0.15884
0.092189
0.11451
0.12663
0.11419
0.11324
0.071779
0.069228
0.099843
0.093465
0.059023
0.062531
0.051369
0.023943
0.024899
0.029045
0.0099106
0.017246
-0.014645
-0.024213
0.046904
0.075606
0.036061
0.02777
0.01597
0.044991
0.082303
0.04531
0.0032135
0.028726
0.014375
0.0016189
-0.027721
-0.036012
-0.050363
-0.027721
-0.022618
-0.043985
-0.059612
-0.054509
-0.04558
-0.033142
-0.014964
-0.063758
-0.11255
-0.10298
-0.060887
-0.06886
-0.12403
-0.12722
-0.066628
-0.057061
-0.069179
-0.11191
-0.082254
-0.06599
-0.038245
-0.052277
-0.036331
0.020116
0.068909
0.040845
0.056153
0.066677
0.10112
0.10144
0.092189
0.12504
0.14353
0.16937
0.13716
0.13524
0.20508
0.19966
0.15438
0.15119
0.14768
0.14321
0.1665
0.16426
0.10845
0.051688
0.059342
0.069547
0.055515
0.067633
0.06285
0.023624
0.026175
0.023624
0.029364
0.03064
0.032234
0.052007
0.020754
0.017246
0.0131
0.013738
0.011505
0.012462
0.027132
-0.0089051
-0.024532
-0.0073105
0.0076782
0.0089539
0.012781
0.017883
0.016927
0.0028946
-0.021343
-0.018791
-0.005716
-0.050363
-0.063439
-0.051639
-0.035056
-0.024213
0.015332
-0.012094
-0.053234
-0.057698
-0.020386
-0.0038025
0.026813
0.037337
0.054877
0.042758
0.066358
0.09506
0.046904
0.059023
0.074968
0.081984
0.062531
0.15374
0.078795
0.052963
0.040207
0.042439
0.01884
0.0013
-0.012413
0.012462
-0.02517
-0.074282
-0.026764
-0.060887
-0.087357
-0.056742
-0.036331
-0.032823
-0.0025269
0.0032135
0.0095917
0.0092728
-0.0038025
0.0022568
0.05392
0.094741
0.058704
0.050731
0.058066
0.044991
0.041164
0.066995
0.052326
0.080071
0.08613
0.083579
0.090595
0.095378
0.12695
0.15501
0.13716
0.1059
0.12631
0.11515
0.13014
0.098568
0.087087
0.069866
0.075287
0.13716
0.12408
0.11515
0.12504
0.15852
0.11005
0.11132
0.1177
0.081346
0.085173
0.094741
0.076244
0.067633
0.03638
-0.0079484
-0.058017
-0.021343
-0.02198
-0.051639
-0.072687
-0.063439
-0.10426
-0.08353
-0.087676
-0.12467
-0.086081
-0.097562
-0.1336
-0.12945
-0.16262
-0.18016
-0.14859
-0.12403
-0.0982
-0.058974
-0.052277
-0.035694
-0.059612
-0.036331
0.022667
0.06285
0.085811
0.066995
0.092189
0.082622
0.10431
0.11324
0.089957
0.06572
0.08039
0.054239
0.01597
0.11356
0.084854
0.052963
0.057428
0.06859
0.074012
0.087725
0.091552
0.069547
0.091552
0.09506
0.096654
0.10654
0.081346
0.067633
0.067952
0.090595
0.12344
0.089
0.061574
0.081984
0.095378
0.07146
0.069547
0.064444
0.057747
0.040207
0.014694
0.010548
0.021072
0.033191
0.066995
0.063169
0.039569
0.062212
0.056153
0.075925
0.079114
0.089638
0.071779
0.082303
0.086768
0.058066
0.039888
0.032872
0.020754
0.014694
-0.0044404
-0.032186
-0.038883
-0.0018891
-0.0089051
-0.048769
-0.048769
-0.0034836
0.0076782
0.0019378
-0.018791
-0.021661
-0.0095429
-0.022299
-0.032823
-0.041434
-0.010819
-0.038245
-0.11287
-0.06599
-0.055147
-0.054509
-0.072687
-0.067903
-0.094373
-0.12882
-0.087995
-0.074282
-0.074282
-0.082254
-0.098838
-0.092141
-0.069179
-0.065352
-0.074282
-0.080022
-0.0079484
0.0076782
0.028088
0.055515
0.093784
0.094741
0.058385
0.05392
0.084536
0.1346
0.12344
0.1413
0.1464
0.1244
0.12759
0.14353
0.11292
0.1126
0.11675
0.11834
0.17925
0.17638
0.12217
0.14321
0.15438
0.15597
0.13142
0.12504
0.12312
0.1075
0.097292
0.11037
0.11866
0.10112
0.10973
0.089319
0.086768
0.095697
0.11993
0.10271
0.066995
0.080709
0.098568
0.096973
0.084217
0.060936
0.058385
0.054877
0.034786
0.030321
0.043077
0.021072
0.02171
0.013419
0.043396
0.015013
-0.05132
-0.029953
-0.044942
-0.057698
-0.086081
-0.11829
-0.12307
-0.12084
-0.13456
-0.12435
-0.11446
-0.095011
-0.086081
-0.088633
-0.11765
-0.11925
-0.13264
-0.12786
-0.11765
-0.10522
-0.098838
-0.094373
-0.055147
-0.066628
-0.088314
-0.051639
-0.056423
-0.082573
-0.05132
0.032872
0.044353
0.058385
0.043077
0.09187
0.13205
0.15214
0.13301
0.14927
0.16522
0.13524
0.13269
0.1362
0.10782
0.15693
0.19265
0.1834
0.16618
0.16905
0.18659
0.19169
0.19584
0.17925
0.19456
0.1362
0.16363
0.15852
0.10686
0.085173
0.11579
0.085173
0.042439
0.063169
0.067952
0.035423
0.024262
0.028088
-0.0105
-0.040158
-0.050363
-0.022299
0.0032135
0.0016189
-0.053552
-0.067903
-0.047493
-0.040477
-0.080979
-0.050044
0.011186
-0.0082673
-0.024213
-0.031867
-0.0044404
-0.017835
-0.018153
-0.01624
-0.026764
-0.029953
-0.038245
-0.063439
-0.069817
-0.041434
-0.058655
-0.077471
-0.04558
-0.029953
-0.016878
-0.0085862
-0.0082673
0.035742
0.037018
0.064444
0.084536
0.056153
0.059342
0.041802
0.046266
0.061574
0.062212
0.048818
0.047223
0.074012
0.063806
0.043077
0.043715
0.051688
0.059023
0.070185
0.07146
0.068909
0.08039
0.060936
0.050093
0.044034
0.045629
0.04818
0.072417
0.075606
0.072736
0.088681
0.088044
0.10654
0.086449
0.052007
0.061893
0.066995
0.054558
0.075925
0.075606
0.03064
0.0022568
-0.0047593
0.0016189
0.023305
0.027451
-0.0073105
-0.022937
-0.01911
-0.0089051
0.032553
0.067952
0.084536
0.085811
0.081665
0.054239
0.067952
0.078476
0.079752
0.10909
0.11419
0.11579
0.060617
0.02171
0.040845
0.04818
0.028407
0.029364
-0.0063538
-0.04558
-0.079065
-0.10107
-0.10235
-0.14189
-0.14253
-0.10011
-0.081617
-0.081617
-0.075238
-0.095011
-0.046218
-0.022618
-0.021343
0.016608
0.044034
0.059979
0.10239
0.089638
0.057428
0.066995
0.08039
0.10208
0.097611
0.076244
0.069866
0.052326
0.015332
0.028088
0.012143
0.030959
0.012781
-0.012094
-0.017516
-0.0041214
-0.010819
-0.032504
-0.042391
-0.058336
-0.036331
-0.0034836
0.01597
0.012781
0.028726
0.062531
0.079433
0.10367
0.11515
0.12536
0.12567
0.14385
0.14385
0.11898
0.1429
0.11356
0.095697
0.10367
0.10335
0.1295
0.10718
0.11802
0.12408
0.096335
0.10144
0.10112
0.073374
0.058066
0.072417
0.06285
0.043715
-0.027721
-0.025488
-0.039839
-0.06599
-0.086719
-0.11351
-0.099157
-0.16613
-0.15752
-0.12307
-0.12435
-0.14827
-0.076833
-0.060569
-0.052277
-0.064714
-0.084168
-0.091184
-0.11128
-0.065671
-0.038564
-0.064077
-0.10011
-0.083211
-0.050682
-0.065352
-0.080979
-0.08353
-0.10362
-0.093416
-0.046218
-0.041753
-0.057061
-0.035694
-0.018153
-0.012732
-0.002208
0.026494
0.058704
0.080709
0.092508
0.12121
0.12408
0.148
0.16267
0.15087
0.16012
0.16905
0.18053
0.16076
0.16586
0.17511
0.17064
0.17096
0.15788
0.13939
0.16107
0.15246
0.16331
0.15597
0.14034
0.13078
0.15342
0.16458
0.13588
0.1311
0.13811
0.1193
0.10367
0.086768
0.12408
0.14162
0.11005
0.080071
0.11037
0.10845
0.097292
0.061255
0.061574
0.030959
0.019478
-0.0098618
-0.015921
-0.053871
-0.084168
-0.13487
-0.13551
-0.16039
-0.21396
-0.21333
-0.17378
-0.20344
-0.18239
-0.13902
-0.17538
-0.19802
-0.1977
-0.13679
-0.15975
-0.13264
-0.0982
-0.10904
-0.073006
-0.065033
-0.062801
-0.053234
-0.0053971
0.02171
-0.005716
0.0016189
0.022667
0.031278
0.050412
0.085811
0.073055
0.15533
0.093465
0.058066
0.06285
0.1193
0.12121
0.092508
0.080709
0.11962
0.12695
0.1008
0.14353
0.1362
0.098568
0.10495
0.11132
0.081346
0.069547
0.052963
0.070185
0.067952
0.041483
0.029364
0.047223
0.038612
0.035742
0.047542
0.036699
0.057109
0.05679
0.037337
0.03638
0.055515
0.03925
0.050412
0.056153
0.028726
0.010867
-0.0038025
0.037337
0.028726
0.048499
0.046585
0.03064
0.060936
0.064444
0.015651
0.032553
0.018521
0.0003433
-0.0098618
-0.0044404
-0.037288
-0.06599
-0.054509
-0.016559
-0.023894
-0.065352
-0.053234
0.0067215
0.018521
-0.052915
0.0092728
0.062531
0.02171
0.031278
0.035423
0.029045
0.048499
0.020754
0.026175
0.0025757
-0.028359
-0.023894
-0.0034836
-0.0095429
-0.03378
-0.040796
-0.0085862
0.0131
-0.0073105
-0.0018891
0.022986
0.023943
0.0095917
0.02171
0.030002
0.05679
0.06572
0.069547
0.087087
0.090595
0.083898
0.075925
0.081665
0.098886
0.099524
0.12408
0.1228
0.087406
0.079752
0.094103
0.069866
0.041483
0.06572
0.097292
0.098568
0.054877
0.055515
0.077201
0.071779
0.085811
0.082303
0.080709
0.05679
0.080071
0.057428
0.058385
0.047542
0.01884
0.0054459
0.01597
0.0131
-0.0063538
-0.014327
0.047861
0.032872
0.022348
0.054239
0.019797
0.012462
0.0057648
0.01597
-0.029634
-0.025488
0.0057648
-0.032186
-0.027402
-0.036331
-0.066628
-0.11096
-0.070774
0.0092728
-0.0069916
-0.033142
-0.0034836
0.0013
0.028407
0.008635
0.0041702
0.033191
0.028088
-0.0050782
-0.010819
0.013419
0.0016189
-0.0015702
-0.011775
-0.0098618
0.0099106
0.0073593
0.0079971
0.016289
0.010548
-0.00093234
0.0057648
0.02458
0.04531
0.064444
0.052645
0.035423
0.028088
0.017883
0.031278
0.015651
0.037337
0.057747
0.026813
0.0054459
0.0070404
-0.0018891
-0.012413
0.020435
0.019478
-0.036331
-0.033461
-0.021024
-0.0063538
-0.00029452
0.0095917
0.008316
0.019159
0.069228
0.081665
0.080071
0.094422
0.10271
0.11069
0.11164
0.097292
0.10271
0.10526
0.07752
0.064444
0.06285
0.069228
0.052326
0.045629
0.055515
0.046585
0.044034
0.064763
0.052645
0.05392
0.040207
0.050412
0.034467
0.028407
0.0003433
-0.012732
-0.0073105
0.0013
-0.050044
-0.06312
-0.057379
-0.062163
-0.058655
-0.058336
-0.054828
-0.049407
-0.042072
-0.038245
-0.047493
-0.062482
-0.069817
-0.073963
-0.073006
-0.073963
-0.042072
-0.038564
-0.056423
-0.059612
-0.061844
-0.046855
-0.039202
-0.049088
-0.032186
-0.0018891
-0.010819
-0.018472
-0.019429
-0.010819
-0.023256
-0.0044404
0.0057648
0.0131
-0.0047593
0.017883
0.04531
0.059023
0.046904
0.081028
0.087087
0.072098
0.087087
0.10526
0.086449
0.079752
0.089957
0.068909
0.073374
0.067314
0.077201
0.081984
0.088362
0.075925
0.09187
0.11547
0.11419
0.11643
0.10654
0.073374
0.090276
0.071779
0.08039
0.089319
0.064763
0.034786
0.019797
0.025856
-0.0063538
-0.0047593
-0.017516
0.0076782
0.055515
0.035104
0.0076782
0.043077
0.048818
0.023305
0.03925
0.059661
0.037656
-0.00093234
2.4388e-05
0.0051269
0.018202
-0.025807
-0.036012
-0.053871
-0.073006
-0.077152
-0.065352
-0.094373
-0.099476
-0.11925
-0.11478
-0.13647
-0.14636
-0.14253
-0.13105
-0.13519
-0.12499
-0.10649
-0.084168
-0.084168
-0.061525
-0.030591
-0.020067
0.014375
0.03925
0.043715
0.033829
0.052007
0.082622
0.096654
0.093146
0.095378
0.090595
0.081346
0.070185
0.093784
0.1193
0.11579
0.10877
0.098249
0.091552
0.084536
0.092508
0.064125
0.053601
0.05105
0.049774
0.055196
0.045947
0.028088
0.030002
0.03064
0.028726
0.048499
0.050412
0.017564
0.015013
0.043715
0.052963
0.055834
0.023305
0.0095917
0.01884
-0.0028458
-0.0073105
-0.0079484
-0.028996
-0.042072
-0.028678
-0.019748
-0.0073105
-0.009224
-0.002208
0.01023
0.011824
0.021391
0.025537
0.024262
0.021072
0.025537
0.020435
0.050093
0.061255
0.044991
0.017883
0.028407
0.060617
0.043396
0.035742
0.019797
0.0003433
0.008635
-0.005716
-0.031548
-0.04271
-0.040477
-0.072368
-0.1049
-0.087676
-0.082892
-0.072049
-0.084806
-0.071093
-0.040477
-0.039839
-0.036012
-0.0012513
-0.010819
-0.0028458
0.034467
0.043077
0.037656
0.046904
0.029683
0.017883
0.031278
0.029364
0.021391
0.051369
0.048818
0.040526
0.042121
0.043396
0.046585
0.046585
0.042121
0.040207
0.034148
0.027132
0.022029
0.0131
0.012143
0.014694
0.011186
-0.0018891
0.015332
0.024262
0.017564
0.027451
0.029045
0.025218
0.029683
0.041164
0.022029
0.018202
0.023624
0.013738
0.011824
0.013738
0.0076782
0.0092728
0.0131
0.015332
0.023624
0.018202
0.032234
0.042121
0.038612
0.039569
0.04531
0.023624
0.011824
0.025537
0.020435
0.011505
0.0003433
2.4388e-05
0.01023
0.023943
0.015651
0.010867
0.021072
0.025218
0.022667
0.031915
0.029364
0.018202
0.013738
0.018202
0.013738
0.0032135
0.0022568
-0.0044404
-0.0060349
-0.01624
0.0092728
0.020754
0.011824
0.013738
0.0070404
0.023305
0.026175
0.034148
0.014375
0.016608
0.022986
0.0003433
2.4388e-05
-0.00029452
-0.0050782
0.0003433
0.0079971
0.010867
0.010867
0.0044891
0.01884
0.026494
0.019159
0.021072
0.034148
0.01884
0.0070404
0.011824
-0.002208
-0.0031647
0.0025757
0.0028946
-0.0038025
0.014694
0.019159
0.016289
0.020116
0.019159
0.029364
0.035423
0.03351
0.023943
0.022348
0.023943
0.020116
0.0079971
0.0092728
0.0067215
0.0092728
-0.002208
0.012462
0.024262
0.018202
0.029364
0.03351
0.026813
0.03351
0.046904
0.026813
0.023624
0.031278
0.019797
0.016608
0.017246
0.011824
0.015013
0.025856
0.026813
0.032872
0.03351
0.037337
0.041483
0.043715
0.048818
0.06285
0.044991
0.035104
0.03638
0.023943
0.027451
0.031278
0.021391
0.013738
0.040526
0.043715
0.035423
0.042758
0.045629
0.046585
0.048499
0.057428
0.048818
0.042758
0.042758
0.042758
0.035742
0.034786
0.035104
0.035104
0.024899
0.040526
0.052963
0.051688
0.063487
0.064125
0.054877
0.060298
0.079752
0.057747
0.054239
0.061574
0.050731
0.047223
0.051369
0.044034
0.040845
0.054877
0.064125
0.06572
0.064444
0.071141
0.07752
0.07433
0.078795
0.090276
0.075925
0.064444
0.067633
0.050731
0.048818
0.057109
0.057109
0.043396
0.064444
0.067633
0.059023
0.064444
0.066995
0.069547
0.072736
0.070503
0.061893
0.063487
0.059661
0.052645
0.044034
0.043715
0.041483
0.044034
0.035742
0.046585
0.05679
0.052963
0.060936
0.064444
0.055834
0.063169
0.078795
0.056471
0.049137
0.056471
0.044991
0.041164
0.042439
0.034786
0.034786
0.049455
0.050093
0.050412
0.051688
0.05679
0.066358
0.060936
0.061574
0.070503
0.057109
0.047542
0.049137
0.040845
0.03638
0.036699
0.035423
0.027451
0.046266
0.048499
0.043396
0.050093
0.054239
0.05679
0.060936
0.064763
0.042439
0.041164
0.045947
0.03925
0.033829
0.032553
0.027132
0.029045
0.01884
0.029683
0.040207
0.03351
0.04531
0.048499
0.034786
0.040526
0.052645
0.034148
0.028088
0.031915
0.01884
0.016289
0.015332
0.008316
0.0067215
0.022348
0.021072
0.021072
0.023305
0.028726
0.035423
0.032553
0.031278
0.037656
0.028088
0.017246
0.017883
0.0076782
0.0070404
0.012781
0.0038513
-0.010819
0.012462
0.021391
0.0131
0.01884
0.020435
0.018202
0.02458
0.029364
0.013419
0.011824
0.011824
0.0035324
-0.0041214
-0.0060349
-0.0085862
-0.0047593
-0.011456
-0.0025269
0.008635
0.0028946
0.0131
0.017564
0.0067215
0.013419
0.028726
0.0070404
2.4388e-05
0.0051269
-0.005716
-0.0085862
-0.0073105
-0.01337
-0.017516
0.0003433
2.4388e-05
-0.00061343
0.00098112
0.0089539
0.015332
0.014375
0.012462
0.016927
0.0054459
-0.0028458
-0.0047593
-0.016559
-0.017197
-0.0095429
-0.01337
-0.026764
-0.0105
-0.0038025
-0.0095429
-0.0012513
0.0016189
-0.002208
0.0057648
0.012462
-0.0069916
-0.0089051
-0.0063538
-0.014964
-0.020705
-0.021343
-0.026445
-0.02198
-0.024213
-0.017835
-0.0085862
-0.012094
-0.0034836
0.00066221
-0.0073105
-0.0025269
0.012143
-0.0082673
-0.016878
-0.0105
-0.023575
-0.024851
-0.023256
-0.029634
-0.033142
-0.013689
-0.014964
-0.01624
-0.012413
-0.0060349
-0.00061343
0.0003433
-0.0015702
0.0013
-0.0041214
-0.013689
-0.015283
-0.022937
-0.022937
-0.017835
-0.020386
-0.031229
-0.015921
-0.0085862
-0.017197
-0.0063538
2.4388e-05
-0.00061343
0.0057648
0.012462
-0.0073105
-0.014645
-0.0069916
-0.013051
-0.020386
-0.024851
-0.024851
-0.02517
-0.025807
-0.018472
-0.0095429
-0.012094
-0.0047593
-0.00029452
-0.010181
-0.0050782
0.01023
-0.0085862
-0.017835
-0.011456
-0.021024
-0.024213
-0.020067
-0.027721
-0.033142
-0.012413
-0.012413
-0.014964
-0.011137
-0.0050782
2.4388e-05
0.0025757
-0.00061343
-0.00093234
-0.0079484
-0.01624
-0.017516
-0.027083
-0.027083
-0.02517
-0.026126
-0.039202
-0.022299
-0.013051
-0.020386
-0.011456
-0.0066727
-0.012094
-0.0041214
0.0054459
-0.014645
-0.015921
-0.010181
-0.020705
-0.024532
-0.026126
-0.03091
-0.027721
-0.022937
-0.018153
-0.0095429
-0.012413
-0.0038025
0.0032135
-0.0044404
-0.00029452
0.014694
-0.0038025
-0.01337
-0.0073105
-0.018791
-0.02198
-0.017197
-0.022618
-0.029634
-0.0079484
-0.0076295
-0.011775
-0.0066727
-0.00093234
0.0051269
0.008316
0.0067215
0.0025757
-0.0015702
-0.0073105
-0.0085862
-0.018153
-0.017835
-0.015921
-0.017516
-0.028996
-0.010819
-0.0044404
-0.0095429
0.00066221
0.0041702
-0.00061343
0.0076782
0.016927
-0.0038025
-0.005716
2.4388e-05
-0.0098618
-0.014964
-0.014327
-0.01911
-0.015602
-0.0095429
-0.0050782
0.0028946
0.0060837
0.01023
0.0099106
-0.00029452
0.014694
0.030959
0.013419
2.4388e-05
0.0025757
-0.0089051
-0.0105
-0.005716
-0.012413
-0.020386
0.0019378
0.0035324
-0.00061343
0.0054459
0.01023
0.014694
0.01884
0.017883
0.012781
0.01023
0.0038513
0.0016189
-0.0073105
-0.0076295
-0.0066727
-0.0063538
-0.016559
-0.002208
0.0067215
0.0022568
0.013419
0.016289
0.010867
0.016927
0.029683
0.0067215
0.004808
0.012143
-0.00061343
-0.0041214
-0.0047593
-0.0105
-0.0095429
2.4388e-05
0.0013
0.0060837
0.0044891
0.013738
0.020116
0.0131
0.014694
0.027132
0.011186
0.0003433
0.0022568
-0.0089051
-0.0098618
-0.0063538
-0.012094
-0.02198
-0.00061343
0.0003433
-0.0053971
0.0019378
0.0051269
0.0079971
0.0131
0.011824
0.0038513
0.0013
-0.0044404
-0.0082673
-0.015921
-0.016559
-0.015921
-0.014645
-0.02517
-0.012094
-0.0031647
-0.0073105
0.0019378
0.0057648
-0.0012513
0.0051269
0.020116
-0.0031647
-0.0085862
-0.0018891
-0.012732
-0.017516
-0.017197
-0.023575
-0.023256
-0.011775
-0.011137
-0.0079484
-0.0073105
-0.00061343
0.0060837
0.0019378
0.00098112
0.012781
-0.0012513
-0.010819
-0.012094
-0.020705
-0.022618
-0.017835
-0.023575
-0.032504
-0.013051
-0.0095429
-0.014645
-0.0076295
-0.0034836
2.4388e-05
0.0044891
0.0067215
-0.0044404
-0.0060349
-0.0079484
-0.01337
-0.021024
-0.019748
-0.020705
-0.018791
-0.027402
-0.014645
-0.0034836
-0.0063538
0.0044891
0.0092728
0.00098112
0.008316
0.023943
0.0019378
-0.0015702
0.0054459
-0.005716
-0.0079484
-0.0069916
-0.012413
-0.011456
0.0022568
0.0035324
0.0054459
0.0089539
0.015651
0.022348
0.020435
0.020754
0.03064
0.017564
0.0073593
0.0089539
-0.00061343
-0.0015702
0.0025757
-0.002208
-0.012413
0.0076782
0.011824
0.0057648
0.012143
0.015651
0.016927
0.021391
0.023305
0.0099106
0.008316
0.0060837
2.4388e-05
-0.0076295
-0.0076295
-0.0098618
-0.0089051
-0.014964
-0.0038025
0.0073593
0.0025757
0.011824
0.017564
0.0064026
0.013738
0.028726
0.008635
0.0016189
0.0079971
-0.0034836
-0.0073105
-0.0069916
-0.012732
-0.013689
0.0013
0.00098112
0.0019378
0.0038513
0.010867
0.016608
0.013738
0.012781
0.021072
0.0092728
-0.0018891
2.4388e-05
-0.0095429
-0.011137
-0.0053971
-0.010181
-0.019748
-0.0012513
0.0044891
-0.00093234
0.0076782
0.011505
0.0131
0.019478
0.024899
0.0092728
0.0076782
0.0092728
0.0051269
-0.0034836
-0.002208
-0.0079484
-0.0031647
-0.0079484
0.00098112
0.010867
0.0064026
0.017564
0.020754
0.0131
0.017883
0.03351
0.010867
0.0041702
0.010867
-0.0012513
-0.0041214
-0.0060349
-0.0089051
-0.013689
0.004808
0.0025757
0.0019378
0.0044891
0.010867
0.016289
0.01597
0.013419
0.020435
0.0092728
-0.0018891
-0.00093234
-0.011137
-0.011775
-0.0066727
-0.012094
-0.022937
-0.0025269
0.0038513
-0.0044404
0.0064026
0.0076782
0.0076782
0.015332
0.020435
0.0022568
0.0016189
0.0038513
-0.0047593
-0.0095429
-0.012094
-0.014645
-0.0098618
-0.01337
-0.0050782
0.0051269
0.0003433
0.010867
0.014694
0.0070404
0.012781
0.028407
0.0064026
-0.0015702
0.0054459
-0.0063538
-0.0098618
-0.0089051
-0.014645
-0.017197
0.0003433
-0.00029452
-0.0015702
-0.00061343
0.0051269
0.012781
0.012781
0.0095917
0.011824
0.0028946
-0.0060349
-0.0060349
-0.016559
-0.018153
-0.014645
-0.017835
-0.029634
-0.010819
-0.0038025
-0.011137
-0.002208
0.0003433
-0.0012513
0.0070404
0.015013
-0.0050782
-0.0069916
-0.0028458
-0.011775
-0.017516
-0.017835
-0.021343
-0.019429
-0.020386
-0.012094
-0.0038025
-0.0076295
0.0044891
0.008635
2.4388e-05
0.004808
0.021072
2.4388e-05
-0.0089051
-0.0012513
-0.012413
-0.014645
-0.01337
-0.018472
-0.02198
-0.00093234
-0.00093234
-0.0034836
0.0013
0.0070404
0.014375
0.017246
0.013738
0.013738
0.0089539
0.0003433
-0.0015702
-0.010181
-0.011775
-0.0095429
-0.011775
-0.024213
-0.0066727
0.00098112
-0.0069916
0.0028946
0.0035324
0.00066221
0.0076782
0.016608
-0.0069916
-0.0079484
-0.0041214
-0.014645
-0.020067
-0.020705
-0.027721
-0.023256
-0.021024
-0.014964
-0.0079484
-0.010819
-0.00061343
0.0038513
-0.0031647
0.0003433
0.01597
-0.0038025
-0.012732
-0.0066727
-0.018791
-0.021024
-0.017197
-0.024213
-0.031867
-0.0098618
-0.0098618
-0.012413
-0.0079484
-0.0034836
0.0041702
0.0041702
0.0035324
0.0028946
-0.0034836
-0.0105
-0.012413
-0.021661
-0.020705
-0.017835
-0.017835
-0.03091
-0.014008
-0.005716
-0.010819
-0.00029452
0.0035324
-0.0025269
0.0054459
0.01597
-0.0079484
-0.0073105
-0.0018891
-0.01337
-0.018472
-0.018153
-0.026764
-0.022618
-0.017197
-0.01337
-0.0063538
-0.0098618
-0.00029452
0.0057648
-0.0028458
0.0003433
0.016608
-0.002208
-0.013051
-0.0073105
-0.018472
-0.021661
-0.018153
-0.024851
-0.031548
-0.0089051
-0.0095429
-0.012413
-0.0085862
-0.0031647
0.0028946
0.0057648
0.0044891
-0.00061343
-0.0038025
-0.0105
-0.012732
-0.020386
-0.020067
-0.01911
-0.019748
-0.031229
-0.013689
-0.0038025
-0.011456
-0.00061343
0.0032135
-0.0028458
0.0041702
0.016608
-0.0063538
-0.0082673
-0.0012513
-0.012732
-0.018791
-0.017516
-0.023256
-0.020705
-0.012094
-0.011137
-0.0053971
-0.0044404
0.0022568
0.0073593
-0.00029452
0.0032135
0.020116
0.0028946
-0.0085862
-0.0060349
-0.016878
-0.01911
-0.014008
-0.020067
-0.028359
-0.0060349
-0.0044404
-0.0085862
-0.0047593
0.0016189
0.0054459
0.0099106
0.008316
0.0003433
-0.002208
-0.0069916
-0.010181
-0.020067
-0.017516
-0.017835
-0.016878
-0.02804
-0.012413
-0.0028458
-0.0095429
0.0019378
0.0051269
2.4388e-05
0.0057648
0.01884
-0.0031647
-0.0085862
0.0013
-0.011775
-0.016878
-0.014645
-0.022299
-0.019429
-0.0085862
-0.0066727
-0.0025269
-0.0028458
0.0044891
0.012462
0.0073593
0.01023
0.02171
0.004808
-0.0050782
-0.0025269
-0.012094
-0.014645
-0.0095429
-0.01624
-0.02517
-0.0038025
-0.00093234
-0.0053971
0.0019378
0.0051269
0.0070404
0.015651
0.016927
0.0022568
-0.00029452
-0.0038025
-0.0053971
-0.014645
-0.014964
-0.020067
-0.018472
-0.027721
-0.010819
-0.0041214
-0.0105
-0.00093234
0.0022568
-0.0044404
0.0025757
0.014375
-0.0073105
-0.011456
-0.005716
-0.018153
-0.022937
-0.020386
-0.026126
-0.026445
-0.013689
-0.01337
-0.010819
-0.010181
-0.0012513
0.0044891
0.00098112
-0.00061343
0.011186
-0.0031647
-0.013689
-0.010181
-0.021024
-0.022299
-0.018153
-0.023894
-0.032504
-0.011775
-0.009224
-0.014645
-0.0073105
-0.0015702
0.0013
0.0054459
0.0060837
-0.0050782
-0.0069916
-0.0073105
-0.012413
-0.022618
-0.02198
-0.024532
-0.021343
-0.029315
-0.01624
-0.0060349
-0.011137
0.00066221
0.0028946
-0.0047593
0.0032135
0.017246
-0.0047593
-0.0105
-0.0031647
-0.015602
-0.01911
-0.018472
-0.02517
-0.025807
-0.0095429
-0.010819
-0.0079484
-0.0076295
2.4388e-05
0.0073593
0.004808
0.0044891
0.013419
-0.00029452
-0.009224
-0.0060349
-0.016878
-0.016878
-0.012094
-0.017516
-0.030591
-0.010181
-0.0012513
-0.0063538
-0.00061343
0.00098112
0.0022568
0.011505
0.011505
-0.0038025
-0.0063538
-0.0038025
-0.011775
-0.021343
-0.025807
-0.02804
-0.021024
-0.027083
-0.018791
-0.0105
-0.015283
-0.0063538
-0.0031647
-0.011456
-0.0050782
0.0095917
-0.012094
-0.019748
-0.012094
-0.022618
-0.025807
-0.026126
-0.031548
-0.032186
-0.015602
-0.015283
-0.01624
-0.011775
-0.005716
0.0013
0.0019378
-0.00061343
0.0067215
-0.0028458
-0.012094
-0.012094
-0.021661
-0.023894
-0.017835
-0.022299
-0.033142
-0.012732
-0.0066727
-0.011775
-0.0047593
-0.0012513
-0.0018891
0.0041702
0.0092728
-0.0069916
-0.011456
-0.011137
-0.016878
-0.022299
-0.023894
-0.028996
-0.025488
-0.030591
-0.020705
-0.012732
-0.015602
-0.0053971
-0.00061343
-0.010819
-0.0050782
0.012462
-0.010819
-0.018153
-0.011456
-0.024532
-0.024851
-0.023256
-0.028678
-0.032823
-0.013689
-0.014964
-0.015283
-0.012413
-0.0060349
2.4388e-05
0.0013
0.0003433
0.0044891
-0.0044404
-0.014964
-0.015283
-0.02517
-0.025488
-0.021343
-0.023575
-0.035375
-0.015283
-0.0089051
-0.01624
-0.0066727
-0.00029452
-0.0012513
0.0057648
0.012143
-0.005716
-0.0066727
-0.0031647
-0.0098618
-0.014645
-0.014645
-0.021343
-0.014327
-0.013689
-0.0069916
-0.0028458
-0.0063538
0.0032135
0.0076782
2.4388e-05
0.0022568
0.019797
-0.0031647
-0.014327
-0.009224
-0.021343
-0.025488
-0.023256
-0.029634
-0.034418
-0.014645
-0.018153
-0.019748
-0.017197
-0.010819
-0.0031647
-0.0012513
-0.005716
-0.0044404
-0.011137
-0.020705
-0.020067
-0.030272
-0.030591
-0.027083
-0.03091
-0.043666
-0.021343
-0.013689
-0.02198
-0.012094
-0.0085862
-0.011456
-0.0047593
0.004808
-0.017516
-0.018791
-0.012094
-0.023256
-0.028996
-0.028996
-0.034099
-0.029634
-0.027721
-0.024851
-0.014645
-0.015921
-0.0085862
-0.0012513
-0.0076295
-0.0034836
0.010867
-0.0076295
-0.01624
-0.012413
-0.022618
-0.023256
-0.019748
-0.029634
-0.034737
-0.014645
-0.012094
-0.015283
-0.011775
-0.0069916
-0.0015702
0.0003433
-0.0015702
-0.0028458
-0.009224
-0.017516
-0.020067
-0.031229
-0.031548
-0.029634
-0.035056
-0.047174
-0.031229
-0.023894
-0.032823
-0.024851
-0.021343
-0.024213
-0.020386
-0.0105
-0.030272
-0.031867
-0.021661
-0.026764
-0.034099
-0.030591
-0.032504
-0.024851
-0.015921
-0.010181
-0.0031647
-0.0028458
0.013738
0.023943
0.0099106
0.0070404
0.028407
0.011824
0.0025757
0.00066221
-0.012094
-0.01337
-0.011456
-0.018791
-0.025488
-0.0038025
-0.0041214
-0.005716
-0.0066727
-0.0073105
-0.0047593
0.0041702
0.0013
-0.0044404
-0.011137
-0.017197
-0.024851
-0.035694
-0.036969
-0.031229
-0.028359
-0.033461
-0.015921
-0.0060349
-0.012094
-0.002208
0.0057648
0.0057648
0.018521
0.034786
0.011505
0.011186
0.016927
0.0070404
0.0028946
0.0003433
-0.005716
-0.0044404
0.0057648
0.0057648
0.0092728
0.0051269
0.014056
0.017564
0.0019378
0.0028946
0.018521
-0.0028458
-0.018153
-0.01911
-0.028996
-0.037288
-0.03665
-0.049088
-0.061525
-0.038883
-0.023894
-0.025488
-0.018153
-0.020386
-0.013051
-0.0050782
-0.00029452
-0.0038025
-0.0060349
-0.0031647
-0.0041214
-0.010181
-0.011775
-0.011775
-0.005716
-0.01337
0.0016189
0.0092728
-0.00093234
0.0067215
0.0076782
0.0057648
0.017246
0.026175
0.00098112
-0.0012513
0.0013
-0.016559
-0.023894
-0.023575
-0.031548
-0.033142
-0.027083
-0.026445
-0.024851
-0.024213
-0.024213
-0.015921
-0.01911
-0.020705
-0.0050782
-0.01337
-0.015283
-0.0047593
-0.025488
-0.025807
-0.014008
-0.014964
-0.017516
0.008316
0.012143
0.0016189
-0.00093234
0.010548
0.021072
0.017883
0.013419
-0.0050782
-0.011456
-0.018153
-0.02804
-0.039202
-0.042391
-0.044623
-0.04271
-0.057379
-0.050363
-0.053234
-0.039839
-0.027083
-0.028678
-0.035694
-0.030272
-0.01624
-0.033142
-0.043347
-0.026445
-0.040477
-0.046218
-0.050682
-0.040477
-0.042391
-0.037607
-0.029953
-0.024851
-0.019429
0.0003433
0.017883
0.014375
0.010867
0.020435
0.015332
0.011824
0.015332
0.010548
0.026494
0.038612
0.028407
0.010867
0.021072
0.032553
0.035104
0.037337
0.029683
0.027132
0.031915
0.039888
0.019797
0.016608
0.010867
0.0003433
-0.0063538
-0.010819
-0.0098618
-0.0073105
-0.028359
-0.02198
0.0028946
0.00098112
0.021072
0.025218
0.0079971
0.0041702
0.014056
-0.012094
-0.00093234
0.011505
-0.013051
-0.032186
-0.035375
-0.05132
-0.061525
-0.048131
-0.054509
-0.061206
-0.061844
-0.060887
-0.055466
-0.063439
-0.062163
-0.06312
-0.073963
-0.09246
-0.078427
-0.076195
-0.068541
-0.069817
-0.083849
-0.09246
-0.062482
-0.050044
-0.061206
-0.056104
-0.056423
-0.046536
-0.043985
-0.04271
-0.063439
-0.066309
-0.076195
-0.075876
-0.087676
-0.091184
-0.099794
-0.095968
-0.092141
-0.069498
-0.053234
-0.067266
-0.077471
-0.058336
-0.049726
-0.03091
-0.018791
-0.027402
-0.017197
-0.011456
-0.010181
-0.0105
0.0044891
0.0067215
0.0070404
0.036699
0.045629
0.042439
0.046585
0.058066
0.06859
0.076563
0.059023
0.067314
0.055515
0.038931
0.035742
0.021391
0.031278
0.039569
0.01023
-0.0031647
0.010867
0.016927
-0.012094
0.008316
-0.00093234
-0.017197
-0.015283
-0.010819
-0.036012
-0.031548
-0.018472
-0.026764
-0.046536
-0.043666
-0.050682
-0.055785
-0.055466
-0.036012
-0.029953
-0.034737
-0.014964
-0.017197
-0.047493
-0.064395
-0.051958
-0.094373
-0.12212
-0.11797
-0.1285
-0.14604
-0.16549
-0.17314
-0.17219
-0.16453
-0.14253
-0.1336
-0.13232
-0.16039
-0.1336
-0.11446
-0.076833
-0.078427
-0.10171
-0.10171
-0.10203
-0.095649
-0.079703
-0.067266
-0.091503
-0.099157
-0.072368
-0.087357
-0.094692
-0.10968
-0.10235
-0.077471
-0.059612
-0.058336
-0.066309
-0.087357
-0.087676
-0.093416
-0.092141
-0.055785
-0.05132
-0.052277
-0.039839
-0.009224
0.032234
0.021391
0.012781
0.029364
0.029364
0.032872
0.050093
0.041483
0.014056
0.0067215
-0.029953
-0.042391
-0.014964
-0.010819
-0.071411
-0.079384
-0.08353
-0.086719
-0.071411
-0.065671
-0.090865
-0.094054
-0.10649
-0.087038
-0.12371
-0.15241
-0.17474
-0.18239
-0.17251
-0.18558
-0.18367
-0.22991
-0.23278
-0.21907
-0.22162
-0.19419
-0.22002
-0.19579
-0.16007
-0.14923
-0.15911
-0.15943
-0.10585
-0.084806
-0.056104
-0.043028
-0.048769
-0.030591
-0.016878
0.01597
0.05105
0.039569
0.038931
0.045629
0.028726
0.03351
0.023943
0.0016189
-0.005716
-0.019748
-0.069817
-0.053234
-0.035694
-0.084168
-0.097562
-0.067585
-0.080022
-0.11446
-0.1167
-0.082573
-0.081617
-0.094054
-0.10713
-0.12052
-0.11064
-0.12913
-0.18239
-0.16071
-0.1403
-0.1757
-0.18367
-0.18526
-0.17314
-0.1454
-0.14189
-0.16007
-0.13424
-0.13105
-0.14508
-0.10139
-0.080341
-0.084487
-0.10809
-0.1454
-0.11032
-0.1285
-0.16103
-0.13519
-0.10298
-0.082892
-0.10043
-0.12435
-0.10809
-0.12563
-0.14508
-0.11542
-0.070136
-0.12052
-0.082573
-0.040796
-0.049407
-0.11638
-0.11446
-0.080022
-0.10585
-0.10809
-0.12945
-0.15082
-0.15337
-0.12626
-0.12818
-0.16677
-0.15241
-0.16549
-0.19228
-0.18526
-0.19834
-0.19834
-0.14731
-0.0982
-0.094054
-0.074601
-0.047174
-0.059612
-0.04845
0.028726
0.064763
0.06285
0.053601
0.07433
0.042758
0.039888
0.03638
-0.0034836
0.0003433
-0.026445
-0.012094
-0.0050782
-0.037607
-0.04558
-0.080341
-0.095011
-0.084168
-0.10043
-0.13519
-0.09246
-0.064395
-0.097243
-0.12052
-0.10522
-0.12754
-0.10681
-0.064077
-0.091822
-0.16932
-0.10745
-0.11733
-0.096605
-0.12595
-0.13264
-0.15146
-0.17538
-0.17793
-0.1926
-0.25861
-0.26818
-0.26084
-0.29114
-0.30996
-0.32335
-0.31283
-0.3393
-0.29369
-0.26212
-0.20727
-0.25829
-0.21046
-0.17442
-0.13902
-0.091503
-0.078109
-0.032823
-0.0066727
-0.0076295
0.03638
0.025537
0.031596
0.014694
0.035104
0.034786
0.054877
0.070503
0.060936
0.053282
0.069228
0.060298
0.064763
0.066358
0.041802
0.08039
0.022348
0.0016189
0.028726
-0.030272
-0.02198
-0.017516
-0.014964
-0.037288
-0.079384
-0.0982
-0.11957
-0.065033
-0.093416
-0.10777
-0.095968
-0.21333
-0.22289
-0.23533
-0.14476
-0.13583
-0.12499
-0.12148
-0.077471
-0.076833
-0.11191
-0.062163
-0.026445
-0.067903
-0.11128
-0.044304
-0.066947
-0.11638
-0.097562
-0.083849
-0.085125
-0.1438
-0.18622
-0.11797
-0.12084
-0.21301
-0.22321
-0.1808
-0.12084
-0.14253
-0.15528
-0.12913
-0.094373
-0.097562
-0.11287
-0.089908
-0.085762
-0.072368
-0.069498
-0.049407
-0.041115
-0.046218
-0.05132
-0.06025
-0.01911
0.020116
0.049774
0.02777
0.017564
0.0067215
0.026175
0.026813
0.046904
0.059661
0.12153
0.094422
0.08613
0.048818
0.087087
0.078476
0.0003433
-0.005716
-0.032823
-0.028359
-0.015283
-0.043028
-0.14636
-0.15943
-0.14604
-0.20248
-0.26977
-0.25032
-0.27424
-0.30453
-0.28381
-0.2669
-0.2146
-0.22672
-0.26818
-0.23533
-0.17155
-0.14795
-0.077152
-0.06312
-0.10298
-0.0105
-0.014008
0.0064026
0.04531
0.068271
0.14832
0.20381
0.18754
0.16267
0.21019
0.19615
0.10877
0.099524
0.11069
0.026494
-0.041115
-0.05419
-0.082573
-0.11446
-0.19068
-0.21556
-0.19611
-0.24713
-0.22162
-0.25415
-0.22736
-0.21365
-0.17091
-0.17633
-0.1572
-0.11893
-0.10394
-0.089589
-0.052596
-0.026126
-0.020386
-0.036331
-0.013689
0.0019378
0.025218
0.035742
0.058385
0.030321
0.0025757
0.041164
0.044991
0.062212
0.065082
0.042758
0.026494
0.042758
0.027132
-0.0085862
0.0051269
0.017246
2.4388e-05
-0.01911
-0.02517
-0.020067
0.0067215
-0.10426
-0.14253
-0.15815
-0.17538
-0.20854
-0.23533
-0.19005
-0.18813
-0.24745
-0.27232
-0.27488
-0.191
-0.15815
-0.10011
-0.038564
-0.040477
-0.017835
0.016289
0.058066
0.08039
0.13365
0.11132
0.093465
0.096335
0.057428
-0.0028458
0.026175
-0.01624
-0.058655
-0.086081
-0.11064
-0.15943
-0.17187
-0.16358
-0.15433
-0.18749
-0.20567
-0.19419
-0.16262
-0.169
-0.2146
-0.22576
-0.18941
-0.12595
-0.1167
-0.10011
-0.078746
-0.067266
-0.030591
-0.028678
-0.042072
-0.021024
-0.036969
0.029683
0.022986
-0.017516
-0.011775
-0.0012513
-0.024851
0.0079971
0.066677
0.079114
0.042758
0.028726
0.090914
0.13843
0.16426
0.20859
0.2408
0.23538
0.2542
0.22645
0.21688
0.21082
0.16299
0.16299
0.15852
0.081346
0.025856
-0.017197
-0.051639
-0.082573
-0.12148
-0.12371
-0.18175
-0.13998
-0.06599
-0.16166
-0.1336
-0.19228
-0.22927
-0.23916
-0.16198
-0.11415
-0.11765
-0.088314
-0.041115
-0.056423
-0.13424
-0.14986
-0.11446
-0.15943
-0.1556
-0.051001
-0.11957
-0.16932
-0.18462
-0.14285
-0.11702
-0.13456
-0.15943
-0.13232
-0.1336
-0.11319
-0.060569
-0.050682
-0.047812
-0.069817
-0.058336
-0.014645
0.0067215
0.0051269
0.0003433
-0.034418
-0.028678
-0.035694
-0.056104
-0.059293
-0.061206
-0.035694
-0.035056
-0.062482
-0.061525
-0.06025
-0.027721
-0.017835
-0.022937
-0.016878
-0.02517
-0.021343
0.043715
0.018202
0.0028946
0.087725
0.067314
0.046904
0.073693
0.092827
0.13843
0.18212
0.17128
0.10431
0.096973
0.061893
0.0089539
0.015013
0.035104
-0.015602
-0.10298
-0.1202
-0.11765
-0.12276
-0.14572
-0.16453
-0.13998
-0.16358
-0.17442
-0.16932
-0.16453
-0.13456
-0.10649
-0.11191
-0.13456
-0.17123
-0.1572
-0.10713
-0.12212
-0.15528
-0.15624
-0.034737
-0.0085862
-0.062482
-0.054828
-0.015283
-0.0069916
0.032234
0.052326
0.085811
0.087406
0.09506
0.077838
0.068271
0.038931
0.012781
0.015651
-0.0095429
0.0016189
-0.05132
-0.061844
-0.034737
-0.046536
-0.062482
-0.093735
-0.084487
-0.12499
-0.10107
-0.050363
-0.073325
-0.091503
-0.10362
-0.075238
-0.087995
-0.069817
-0.051001
-0.029634
-0.0018891
-0.0025269
-0.009224
-0.0031647
0.034148
0.08326
0.078476
0.089957
0.096335
0.070185
0.070503
0.089319
0.046585
0.059342
0.060936
0.066358
0.049774
0.0131
0.023943
0.012462
-0.038564
-0.069179
-0.078746
-0.056423
-0.09246
-0.14859
-0.1521
-0.10011
-0.1438
-0.16039
-0.15784
-0.093416
-0.064395
-0.1049
-0.10522
-0.060569
-0.061206
-0.016559
0.0035324
-0.064077
-0.077152
-0.03952
-0.013689
-0.002208
-0.057379
-0.055147
-0.024532
-0.002208
0.019797
0.021391
-0.0028458
-0.028359
-0.0028458
-0.012094
0.022348
0.063806
0.04531
0.004808
0.014375
-0.021661
-0.042072
-0.016559
-0.049088
-0.087038
-0.063758
-0.053234
-0.064077
-0.081617
-0.11191
-0.12116
-0.078109
-0.091822
-0.094692
-0.077152
-0.077471
-0.051958
-0.0864
-0.10809
-0.089908
-0.05132
-0.052915
-0.033142
-0.0085862
-0.0038025
0.035104
0.014694
0.026813
0.02458
0.011186
-0.011775
0.014694
0.030959
0.0032135
0.0099106
-0.0015702
-0.029315
-0.02517
-0.044942
-0.014645
0.011824
0.030002
-0.037926
-0.031867
-0.015602
-0.031548
-0.07173
-0.074601
-0.03091
-0.022618
-0.034099
-0.089908
-0.11925
-0.10394
-0.054828
-0.071093
-0.1049
-0.080979
-0.076514
-0.078109
-0.058974
-0.061206
-0.066309
-0.11383
-0.11096
-0.13998
-0.13551
-0.10553
-0.13711
-0.14827
-0.14285
-0.1572
-0.13774
-0.11925
-0.11096
-0.10968
-0.081935
-0.075557
-0.066309
-0.050682
-0.036331
-0.012094
-0.03378
-0.013051
-0.005716
-0.0047593
-0.012732
0.015651
0.060936
0.099843
0.06285
0.082303
0.12791
0.091233
0.055196
0.078157
0.099843
0.094741
0.050412
0.059661
0.07433
0.06285
0.017883
0.025537
-0.017835
0.029683
0.047223
0.044034
0.023305
0.019797
0.023943
0.0064026
0.029364
-0.0012513
-0.015283
0.0038513
-0.017835
-0.080979
-0.1285
-0.11893
-0.10872
-0.069179
-0.083849
-0.13806
-0.12212
-0.054828
-0.09533
-0.11733
-0.094373
-0.09246
-0.056104
-0.051639
-0.069179
-0.10266
-0.10809
-0.082892
-0.09246
-0.10171
-0.071411
-0.069498
-0.088314
-0.081298
-0.074919
-0.058336
-0.024851
-0.046218
-0.051958
-0.029315
-0.06312
-0.076833
-0.086081
-0.064714
-0.052277
-0.038883
-0.048769
-0.038564
-0.046855
-0.059612
-0.038883
-0.005716
-0.002208
-0.0079484
-0.0105
-0.0076295
-0.013689
-0.0041214
-0.0012513
-0.011456
-0.045899
-0.04558
-0.054828
-0.051958
-0.044942
-0.019429
-0.03091
-0.052915
-0.083849
-0.066309
-0.069179
-0.068222
-0.11446
-0.096924
-0.095649
-0.087357
-0.10426
-0.079065
-0.067585
-0.09533
-0.058017
-0.009224
-0.0012513
0.029364
0.016927
0.043396
0.07433
0.14736
0.23187
0.21593
0.19902
0.20381
0.17415
0.23442
0.29055
0.20158
0.15246
0.17702
0.18754
0.15119
0.10208
0.08613
0.024262
-0.031867
-0.046855
-0.10809
-0.14221
-0.19164
-0.21173
-0.22608
-0.2685
-0.29943
-0.25287
-0.25287
-0.25734
-0.23565
-0.22481
-0.19961
-0.1792
-0.18718
-0.14189
-0.11191
-0.1269
-0.10235
-0.094373
-0.12977
-0.12531
-0.096924
-0.090227
-0.082892
-0.075876
-0.087357
-0.088633
-0.084487
-0.068222
-0.073644
-0.097243
-0.097881
-0.088633
-0.074601
-0.068222
-0.088633
-0.094373
-0.094054
-0.089908
-0.091822
-0.097243
-0.069179
-0.022299
-0.012413
-0.020705
-0.022937
-0.0076295
0.03351
0.058066
0.049137
0.043715
0.032234
0.030002
0.049137
0.10782
0.12918
0.092508
0.081984
0.11101
0.14736
0.11675
0.15278
0.2054
0.19488
0.17989
0.15214
0.11101
0.13588
0.15246
0.073374
0.028407
-0.033142
-0.051958
-0.065033
-0.034099
-0.12403
-0.19642
-0.20376
-0.15273
-0.15433
-0.19674
-0.18558
-0.24043
-0.25
-0.21556
-0.17091
-0.18718
-0.1859
-0.16453
-0.15975
-0.15401
-0.10585
-0.11829
-0.14349
-0.070136
-0.037607
-0.015921
-0.03091
-0.057061
-0.065352
-0.066628
-0.022299
-0.014645
-0.038883
-0.044623
-0.046855
-0.052915
-0.074919
-0.070136
-0.041434
-0.03378
-0.014008
-0.054509
-0.093097
-0.053234
-0.020386
-0.05419
-0.074601
-0.08066
-0.058974
-0.068541
-0.076833
-0.072368
-0.083849
-0.051639
-0.03378
0.0079971
0.0089539
0.034148
0.018202
0.033829
0.059342
0.033829
0.10399
0.093784
0.064763
0.050731
0.062212
0.062531
0.054877
0.069866
0.086768
0.10654
0.09793
0.07433
0.075925
0.070503
0.1228
0.15629
0.085811
0.032553
0.072098
0.07146
0.018202
0.0095917
-0.0041214
-0.029315
-0.023575
0.0035324
-0.0105
-0.050044
-0.071411
-0.067266
-0.057698
-0.051639
-0.037926
-0.077152
-0.084168
-0.090546
-0.10362
-0.10553
-0.084487
-0.10777
-0.11096
-0.10841
-0.13456
-0.13998
-0.12371
-0.11064
-0.11159
-0.11893
-0.11733
-0.10745
-0.11191
-0.11638
-0.11606
-0.1438
-0.12595
-0.11191
-0.10585
-0.1269
-0.099157
-0.077152
-0.084487
-0.072049
-0.064395
-0.066628
-0.033142
-0.01337
-0.022937
-0.025807
-0.01337
-0.023256
-0.036012
-0.013051
0.019159
-0.009224
-0.0012513
-0.013051
-0.011456
0.018202
0.0089539
0.021072
0.072736
0.03638
0.044034
0.016289
0.019797
0.040526
0.010867
0.0073593
0.077838
0.11675
0.071141
0.057747
0.063806
0.10877
0.092508
0.11101
0.10718
0.10335
0.10526
0.093146
0.01884
-0.032823
-0.0053971
0.0095917
0.00066221
-0.059612
-0.099794
-0.10617
-0.12371
-0.12084
-0.1202
-0.1202
-0.11383
-0.1336
-0.12084
-0.11893
-0.12371
-0.094373
-0.096286
-0.10203
-0.10298
-0.087357
-0.10426
-0.078746
-0.073325
-0.074919
-0.039202
-0.050044
-0.051639
-0.046855
-0.064714
-0.083849
-0.060569
-0.084806
-0.12499
-0.12595
-0.12786
-0.12626
-0.11574
-0.12276
-0.13998
-0.11893
-0.082892
-0.084487
-0.085443
-0.06312
-0.051639
-0.026445
-0.005716
0.0051269
0.012781
0.0016189
-0.00093234
0.0025757
0.033191
0.058385
0.064125
0.030959
0.056471
0.080071
0.088362
0.12631
0.13716
0.11643
0.11993
0.11579
0.11356
0.099524
0.088044
0.059023
0.073374
0.082622
0.059661
0.029364
0.016289
0.052326
0.043396
0.012143
0.042439
0.055515
0.016608
-0.026445
-0.014964
-0.018153
-0.0085862
-0.046536
-0.11702
-0.10617
-0.082573
-0.094692
-0.1403
-0.15656
-0.13424
-0.1454
-0.14636
-0.14667
-0.14667
-0.12977
-0.12339
-0.1167
-0.11478
-0.1202
-0.096286
-0.078427
-0.07779
-0.11128
-0.082573
-0.074919
-0.05132
-0.023894
-0.012094
0.0131
0.014375
-0.01337
0.0032135
0.037018
0.015651
0.008635
0.0131
0.011824
0.021391
0.025218
0.01884
0.03064
0.054877
0.071779
0.10303
0.11802
0.12408
0.1582
0.11483
0.1582
0.16681
0.14704
0.13078
0.14864
0.10654
0.074649
0.046904
0.0003433
0.022029
0.045629
0.011824
-0.037607
-0.074282
-0.087357
-0.090546
-0.083849
-0.10394
-0.083211
-0.13137
-0.14954
-0.090546
-0.02804
-0.052277
-0.10745
-0.065033
-0.036331
-0.031229
-0.011456
-0.018153
0.028726
0.03925
0.040526
0.0092728
0.0054459
-0.028359
-0.0079484
-0.009224
-0.031229
-0.060887
-0.063758
-0.087357
-0.086719
-0.072049
-0.063439
-0.061525
-0.043666
-0.021024
-0.017197
-0.017197
-0.013689
-0.00061343
0.0076782
-0.0028458
0.0028946
0.013738
0.037337
0.0019378
0.0073593
-0.0018891
0.014375
0.032553
0.035742
0.03351
0.026813
0.036699
0.032234
0.025218
0.008635
-0.027402
0.018521
0.011505
-0.027083
-0.038883
-0.035375
0.0070404
0.016289
0.029045
0.03925
0.01597
0.037337
0.052645
0.052963
0.071141
0.070185
0.075287
0.072417
0.061255
0.03351
0.057747
0.084854
0.041164
0.035742
0.053601
0.052963
0.079114
0.060936
0.087725
0.1059
0.076244
0.036061
0.055515
0.061574
0.044353
0.01023
-0.02804
-0.031548
-0.02804
-0.020067
-0.080979
-0.085125
-0.13519
-0.1049
-0.071411
-0.11478
-0.074601
-0.071411
-0.078109
-0.12499
-0.12084
-0.10107
-0.084806
-0.073963
-0.085762
-0.11606
-0.070774
-0.050682
-0.052277
-0.039839
-0.035694
-0.0073105
0.017564
0.0016189
0.032553
0.046585
0.023624
0.035423
0.059023
0.058385
0.053601
0.052007
0.056471
0.032872
0.049455
0.065401
0.086768
0.090276
0.081665
0.10718
0.11419
0.096016
0.076882
0.092189
0.085811
0.11834
0.11324
0.13429
0.14832
0.12663
0.085811
0.13684
0.13747
0.1362
0.097611
0.08326
0.10973
0.11802
0.1126
0.052645
0.029045
0.0038513
-0.0082673
-0.051001
-0.091822
-0.13456
-0.15975
-0.14061
-0.11829
-0.13105
-0.21428
-0.19036
-0.17633
-0.17825
-0.16804
-0.14604
-0.16613
-0.15241
-0.12882
-0.14476
-0.12595
-0.075238
-0.064077
-0.053234
0.0016189
0.0028946
-0.0063538
0.012781
0.023305
0.037975
0.041164
0.052326
0.050093
0.026175
0.033191
0.035742
0.01597
0.023624
0.0070404
-0.0095429
-0.0028458
0.027451
0.035104
0.015651
0.028088
0.044991
0.034148
0.010548
0.040207
0.021391
-0.0050782
-0.009224
0.025218
0.032872
0.016608
-0.0047593
0.028088
0.038931
0.038294
0.070822
0.08039
0.10016
0.10877
0.077201
0.041164
0.062212
0.09187
0.09187
0.11005
0.086768
0.03638
-0.016878
0.038294
0.041164
0.07433
0.05679
0.035742
0.0003433
0.073693
0.076244
0.048818
0.029683
0.011824
-0.015283
-0.035056
-0.076514
-0.058336
-0.078427
-0.097243
-0.11128
-0.14636
-0.15114
-0.12052
-0.12818
-0.12945
-0.13328
-0.10139
-0.093735
-0.069498
-0.062163
-0.060887
-0.040477
-0.038564
-0.018153
0.01884
0.023943
0.0051269
0.037018
0.053601
0.071141
0.086768
0.10048
0.12153
0.081665
0.074968
0.098568
0.11834
0.09793
0.077838
0.030959
0.019478
0.022667
-0.01337
-0.0018891
0.01023
-0.019748
-0.05419
-0.055147
-0.051958
-0.060887
-0.030591
-0.062482
-0.10585
-0.11829
-0.11415
-0.10553
-0.1202
-0.14604
-0.11096
-0.080341
-0.027083
0.0064026
0.01023
0.0070404
0.049137
0.10877
0.10654
0.11292
0.1582
0.15533
0.18021
0.20668
0.1952
0.13939
0.15661
0.1716
0.17606
0.14896
0.082303
0.073693
0.081346
0.083579
0.077201
0.01884
-0.017835
-0.0085862
-0.0034836
-0.035694
-0.092141
-0.1403
-0.11446
-0.093097
-0.1049
-0.13328
-0.13456
-0.13998
-0.13232
-0.11765
-0.10585
-0.085762
-0.068541
-0.064395
-0.084806
-0.084806
-0.06886
-0.056104
-0.074601
-0.063439
-0.080979
-0.086719
-0.074282
-0.079065
-0.059293
-0.029634
-0.019748
-0.028996
-0.026126
-0.019748
0.022029
-0.032504
-0.0082673
0.02458
0.034148
0.058385
0.081984
0.08613
0.039888
0.091233
0.11515
0.12599
0.14896
0.14864
0.13301
0.12727
0.1193
0.13237
0.1228
0.12185
0.12599
0.099524
0.048499
0.057109
0.032872
0.0032135
0.052326
0.053282
0.046585
-0.0018891
-0.0044404
0.030002
0.035742
0.0060837
-0.022618
-0.050363
-0.03091
-0.035375
-0.057379
-0.078746
-0.081935
-0.050363
-0.079065
-0.099794
-0.074919
-0.075876
-0.089589
-0.091503
-0.064077
-0.049407
-0.012094
-0.050363
-0.070774
-0.0105
-0.030591
-0.050044
-0.014964
0.0067215
0.038612
0.06285
0.083898
0.057747
0.035104
0.043077
0.084217
0.094103
0.049137
0.076563
0.029683
0.017883
0.023624
-0.010819
-0.032823
-0.016559
-0.019429
-0.034737
-0.013051
-0.011775
-0.024213
0.019478
0.044353
0.027132
0.038294
0.026494
0.042121
0.036699
0.0131
0.026494
0.06572
0.090914
0.035742
0.072417
0.05679
0.078157
0.11164
0.12982
0.16586
0.1311
0.11292
0.13046
0.14385
0.11706
0.12344
0.094103
0.040526
0.033191
0.026494
0.023943
0.031915
-0.0076295
-0.038245
-0.020705
-0.018153
-0.0018891
0.01023
-0.0073105
-0.0028458
0.0089539
-0.018472
0.0067215
0.013419
-0.047174
-0.038564
-0.022937
-0.028359
-0.051639
-0.053234
-0.064714
-0.093416
-0.053552
-0.056104
-0.070774
-0.042072
-0.045899
-0.082573
-0.05419
-0.010819
-0.040796
-0.092141
-0.097881
-0.062163
-0.046855
-0.067266
-0.033142
-0.014645
-0.021024
-0.038883
-0.015283
-0.04558
-0.017516
-0.015283
-0.033142
-0.034099
-0.01911
-0.048769
-0.079703
-0.035375
-0.026764
-0.059293
-0.050363
-0.032186
-0.013689
2.4388e-05
0.008316
0.059342
0.084854
0.082303
0.10271
0.11898
0.16044
0.21465
0.20955
0.23984
0.25611
0.25994
0.27046
0.29597
0.29183
0.2542
0.25738
0.2357
0.22007
0.18404
0.11802
0.1008
0.079752
0.03351
0.0013
-0.066947
-0.075876
-0.11287
-0.12722
-0.1218
-0.12626
-0.13711
-0.14253
-0.11702
-0.072368
-0.11351
-0.11319
-0.077152
-0.087995
-0.11415
-0.10745
-0.11383
-0.09246
-0.083849
-0.094373
-0.14221
-0.094692
-0.068222
-0.068222
-0.085443
-0.095011
-0.11478
-0.10936
-0.10139
-0.075238
-0.064077
-0.060887
-0.076833
-0.071093
-0.032186
-0.0085862
0.015013
0.03638
0.059979
0.07752
0.093465
0.10622
0.15533
0.15406
0.21338
0.23347
0.21625
0.19934
0.18212
0.17287
0.17702
0.16905
0.10941
0.11005
0.10909
0.094103
0.096654
0.064444
0.067633
0.055834
0.010867
0.025856
0.042121
0.026175
-0.058017
-0.040477
-0.03378
-0.040477
-0.028678
-0.032823
-0.033461
-0.011775
-0.00029452
0.0003433
-0.025488
0.036699
0.059342
0.041483
0.050731
0.06285
0.077201
0.059023
0.068909
0.040845
0.020435
0.02171
0.032872
0.0013
0.011505
0.013419
-0.0079484
-0.025488
-0.055785
-0.058974
-0.066947
-0.085125
-0.10011
-0.095011
-0.060569
-0.0982
-0.132
-0.11446
-0.10139
-0.075876
-0.060887
-0.032504
-0.026445
-0.028678
0.008316
0.020754
0.029364
0.03064
0.07433
0.077838
0.072736
0.050093
0.023305
0.042758
0.055515
0.034786
0.050731
0.074968
0.055196
0.041164
-0.0098618
-0.0082673
0.04818
0.07146
0.058385
0.040845
-0.00061343
-0.0047593
0.015651
-0.0053971
0.026813
0.066358
0.069547
0.043396
0.043077
0.059661
0.067952
0.08613
0.069547
0.10941
0.11866
0.11101
0.12344
0.097292
0.069228
0.043077
0.071779
0.10239
0.085492
0.079752
0.10495
0.072417
0.069866
0.097611
0.090914
0.08326
0.048499
0.064763
0.044353
0.02458
-0.014645
0.011505
-0.010181
-0.030591
-0.073325
-0.086719
-0.095011
-0.080341
-0.079065
-0.10841
-0.086719
-0.079065
-0.070136
-0.075876
-0.07173
-0.074282
-0.084487
-0.067585
-0.060569
-0.07779
-0.11351
-0.10235
-0.031548
-0.05132
-0.034099
-0.020386
-0.023256
-0.016878
-0.013051
-0.0031647
0.011824
0.020754
-0.014327
-0.0063538
-0.00061343
-0.0098618
-0.021024
-0.038883
-0.021661
0.004808
-0.015283
-0.0073105
-0.0085862
-0.0063538
0.040207
0.074968
0.088681
0.10845
0.11451
0.093784
0.10239
0.11866
0.13684
0.11962
0.12408
0.12982
0.15597
0.20795
0.18563
0.12025
0.14003
0.17638
0.16012
0.1649
0.17096
0.14927
0.13492
0.099524
0.097611
0.053282
0.03351
0.015651
0.017883
-0.037288
-0.012732
-0.0041214
-0.0015702
-0.058336
-0.094054
-0.099476
-0.073325
-0.055147
-0.080341
-0.059931
-0.06312
-0.10139
-0.11829
-0.096286
-0.10203
-0.088952
-0.10617
-0.087357
-0.031867
-0.056104
-0.033142
-0.035694
0.013419
-0.022618
0.0019378
0.03351
0.054877
0.054239
0.01597
0.033191
0.059661
0.019797
0.025856
0.09793
0.11132
0.079752
0.12057
0.14066
0.14385
0.090276
0.089319
0.12089
0.13556
0.11547
0.091233
0.09187
0.073055
0.035742
0.0003433
0.0067215
0.0070404
-0.03378
-0.013689
-0.018791
-0.078746
-0.092141
-0.084806
-0.053871
-0.072049
-0.083849
-0.077152
-0.096605
-0.082892
-0.064077
-0.10745
-0.088952
-0.058336
-0.069498
-0.077152
-0.082573
-0.081935
-0.056423
-0.035694
-0.014645
-0.020705
-0.04845
-0.068541
-0.050363
-0.054828
-0.00029452
0.0022568
0.0089539
-0.031548
0.0054459
0.028407
0.031915
0.052007
0.030002
0.041802
0.059979
0.087725
0.060936
-0.00029452
-0.028996
-0.038564
-0.03091
-0.040796
-0.047812
-0.059293
-0.061525
-0.027721
-0.00061343
-0.021024
-0.013689
-0.018153
0.021391
0.04531
0.092508
0.096335
0.082622
0.10335
0.13237
0.15119
0.13524
0.092189
0.13301
0.14034
0.13173
0.16618
0.19424
0.18148
0.1413
0.13142
0.13971
0.14066
0.10048
0.099205
0.1059
0.071141
0.036699
0.011505
0.047223
0.032872
0.034148
-0.0041214
-0.012413
-0.017516
-0.037288
-0.051958
-0.027402
-0.0028458
0.012781
-0.058655
-0.094054
-0.084487
-0.041434
-0.027721
-0.078427
-0.06312
-0.07779
-0.09533
-0.069179
-0.069179
-0.076833
-0.08066
-0.076195
-0.085125
-0.075876
-0.078427
-0.083211
-0.066309
-0.082892
-0.10585
-0.097562
-0.081617
-0.073963
-0.035694
-0.012094
-0.0053971
-0.0073105
0.0025757
0.03638
0.074649
0.10367
0.041802
0.029364
0.059023
0.072417
0.062531
0.042758
0.062531
0.067314
0.051369
0.056153
0.056471
0.062212
0.078157
0.10048
0.10367
0.064125
0.085811
0.092827
0.083898
0.092508
0.085492
0.068271
0.060936
0.042121
0.019797
0.047542
0.069547
0.057747
0.01884
0.079114
0.025856
0.017246
-0.012413
0.00066221
-0.0047593
-0.029634
-0.019429
-0.01911
-0.013689
-0.041434
-0.076514
-0.062163
-0.048769
-0.038883
-0.049407
-0.0098618
0.01597
0.008635
-0.005716
-0.017516
0.016927
0.025537
0.03638
0.026494
-0.0031647
-0.012094
0.0041702
-0.011137
-0.03378
-0.0050782
0.0057648
-0.032504
-0.022937
-0.024532
-0.022299
-0.005716
0.0035324
0.0092728
0.02171
0.017564
-0.018153
0.0070404
0.016608
0.0003433
0.0013
0.02777
0.020435
0.038294
0.025856
0.049774
0.021391
0.0092728
0.0003433
-0.026445
-0.030591
-0.0028458
-0.0085862
-0.0098618
-0.011137
-0.01624
-0.028359
-0.028996
0.0035324
0.0044891
0.0099106
0.01597
0.019478
0.023624
0.043077
0.098568
0.10495
0.10495
0.03064
0.052645
0.048818
0.12504
0.10495
0.099524
0.11037
0.12695
0.13524
0.13301
0.1413
0.12408
0.094103
0.10431
0.086768
0.018521
-0.035694
-0.022937
0.0035324
-0.063439
-0.066309
-0.065671
-0.12307
-0.13041
-0.081298
-0.11159
-0.11
-0.10617
-0.1049
-0.087038
-0.050682
-0.051639
-0.048769
-0.049726
-0.06312
-0.11128
-0.12435
-0.12531
-0.10522
-0.092141
-0.097243
-0.1049
-0.11925
-0.13009
-0.11159
-0.099157
-0.080341
-0.085762
-0.074282
-0.069498
-0.048769
-0.038883
-0.023894
0.010867
0.067952
0.044991
0.072098
0.14513
0.16139
0.20604
0.25707
0.26153
0.2644
0.25324
0.23092
0.22805
0.25356
0.2762
0.24144
0.24303
0.21242
0.12089
0.13556
0.13843
0.11356
0.027132
-0.0098618
0.037337
0.035423
-0.0060349
-0.0066727
0.0076782
-0.043985
-0.069817
-0.064714
-0.072368
-0.11287
-0.0864
-0.084806
-0.097243
-0.078746
-0.066309
-0.042072
-0.042391
-0.061525
-0.076833
-0.059293
-0.044623
-0.037926
-0.012732
-0.03378
-0.052596
-0.043028
-0.032823
-0.028996
-0.048769
-0.064077
-0.021343
0.015013
-0.032823
-0.014008
-0.019748
-0.019429
-0.0085862
0.035742
0.016289
0.00066221
0.017883
-0.012413
0.0025757
0.063169
0.058066
0.027132
0.011824
0.026175
0.03925
0.051369
0.057109
0.070185
0.04531
0.0060837
0.0038513
0.0032135
-0.039202
-0.061206
-0.054509
-0.058336
-0.053234
-0.10075
-0.12658
-0.099157
-0.085443
-0.08353
-0.075876
-0.051001
-0.043347
0.011824
0.019478
-0.010819
0.0032135
0.055196
0.052326
0.051369
0.046585
0.094741
0.10208
0.07146
0.04531
0.05105
0.070822
0.080709
0.042758
0.018202
0.0019378
-0.005716
-0.012732
-0.018472
-0.035375
-0.032504
-0.032823
-0.0034836
-0.0069916
0.01884
0.019797
0.01597
0.057747
0.078476
0.093465
0.087087
0.1126
0.096016
0.074012
0.073693
0.036699
0.044672
0.037018
0.046585
0.039569
-0.0076295
-0.03091
-0.039839
-0.0047593
-0.0105
-0.041115
-0.032186
-0.025488
-0.029315
-0.066947
-0.060887
-0.061844
-0.056742
-0.05132
-0.0982
-0.09246
-0.094054
-0.082573
-0.10681
-0.04558
-0.010819
-0.040796
-0.043347
-0.027721
-0.032823
0.0060837
0.030959
0.0067215
-0.019429
0.046266
0.016289
-0.049088
-0.043666
-0.012732
-0.0038025
-0.00029452
-0.013051
0.0076782
0.011824
0.037337
0.038612
0.035423
0.01597
0.034148
0.037656
0.03351
0.046904
0.057109
0.048818
0.066358
0.058704
0.048499
0.055196
0.07433
0.087725
0.072736
0.045947
0.048818
0.09793
0.060936
0.029364
0.025856
0.013738
-0.0047593
0.008635
-0.012094
-0.0085862
-0.025807
-0.043347
-0.02198
-0.019748
-0.050363
0.010867
-0.0018891
-0.0047593
0.0028946
0.0099106
0.025537
0.023305
0.040526
0.00066221
-0.020067
0.0028946
0.021072
0.049137
0.018521
0.010548
0.016289
0.013419
0.025537
0.054558
0.033829
0.027132
0.062531
0.067314
0.042758
0.017883
0.040845
0.074012
0.040845
0.0070404
-0.019429
0.054239
0.054239
0.040845
0.034467
0.019159
0.0079971
-0.0073105
-0.022618
-0.049726
-0.049088
-0.046218
-0.035694
-0.056104
-0.066947
-0.065033
-0.032504
-0.078427
-0.081298
-0.054509
-0.056104
-0.03665
-0.029315
-0.04271
-0.036969
-0.043985
-0.034737
-0.037607
-0.029953
-0.036331
0.0064026
0.046266
0.028407
0.004808
0.022986
0.058066
0.083579
0.10941
0.12312
0.1177
0.10208
0.078476
0.076244
0.040207
0.037975
0.015013
-0.013689
-0.034099
-0.031229
-0.047493
-0.054828
-0.056742
-0.049088
-0.033142
-0.0018891
-0.04845
-0.026764
0.053282
0.026175
0.028407
0.041164
0.077838
0.054877
0.03638
0.090914
0.080709
0.095378
0.085811
0.12153
0.16522
0.14832
0.13907
0.099843
0.1244
0.1295
0.13811
0.10782
0.067952
0.059342
0.038294
0.026494
-0.0047593
-0.023256
-0.054509
-0.083849
-0.058336
-0.046536
-0.059612
-0.091503
-0.072049
-0.10968
-0.09533
-0.095011
-0.083211
-0.09533
-0.090227
-0.10809
-0.13392
-0.11989
-0.1049
-0.12371
-0.10171
-0.073325
-0.083211
-0.079384
-0.060569
-0.059293
-0.043985
-0.026764
-0.046218
-0.0047593
0.03351
0.030002
0.01597
0.043077
0.031596
0.041483
0.063487
0.12599
0.13046
0.11069
0.17224
0.1598
0.14991
0.15278
0.17479
0.13046
0.12823
0.12536
0.08613
0.044672
0.055834
0.08326
0.083898
0.049137
0.026175
0.03638
0.045629
0.028407
0.057109
0.034148
-0.050044
0.0076782
-0.00029452
-0.03091
-0.058017
-0.049726
-0.052915
-0.04271
-0.046855
-0.040477
-0.043347
-0.06025
-0.048131
-0.032504
0.01023
0.0076782
0.02171
0.012781
0.013419
0.028407
0.0073593
0.0025757
-0.033142
-0.039839
-0.03665
-0.056742
-0.052915
-0.078109
-0.066309
-0.064714
-0.041753
-0.040158
-0.033461
0.027132
0.051369
0.042758
0.028407
0.069228
0.097611
0.090595
0.12918
0.15533
0.19456
0.2188
0.20381
0.22039
0.2003
0.19934
0.1885
0.1818
0.18786
0.15693
0.12599
0.11069
0.067952
0.012781
-0.027083
-0.053552
-0.084487
-0.10075
-0.073644
-0.10235
-0.1285
-0.13456
-0.13137
-0.13838
-0.13169
-0.12276
-0.14667
-0.11478
-0.097562
-0.10553
-0.13679
-0.11159
-0.099157
-0.091503
-0.079703
-0.058017
-0.03665
-0.052596
-0.026445
-0.0082673
-0.0041214
0.0028946
0.024899
0.0016189
-0.0069916
0.008635
0.04818
0.043077
0.034148
0.03351
0.041164
0.052007
0.058385
0.059023
0.056153
0.065082
0.048499
0.055834
0.080709
0.072736
0.11388
0.081665
0.090276
0.081984
0.04531
-0.002208
0.035104
0.0073593
0.01597
0.083898
0.051688
0.028407
0.018202
-0.012732
-0.0025269
-0.014964
-0.023256
-0.023256
-0.059293
-0.069179
-0.043666
-0.046855
-0.051639
-0.034099
-0.033461
-0.029953
-0.0073105
-0.019429
-0.0018891
0.015332
0.01597
0.027132
0.047542
0.017246
-0.016878
0.0092728
-0.0047593
-0.019748
-0.0095429
-0.023894
-0.041434
-0.013689
-0.012732
-0.010819
-0.0025269
-0.0041214
0.0051269
0.0051269
0.0035324
0.0060837
0.0070404
0.0051269
0.013419
0.0064026
0.0044891
0.011186
-0.0089051
-0.019748
-0.011456
0.0028946
0.01023
0.0054459
0.020754
0.019159
0.028407
0.029683
0.023943
0.012781
0.02458
0.028407
0.0073593
0.019478
0.022348
0.027132
0.026494
0.029045
0.039569
0.051369
0.035104
0.013419
0.047542
0.040845
0.037975
0.020116
0.015013
0.01023
0.0022568
-0.017516
-0.0076295
0.0079971
0.004808
0.0038513
0.013419
0.0095917
0.017564
0.019159
0.022986
0.031278
0.042758
0.030002
0.021391
0.019478
0.012781
0.0013
0.0099106
0.012143
0.014056
0.0089539
0.03064
0.039888
0.035742
0.050731
0.057109
0.049774
0.030959
0.031278
0.022029
0.027132
0.052007
0.0131
-0.017197
-0.018472
-0.018791
-0.023256
-0.012413
-0.0095429
-0.0073105
-0.0069916
0.0057648
0.01597
0.015332
0.016927
0.033829
0.030002
0.017564
0.020116
0.010867
0.014694
0.013738
0.0028946
-0.0047593
0.029045
0.029045
0.028088
0.029683
0.034786
0.030002
0.040845
0.037337
0.030002
0.028726
0.02458
0.016608
0.0092728
0.0099106
0.0044891
0.0022568
-0.0034836
0.016608
0.026494
0.019478
0.040845
0.057747
0.03925
0.056153
0.072098
0.055196
0.061574
0.05679
0.050412
0.053282
0.059979
0.05392
0.044353
0.048818
0.042758
0.042439
0.046904
0.022986
0.030002
0.047223
0.031915
0.021072
0.0076782
-0.017835
-0.023575
-0.025807
-0.029315
-0.03091
-0.041434
-0.049088
-0.023256
-0.03378
-0.046855
-0.028359
-0.030272
-0.013051
0.0041702
0.01597
-0.0041214
-0.0085862
-0.005716
-0.0066727
-0.009224
-0.0028458
-0.00061343
0.0060837
0.010867
0.023624
0.035742
0.029045
0.037018
0.041802
0.032872
0.043077
0.059661
0.03925
0.034467
0.037975
0.022986
0.020435
0.027132
0.023943
0.017883
0.032234
0.03638
0.037337
0.03638
0.038294
0.048499
0.046585
0.048818
0.060617
0.044034
0.029364
0.030959
0.017246
0.0092728
0.019797
0.022667
0.0076782
0.02171
0.026813
0.022348
0.029364
0.032234
0.032553
0.040845
0.046585
0.03351
0.029364
0.03064
0.028407
0.017246
0.016608
0.016289
0.019478
0.018202
0.030321
0.039888
0.034148
0.040845
0.042439
0.03351
0.040526
0.060617
0.042439
0.031596
0.034148
0.022029
0.01597
0.01597
0.0099106
0.012143
0.029683
0.026813
0.028407
0.030002
0.037975
0.045947
0.045947
0.044353
0.051369
0.041483
0.03351
0.036061
0.026175
0.025218
0.03064
0.027132
0.017246
0.034467
0.043396
0.038612
0.045629
0.05105
0.049455
0.057109
0.06285
0.045947
0.045629
0.04531
0.03925
0.031596
0.030959
0.02458
0.029045
0.028407
0.033829
0.043396
0.039569
0.049774
0.054558
0.045947
0.050412
0.065082
0.046266
0.036699
0.041483
0.03064
0.028407
0.02777
0.02171
0.019797
0.03638
0.034467
0.036061
0.037656
0.045629
0.052326
0.052645
0.050093
0.053601
0.047861
0.038931
0.037656
0.028407
0.029045
0.031596
0.030002
0.018521
0.038612
0.045629
0.040207
0.046904
0.052326
0.050412
0.059023
0.063487
0.044991
0.04531
0.049137
0.039569
0.031278
0.030002
0.026813
0.028726
0.024899
0.03351
0.04531
0.042439
0.049455
0.053601
0.048499
0.051369
0.061893
0.042439
0.035104
0.045947
0.031596
0.026813
0.026813
0.020435
0.016289
0.034467
0.035104
0.032234
0.035742
0.049455
0.052963
0.055515
0.053601
0.060936
0.041483
0.02458
0.026494
0.029683
0.032553
0.029364
0.022986
0.0099106
0.025537
0.032553
0.027132
0.035423
0.03925
0.034786
0.041483
0.052326
0.032553
0.03064
0.034467
0.025537
0.019159
0.01884
0.014694
0.018202
0.020754
0.024899
0.032872
0.031278
0.042121
0.045947
0.039888
0.043077
0.060298
0.041164
0.03064
0.036699
0.025537
0.022667
0.027132
0.020754
0.014694
0.034148
0.033829
0.032872
0.035423
0.041802
0.047223
0.050412
0.047223
0.046904
0.041483
0.033829
0.030959
0.022029
0.022348
0.024899
0.022348
0.010548
0.027132
0.036699
0.030002
0.039888
0.043077
0.038612
0.04531
0.054877
0.036061
0.034148
0.03638
0.027132
0.021391
0.021391
0.014056
0.017564
0.022348
0.025537
0.032553
0.030002
0.039569
0.044034
0.039888
0.040207
0.055196
0.037337
0.026175
0.030959
0.020754
0.016927
0.021391
0.013738
0.0070404
0.027132
0.028088
0.023943
0.028726
0.035104
0.038612
0.043715
0.038294
0.035423
0.032234
0.024899
0.022986
0.012781
0.012781
0.012781
0.012781
0.00098112
0.015651
0.025856
0.019159
0.029364
0.031596
0.026494
0.034467
0.044672
0.02458
0.019478
0.024899
0.015332
0.01023
0.0095917
0.0022568
0.0060837
0.012781
0.015651
0.019797
0.018521
0.029683
0.035104
0.03064
0.030959
0.045947
0.029364
0.017883
0.022029
0.011824
0.0089539
0.014056
0.0076782
0.00098112
0.020435
0.022348
0.019478
0.024899
0.029683
0.033829
0.037656
0.038294
0.029683
0.029045
0.022667
0.021072
0.010867
0.01023
0.011505
0.011505
0.00098112
0.015651
0.024899
0.02171
0.029683
0.034148
0.027451
0.034467
0.047861
0.027132
0.022667
0.028088
0.017883
0.013738
0.014375
0.0067215
0.008635
0.019159
0.021391
0.024262
0.024899
0.03351
0.040526
0.035423
0.036061
0.048818
0.034148
0.022986
0.025218
0.015332
0.012781
0.016927
0.012143
0.0022568
0.022986
0.024899
0.022029
0.026494
0.030321
0.034148
0.040207
0.03925
0.029364
0.028407
0.025218
0.021391
0.012143
0.011824
0.0095917
0.012462
0.0025757
0.015013
0.025537
0.02171
0.029683
0.033829
0.026494
0.031915
0.047542
0.026813
0.020754
0.028088
0.016608
0.011824
0.013419
0.0070404
0.0060837
0.01884
0.019797
0.023305
0.023943
0.032234
0.038294
0.035104
0.034467
0.045629
0.03351
0.020754
0.023624
0.011824
0.01023
0.015332
0.0099106
-0.00029452
0.017246
0.022667
0.016927
0.025537
0.02777
0.028726
0.034786
0.037656
0.024262
0.022667
0.020754
0.014694
0.0067215
0.0057648
0.0044891
0.0073593
-0.002208
0.0099106
0.020116
0.016927
0.026813
0.031278
0.023624
0.030321
0.044991
0.026494
0.019797
0.02777
0.01597
0.0131
0.013738
0.0070404
0.0067215
0.019159
0.020116
0.021072
0.020754
0.028407
0.032872
0.029683
0.028088
0.034148
0.022986
0.0095917
0.010867
0.0003433
-0.0025269
0.00098112
-0.0038025
-0.014327
0.0038513
0.0079971
0.0044891
0.010548
0.014694
0.014694
0.021072
0.02458
0.011505
0.010548
0.01023
0.0038513
-0.0041214
-0.0041214
-0.0066727
-0.0015702
-0.0085862
0.0028946
0.012462
0.0092728
0.019159
0.02458
0.017246
0.022348
0.038931
0.019478
0.011505
0.017246
0.0067215
0.0038513
0.0057648
0.0003433
-0.0031647
0.012462
0.013738
0.014694
0.017883
0.024899
0.029683
0.031278
0.029045
0.035742
0.026494
0.016927
0.016927
0.008635
0.0067215
0.01023
0.0076782
-0.0028458
0.015013
0.021391
0.016608
0.024262
0.028088
0.027451
0.033829
0.038612
0.024262
0.022348
0.023305
0.015013
0.008635
0.0089539
0.004808
0.0079971
0.0032135
0.012781
0.02171
0.017883
0.026494
0.030959
0.024262
0.028407
0.043077
0.024262
0.015332
0.020754
0.0095917
0.0070404
0.008635
0.0028946
-0.0025269
0.015013
0.015332
0.01597
0.017564
0.02458
0.031278
0.031915
0.028407
0.032553
0.025218
0.014694
0.01597
0.0070404
0.0057648
0.0099106
0.0064026
-0.0050782
0.0131
0.020754
0.016927
0.024899
0.028407
0.024899
0.032234
0.038294
0.022667
0.02171
0.022667
0.012781
0.0076782
0.0073593
0.0019378
0.0060837
0.0051269
0.011505
0.019159
0.015651
0.026494
0.029045
0.022029
0.026175
0.041164
0.02171
0.013738
0.017564
0.0057648
0.0022568
0.0057648
-0.0028458
-0.0066727
0.011824
0.011186
0.0092728
0.011505
0.01884
0.02458
0.025218
0.022986
0.023943
0.01597
0.0079971
0.0060837
-0.0034836
-0.0044404
-0.002208
-0.0044404
-0.01624
0.0003433
0.0095917
0.0025757
0.010548
0.015651
0.010867
0.018521
0.027132
0.0076782
0.0064026
0.008635
2.4388e-05
-0.0047593
-0.0047593
-0.010819
-0.0066727
-0.0044404
-0.00093234
0.008316
0.0060837
0.015332
0.02171
0.014375
0.018521
0.033829
0.016289
0.004808
0.01023
0.0003433
-0.0034836
0.0016189
-0.0044404
-0.010819
0.0076782
0.0092728
0.0070404
0.010548
0.016289
0.022348
0.025218
0.021391
0.020435
0.015651
0.008635
0.0070404
-0.0012513
-0.0028458
2.4388e-05
-0.00061343
-0.012094
0.0044891
0.014375
0.0079971
0.019159
0.023305
0.017883
0.026175
0.034786
0.016289
0.014056
0.017564
0.008635
0.0041702
0.0044891
-0.0034836
0.0013
0.0051269
0.0089539
0.01597
0.013419
0.023624
0.028407
0.022348
0.024262
0.03925
0.022029
0.011186
0.016927
0.0057648
0.0022568
0.0054459
0.00098112
-0.0063538
0.010867
0.013419
0.011505
0.016289
0.020435
0.024262
0.027132
0.026494
0.022986
0.020435
0.0131
0.011186
0.0025757
0.0016189
0.0032135
0.0038513
-0.0063538
0.008316
0.018521
0.013419
0.022029
0.026813
0.022029
0.02777
0.040845
0.02171
0.018521
0.022029
0.0131
0.008635
0.008635
0.0022568
0.0041702
0.010548
0.014056
0.018521
0.016608
0.026813
0.032234
0.026813
0.026494
0.039888
0.02458
0.0131
0.01597
0.0057648
0.0038513
0.0076782
2.4388e-05
-0.0076295
0.01023
0.012143
0.0089539
0.013738
0.017246
0.021391
0.024899
0.02458
0.017246
0.013419
0.0079971
0.0032135
-0.0038025
-0.0050782
-0.0050782
-0.0041214
-0.014327
-0.0018891
0.008635
0.0028946
0.011505
0.01597
0.008316
0.015651
0.027451
0.0076782
0.0022568
0.0092728
-0.0031647
-0.0060349
-0.005716
-0.012413
-0.012094
-0.002208
-0.0015702
0.0038513
0.0035324
0.011186
0.016289
0.013738
0.013738
0.027132
0.011505
0.00098112
0.0044891
-0.005716
-0.0085862
-0.0028458
-0.0085862
-0.017516
0.0013
0.0060837
0.00066221
0.0057648
0.011824
0.013419
0.019159
0.01884
0.008635
0.0076782
0.0041702
0.00098112
-0.0085862
-0.0089051
-0.0095429
-0.0073105
-0.015283
-0.0041214
0.0051269
0.0028946
0.011505
0.014694
0.0070404
0.015013
0.028407
0.008635
0.0025757
0.0079971
-0.00061343
-0.0050782
-0.0050782
-0.010181
-0.0105
-0.00061343
0.00098112
0.0057648
0.0060837
0.015013
0.020754
0.017246
0.016927
0.028407
0.01597
0.004808
0.0070404
-0.0025269
-0.0047593
0.0013
-0.0047593
-0.013689
0.0044891
0.0079971
0.0044891
0.011505
0.014694
0.016927
0.022029
0.022348
0.0131
0.011824
0.0095917
0.0035324
-0.0031647
-0.0034836
-0.0050782
-0.0031647
-0.0105
2.4388e-05
0.0099106
0.0064026
0.015332
0.019797
0.011824
0.018202
0.031278
0.0131
0.0060837
0.011824
0.00098112
-0.0025269
-0.00061343
-0.0066727
-0.0079484
0.0051269
0.0057648
0.0073593
0.0095917
0.015332
0.023305
0.021072
0.019159
0.029045
0.01884
0.0070404
0.008316
-0.0015702
-0.0012513
0.0038513
-0.002208
-0.011775
0.0057648
0.012143
0.0073593
0.015013
0.017564
0.017883
0.023305
0.027132
0.014375
0.0131
0.01023
0.0054459
-0.0018891
-0.002208
-0.0050782
-0.0025269
-0.0079484
-0.00061343
0.0099106
0.0079971
0.015013
0.020116
0.0131
0.017883
0.032872
0.012462
0.0041702
0.010548
2.4388e-05
-0.0038025
-0.0025269
-0.0089051
-0.011456
0.0022568
0.0028946
0.0041702
0.0057648
0.012462
0.018521
0.01884
0.016927
0.023624
0.014056
0.0035324
0.0044891
-0.0044404
-0.0047593
2.4388e-05
-0.0044404
-0.01337
0.0038513
0.0092728
0.0044891
0.014056
0.014694
0.014056
0.021391
0.026494
0.012143
0.0099106
0.011505
0.0038513
-0.00061343
-0.0012513
-0.0047593
-0.0018891
-0.0041214
0.0038513
0.0131
0.011505
0.019797
0.024899
0.017564
0.022029
0.036699
0.019159
0.011824
0.01597
0.0060837
0.0038513
0.004808
0.00066221
-0.0041214
0.011824
0.012462
0.012462
0.014694
0.021072
0.026494
0.026813
0.023624
0.02777
0.020435
0.010867
0.010548
0.0028946
0.0013
0.0057648
0.0025757
-0.010181
0.0073593
0.014375
0.01023
0.01884
0.022029
0.019797
0.025856
0.03351
0.016608
0.014694
0.017246
0.0095917
0.0038513
0.0041702
-0.00061343
0.0038513
0.0013
0.008635
0.018202
0.015332
0.023624
0.028407
0.021391
0.025856
0.039569
0.022348
0.013419
0.019478
0.0076782
0.0054459
0.0095917
0.0028946
-0.0015702
0.01597
0.015332
0.015651
0.01884
0.025537
0.030321
0.031596
0.028088
0.032234
0.025537
0.016927
0.018202
0.008635
0.0089539
0.012143
0.0095917
-0.0012513
0.014375
0.022348
0.017564
0.026813
0.029364
0.026494
0.033191
0.040845
0.022986
0.020754
0.023943
0.016289
0.010548
0.01023
0.004808
0.0089539
0.010548
0.014694
0.022348
0.020754
0.030321
0.035104
0.028726
0.031915
0.045629
0.030002
0.020754
0.026494
0.014375
0.013419
0.017246
0.012143
0.0057648
0.024262
0.023305
0.023624
0.026494
0.033829
0.037656
0.039569
0.037018
0.036699
0.032872
0.025218
0.024899
0.016289
0.015013
0.017246
0.017564
0.0051269
0.020435
0.03064
0.025537
0.03351
0.038294
0.032872
0.038931
0.047542
0.03064
0.028407
0.031915
0.022029
0.018202
0.019478
0.0131
0.015651
0.019478
0.023943
0.029683
0.029045
0.037337
0.043715
0.037018
0.037656
0.054877
0.038294
0.02777
0.032234
0.02171
0.022348
0.025218
0.019478
0.012143
0.030959
0.032872
0.029683
0.035104
0.03925
0.044353
0.047223
0.044353
0.041483
0.038294
0.031596
0.030002
0.021391
0.020754
0.022667
0.023624
0.011505
0.025218
0.035104
0.030002
0.038612
0.042121
0.036699
0.044034
0.054239
0.036061
0.033191
0.036699
0.027451
0.022986
0.022986
0.018202
0.019478
0.025218
0.02777
0.033191
0.033829
0.041483
0.047223
0.043715
0.041802
0.05679
0.041164
0.031596
0.033829
0.025537
0.022029
0.027451
0.021391
0.012781
0.031915
0.033191
0.031596
0.03638
0.039888
0.044672
0.04818
0.047861
0.042121
0.040207
0.034786
0.031596
0.023943
0.024899
0.025218
0.026494
0.01597
0.029683
0.039888
0.035423
0.043715
0.048499
0.041483
0.048818
0.059979
0.040845
0.037018
0.042439
0.032553
0.028726
0.031278
0.025218
0.025537
0.034148
0.035104
0.040526
0.040845
0.048818
0.054558
0.050412
0.05105
0.063169
0.049137
0.038294
0.042121
0.031915
0.03064
0.034786
0.029045
0.019478
0.03925
0.040526
0.037337
0.042439
0.046585
0.049455
0.052645
0.052007
0.044991
0.041802
0.038612
0.034467
0.026494
0.02777
0.026813
0.028088
0.018521
0.031915
0.041483
0.038612
0.047542
0.052007
0.044991
0.052326
0.065401
0.046904
0.042121
0.047542
0.038294
0.034467
0.035423
0.030002
0.031596
0.042121
0.044034
0.046585
0.048499
0.054877
0.059661
0.058385
0.05679
0.067314
0.055515
0.044353
0.046585
0.037018
0.035423
0.040207
0.035104
0.025856
0.043077
0.047542
0.042439
0.048818
0.051369
0.052645
0.057747
0.059979
0.047861
0.046904
0.043396
0.039888
0.032234
0.032234
0.028726
0.032872
0.023943
0.034786
0.04531
0.042121
0.049455
0.052645
0.04531
0.052007
0.067314
0.04818
0.040526
0.046585
0.037656
0.03351
0.033191
0.029045
0.027451
0.039569
0.039888
0.042758
0.044034
0.05105
0.056153
0.056153
0.052963
0.063806
0.053282
0.041802
0.044353
0.03638
0.034467
0.038931
0.035104
0.026494
0.043077
0.048499
0.044353
0.05105
0.054877
0.054239
0.060298
0.064125
0.05105
0.050731
0.047861
0.042758
0.035742
0.037018
0.03351
0.037337
0.030959
0.039569
0.049137
0.046266
0.05392
0.058066
0.051369
0.055515
0.069547
0.050093
0.042439
0.048499
0.037337
0.034467
0.035742
0.028407
0.027132
0.040845
0.039569
0.042121
0.041483
0.047542
0.053601
0.053601
0.050093
0.057109
0.047223
0.037337
0.036699
0.029045
0.028726
0.032234
0.028407
0.019478
0.035423
0.041164
0.036699
0.045947
0.047861
0.048499
0.053282
0.058704
0.044991
0.044034
0.044672
0.038294
0.032872
0.03351
0.029045
0.034786
0.029364
0.039569
0.048818
0.047861
0.055834
0.060617
0.05392
0.059661
0.07433
0.056153
0.049774
0.05679
0.046266
0.044034
0.046266
0.041164
0.037975
0.053282
0.052963
0.055515
0.05679
0.063169
0.06859
0.069547
0.066039
0.071779
0.063169
0.055196
0.05392
0.044991
0.044991
0.047861
0.044353
0.033191
0.049774
0.056471
0.05105
0.058704
0.062212
0.058385
0.064763
0.072098
0.056153
0.054558
0.055834
0.048499
0.044353
0.044991
0.041483
0.044991
0.044672
0.050731
0.059023
0.055515
0.064125
0.068909
0.06285
0.069228
0.081984
0.064444
0.054877
0.060936
0.051688
0.047542
0.050093
0.044353
0.041164
0.059023
0.059342
0.057747
0.061255
0.067314
0.071779
0.073055
0.070822
0.073374
0.067952
0.058704
0.058385
0.049137
0.050093
0.052326
0.050731
0.038931
0.05392
0.062531
0.058066
0.066677
0.067952
0.064444
0.069866
0.078476
0.059979
0.058704
0.060936
0.05105
0.045629
0.044991
0.041164
0.044034
0.043396
0.04818
0.055196
0.052645
0.060617
0.067952
0.057747
0.061893
0.076882
0.059023
0.049455
0.052963
0.043396
0.039888
0.041802
0.035742
0.03064
0.046904
0.048499
0.045947
0.049455
0.054558
0.059661
0.058385
0.058066
0.058385
0.052645
0.042121
0.037337
0.030959
0.030321
0.027451
0.029045
0.014694
0.028407
0.035423
0.03064
0.041164
0.041483
0.03638
0.047542
0.059979
0.042121
0.044034
0.044034
0.041164
0.043396
0.048818
0.047223
0.049137
0.058066
0.066677
0.069547
0.069866
0.081346
0.088681
0.086449
0.087087
0.096973
0.082941
0.074012
0.074968
0.064763
0.060936
0.059342
0.05392
0.046266
0.058704
0.061893
0.058066
0.057747
0.058704
0.061893
0.063487
0.064444
0.059023
0.048818
0.038294
0.042439
0.038612
0.032553
0.030959
0.02458
0.008316
0.026494
0.042758
0.040207
0.049137
0.050731
0.041164
0.046585
0.054239
0.040526
0.044672
0.052963
0.050731
0.052326
0.049774
0.040526
0.046904
0.052645
0.059023
0.072098
0.068909
0.069866
0.080709
0.075925
0.067952
0.081346
0.066677
0.05105
0.046904
0.034148
0.032553
0.034786
0.034467
0.025537
0.039888
0.04531
0.048818
0.055834
0.05105
0.055515
0.071141
0.08039
0.076882
0.073374
0.080709
0.075925
0.073693
0.078157
0.090276
0.076882
0.056153
0.063487
0.096654
0.09506
0.095378
0.085173
0.076244
0.078795
0.090914
0.058066
0.045629
0.043715
0.042121
0.044034
0.040207
0.02777
0.026175
0.022348
0.02777
0.03638
0.029364
0.053282
0.058704
0.043715
0.030002
0.043077
0.03064
0.028407
0.029045
-0.0044404
0.0025757
0.017246
0.014694
0.014694
0.02458
0.017564
0.013738
0.03064
0.052645
0.048818
0.051688
0.055834
0.052963
0.070503
0.066677
0.052326
0.037018
0.05105
0.05392
0.059661
0.054877
0.049455
0.066995
0.061255
0.073055
0.076882
0.069547
0.066358
0.075606
0.062531
0.05392
0.047861
0.034786
0.026494
0.017246
-0.002208
-0.014327
-0.0038025
-0.020386
-0.018791
-0.022299
-0.024851
-0.024213
-0.031229
-0.033142
-0.04558
-0.062482
-0.054509
-0.043985
-0.057379
-0.051001
-0.049407
-0.054509
-0.056104
-0.034099
-0.03378
-0.022937
0.014056
0.020116
0.022029
0.029683
0.042121
0.040845
0.08039
0.049137
0.054558
0.066677
0.082622
0.085811
0.090595
0.092189
0.096016
0.12312
0.10112
0.086768
0.096016
0.073374
0.077838
0.075606
0.0089539
0.030321
0.034148
0.022667
-0.014008
-0.014008
-0.022937
-0.034099
-0.036331
-0.017835
0.0038513
0.0073593
0.010867
0.025856
0.021391
0.046585
0.03638
0.031915
0.039888
0.064125
0.058704
0.04818
0.058704
0.083579
0.052326
0.059342
0.074649
0.044034
0.060617
0.035742
0.044353
0.029683
0.023305
0.013419
-0.035056
-0.047174
-0.061206
-0.072049
-0.089589
-0.10298
-0.13456
-0.15369
-0.1438
-0.12626
-0.1387
-0.1387
-0.11925
-0.15369
-0.15114
-0.11351
-0.13296
-0.15178
-0.13105
-0.13647
-0.14221
-0.12786
-0.10872
-0.10235
-0.073963
-0.080979
-0.063439
-0.046855
-0.040477
-0.050682
-0.045261
-0.012732
-0.013051
-0.0076295
-0.043028
-0.020386
-0.026126
-0.0050782
0.0022568
-0.013689
-0.043028
-0.03665
0.019478
0.01597
0.011824
0.069866
0.041164
0.01884
0.032872
0.034148
0.012462
0.023305
0.03638
0.031278
0.031596
0.0016189
-0.016878
-0.040477
-0.012732
0.024262
-0.014645
-0.043028
-0.057698
-0.043028
-0.033142
-0.046855
-0.064395
-0.093416
-0.06025
-0.13264
-0.097562
-0.070455
-0.067903
-0.10904
-0.064714
-0.027402
-0.036969
-0.06312
-0.050044
-0.034418
-0.015921
-0.01624
-0.016878
-0.022299
-0.049407
-0.062482
-0.078109
-0.066628
-0.055466
-0.099157
-0.078109
-0.065671
-0.076833
-0.087038
-0.04558
-0.080022
-0.088314
-0.1202
-0.1151
-0.087357
-0.093097
-0.11702
-0.13487
-0.1438
-0.12977
-0.13424
-0.11957
-0.11191
-0.11415
-0.070136
-0.069498
-0.055147
-0.041753
-0.031229
-0.005716
0.018521
-0.0028458
-0.0053971
0.0044891
0.012143
-0.01337
-0.048131
-0.063758
-0.061206
-0.04845
-0.06312
-0.029634
-0.079384
-0.084168
-0.10777
-0.09533
-0.092141
-0.097243
-0.078109
-0.075238
-0.080979
-0.081617
-0.11478
-0.12403
-0.054509
-0.065671
-0.068222
-0.064395
-0.070774
-0.04558
-0.051639
-0.064077
-0.090227
-0.063439
-0.10011
-0.12467
-0.16103
-0.17506
-0.17059
-0.14317
-0.17793
-0.2197
-0.20057
-0.20663
-0.23629
-0.22544
-0.18558
-0.16198
-0.15082
-0.099476
-0.097562
-0.076514
-0.13647
-0.11925
-0.06599
-0.018472
-0.014008
-0.025488
-0.022937
-0.014645
-0.011775
-0.061206
-0.047812
-0.02517
-0.044942
-0.055466
-0.069179
-0.11128
-0.12244
-0.15847
-0.15624
-0.16868
-0.14285
-0.10777
-0.11191
-0.13105
-0.11032
-0.093416
-0.076833
-0.044942
-0.030272
-0.01337
0.0076782
0.022029
0.0038513
0.0038513
0.021391
0.0035324
-0.021343
-0.0095429
-0.0079484
-0.009224
-0.038883
-0.033142
-0.032186
-0.086719
-0.045899
-0.0041214
0.015651
-0.011775
0.015651
-0.010819
-0.066947
-0.020386
-0.019429
-0.056423
-0.05132
-0.063439
-0.069498
-0.080022
-0.038883
-0.031867
-0.014008
-0.097562
-0.08927
-0.091503
-0.088952
-0.1049
-0.10011
-0.073963
-0.086719
-0.06312
-0.052915
-0.076195
-0.052915
-0.036969
0.011824
0.020116
-0.035056
-0.021024
-0.0047593
-0.01624
-0.0044404
0.017246
0.0016189
-0.010181
-0.005716
-0.0047593
-0.095011
-0.13264
-0.14954
-0.10872
-0.059293
-0.088952
-0.13519
-0.18207
-0.13392
-0.089589
-0.10171
-0.12084
-0.079703
-0.089908
-0.12276
-0.085762
-0.09533
-0.052915
-0.054828
-0.045261
-0.041434
-0.024213
-0.023894
-0.038564
-0.0050782
0.0013
-0.0069916
0.033829
-0.017197
-0.022937
-0.048131
-0.024213
-0.036969
-0.038883
-0.03952
-0.017516
0.0016189
-0.017835
-0.057698
0.033829
0.025537
-0.011137
0.11164
0.11037
0.05105
0.051369
0.056153
0.07433
0.060298
0.046266
0.018202
0.03925
0.067314
0.026175
-0.024213
-0.039202
-0.013051
-0.099157
-0.10745
-0.084806
-0.077152
-0.087995
-0.096924
-0.12945
-0.15082
-0.16294
-0.17665
-0.17123
-0.13328
-0.11829
-0.11032
-0.12148
-0.13647
-0.06025
-0.054509
-0.064077
-0.050682
0.00098112
0.015651
-0.023894
-0.072368
-0.019748
0.02171
0.013738
-0.017516
-0.015921
-0.027402
-0.048769
-0.0079484
0.017564
0.028407
-0.02198
-0.032186
-0.041753
-0.067585
-0.073325
-0.076195
-0.10107
-0.075238
-0.099476
-0.11032
-0.095968
-0.088314
-0.083849
-0.06599
-0.062801
-0.030591
0.01597
0.0051269
0.039888
0.10367
0.072098
0.07433
0.055196
0.067314
0.098568
0.06572
0.053282
0.052963
0.046585
0.041164
0.038931
-0.00093234
0.0016189
-0.031229
-0.045261
-0.046536
-0.033142
-0.062801
-0.075557
-0.11223
-0.088314
-0.046218
-0.031548
-0.032823
-0.03378
-0.029315
-0.041753
-0.00061343
0.043715
0.056153
0.095378
0.10877
0.12727
0.11643
0.11993
0.012143
0.0013
-0.023256
-0.10075
-0.06025
-0.060887
-0.11223
-0.14253
-0.15178
-0.18239
-0.20025
-0.19483
-0.17027
-0.13009
-0.12626
-0.12945
-0.1336
-0.1202
-0.09246
-0.073963
-0.046855
-0.059293
-0.035056
-0.063439
-0.057379
-0.00093234
0.023943
-0.0047593
0.0038513
0.010548
0.004808
0.0092728
-0.013689
0.0035324
0.0099106
0.038294
0.0057648
0.016927
0.018202
-0.009224
-0.048769
-0.10107
-0.053552
-0.019748
-0.020705
-0.012094
0.01023
-0.028678
-0.038245
-0.071093
-0.093416
-0.034737
0.020116
0.010548
-0.022618
-0.0085862
0.0095917
-0.018153
-0.0015702
0.033829
0.063806
0.068271
0.044353
0.027132
0.03925
0.031596
0.0076782
0.019159
0.0003433
-0.0060349
-0.042072
-0.022937
0.014694
-0.031548
0.0022568
0.027132
0.020754
0.022029
0.038294
0.049774
0.03064
0.034467
0.089319
0.052963
-0.0012513
-0.053234
-0.10171
-0.11223
-0.13296
-0.17888
-0.18431
-0.2162
-0.26499
-0.26818
-0.29433
-0.30071
-0.27392
-0.29688
-0.28636
-0.25478
-0.25861
-0.25319
-0.22832
-0.18175
-0.15273
-0.13998
-0.0982
-0.081298
-0.032504
-0.022618
-0.0038025
0.0016189
0.021072
0.037337
0.053282
0.072736
0.054558
0.046585
0.071141
0.064444
0.081984
0.10367
0.12153
0.069866
0.10782
0.14545
0.1244
0.12408
0.18659
0.22836
0.20987
0.21656
0.26089
0.25675
0.24846
0.19839
0.18372
0.23602
0.19647
0.16235
0.15533
0.11451
0.13237
0.049774
0.039888
0.020754
-0.005716
-0.04845
-0.050363
-0.03665
-0.09533
-0.15305
-0.21141
-0.2028
-0.15592
-0.14731
-0.19387
-0.2398
-0.21811
-0.20663
-0.20727
-0.20567
-0.20025
-0.18941
-0.17601
-0.21715
-0.23437
-0.22704
-0.21237
-0.18941
-0.16772
-0.19036
-0.15911
-0.1454
-0.16007
-0.15752
-0.11287
-0.095649
-0.089908
-0.07173
-0.060887
-0.024851
-0.010819
-0.04271
-0.059293
-0.0098618
0.004808
-0.022618
-0.059293
-0.034418
-0.0105
-0.022937
0.015013
0.047542
0.037656
0.052326
0.027451
0.020435
0.037975
0.075287
0.03638
0.031278
0.10048
0.093146
0.0028946
0.024899
0.024899
0.03064
0.073374
0.057109
0.072417
0.090595
0.018521
0.025218
0.096016
0.096973
0.061893
0.050412
0.054558
0.036699
0.008635
0.037975
0.060298
0.082622
0.05105
0.061574
0.047861
0.042439
0.056153
0.095378
0.1547
0.13301
0.12504
0.08326
0.078795
0.098886
0.10973
0.075287
0.039569
0.0099106
0.0131
0.029045
-0.01624
-0.010819
-0.050363
-0.072368
-0.1438
-0.17059
-0.20631
-0.22002
-0.24936
-0.26053
-0.27934
-0.27232
-0.27966
-0.29273
-0.31984
-0.30996
-0.28636
-0.27615
-0.23182
-0.20567
-0.20185
-0.18781
-0.16836
-0.15688
-0.13232
-0.11446
-0.11638
-0.1218
-0.1202
-0.094054
-0.087038
-0.047174
-0.06599
-0.033142
-0.032504
