0.026175
0.023624
0.02171
0.019159
0.014375
0.011824
0.020754
0.021391
0.01884
0.019797
0.022986
0.026494
0.030959
0.037018
0.034786
0.034148
0.035423
0.038931
0.038294
0.034786
0.031596
0.028088
0.028726
0.032553
0.036699
0.033829
0.033829
0.036699
0.040207
0.047223
0.051688
0.046266
0.046585
0.05105
0.049455
0.048818
0.044991
0.041483
0.036699
0.042758
0.045947
0.045947
0.042758
0.044991
0.049137
0.050412
0.057747
0.060298
0.058066
0.055515
0.059342
0.058066
0.055834
0.052007
0.046904
0.044353
0.052326
0.052645
0.049774
0.048818
0.050412
0.054877
0.058385
0.063806
0.060298
0.059023
0.059661
0.061255
0.059023
0.05679
0.052645
0.046585
0.044991
0.05105
0.052963
0.047861
0.04818
0.049455
0.051688
0.055515
0.061255
0.053601
0.053601
0.055515
0.054239
0.052007
0.046266
0.040207
0.035423
0.038612
0.03925
0.039888
0.035742
0.035423
0.037337
0.037018
0.042439
0.045947
0.03925
0.035742
0.038931
0.03638
0.030002
0.027132
0.020754
0.015651
0.022986
0.021391
0.01597
0.011824
0.014375
0.016608
0.017246
0.022348
0.01884
0.014694
0.013419
0.014375
0.01023
0.0070404
0.0025757
-0.0044404
-0.0085862
-0.0028458
-0.0018891
-0.0073105
-0.0085862
-0.0073105
-0.0060349
-0.0028458
0.0013
-0.0073105
-0.0079484
-0.0066727
-0.0076295
-0.011775
-0.017835
-0.022299
-0.028996
-0.02804
-0.027083
-0.02804
-0.03378
-0.034099
-0.033461
-0.034737
-0.031548
-0.028678
-0.03665
-0.039839
-0.038883
-0.043347
-0.047174
-0.053552
-0.061844
-0.067903
-0.063439
-0.064714
-0.06886
-0.073325
-0.074919
-0.075238
-0.075557
-0.072368
-0.074601
-0.080979
-0.086081
-0.086081
-0.090546
-0.095649
-0.10171
-0.11064
-0.11542
-0.11159
-0.11383
-0.11989
-0.12307
-0.12467
-0.12307
-0.12371
-0.12084
-0.12786
-0.13169
-0.13169
-0.13392
-0.13743
-0.14125
-0.14795
-0.15433
-0.15401
-0.15146
-0.15146
-0.1572
-0.15688
-0.15433
-0.15433
-0.15018
-0.14636
-0.15273
-0.15433
-0.15114
-0.15273
-0.15305
-0.15656
-0.1623
-0.16581
-0.15911
-0.1572
-0.15752
-0.16103
-0.15784
-0.15497
-0.15146
-0.14572
-0.14157
-0.14604
-0.14604
-0.14189
-0.14317
-0.14572
-0.14604
-0.15018
-0.15178
-0.14412
-0.14125
-0.14285
-0.14157
-0.13902
-0.13392
-0.12882
-0.12148
-0.12212
-0.12212
-0.11925
-0.11765
-0.11606
-0.11797
-0.11957
-0.12403
-0.12148
-0.11446
-0.11128
-0.11383
-0.11096
-0.10649
-0.10266
-0.097243
-0.088314
-0.094054
-0.091822
-0.086081
-0.085125
-0.084487
-0.085762
-0.08927
-0.090227
-0.083211
-0.080022
-0.076833
-0.076833
-0.072687
-0.06886
-0.06312
-0.055466
-0.050044
-0.052277
-0.051639
-0.046536
-0.044304
-0.04558
-0.045899
-0.047812
-0.048769
-0.039839
-0.03665
-0.036969
-0.037607
-0.032504
-0.027083
-0.022618
-0.013689
-0.014008
-0.015921
-0.012732
-0.009224
-0.0095429
-0.011137
-0.012413
-0.016559
-0.015921
-0.0076295
-0.0044404
-0.0063538
-0.0041214
0.00098112
0.0051269
0.011824
0.017883
0.0131
0.016608
0.021391
0.02171
0.022029
0.019797
0.017246
0.014056
0.018521
0.023943
0.024899
0.024899
0.027132
0.030959
0.034148
0.040845
0.045947
0.042439
0.041164
0.046585
0.046904
0.04531
0.043077
0.038612
0.035742
0.043396
0.045629
0.043077
0.043077
0.045947
0.050731
0.05392
0.059979
0.059661
0.057109
0.057747
0.061255
0.059342
0.056471
0.05392
0.048818
0.047542
0.05392
0.056471
0.052963
0.052326
0.055515
0.058385
0.062212
0.067633
0.061574
0.063806
0.064125
0.066995
0.063806
0.060936
0.055515
0.052007
0.054239
0.057747
0.059661
0.055834
0.057109
0.060617
0.062212
0.066358
0.072417
0.066995
0.065082
0.067952
0.067314
0.065401
0.060617
0.057428
0.053282
0.060617
0.062212
0.059342
0.056153
0.058704
0.061255
0.064763
0.069547
0.069866
0.067314
0.064444
0.068271
0.066039
0.063169
0.060617
0.054558
0.051369
0.060936
0.059979
0.055515
0.056471
0.058385
0.062212
0.066677
0.072417
0.065082
0.065082
0.067314
0.067633
0.06572
0.062531
0.057747
0.052963
0.052645
0.058385
0.059661
0.055834
0.056153
0.058385
0.059342
0.066039
0.069547
0.063169
0.063487
0.06572
0.064444
0.06285
0.057747
0.053601
0.048818
0.055515
0.055515
0.054239
0.052007
0.053282
0.056471
0.059661
0.063806
0.06572
0.06285
0.059661
0.062531
0.061574
0.05679
0.053282
0.048818
0.04531
0.051369
0.051688
0.047542
0.046904
0.046904
0.049774
0.052007
0.057428
0.053282
0.051688
0.051688
0.052645
0.049137
0.044672
0.040207
0.033191
0.033829
0.037337
0.03925
0.033829
0.034148
0.035423
0.03638
0.03925
0.044353
0.037337
0.035423
0.037975
0.03638
0.033191
0.028088
0.022348
0.018202
0.021391
0.022029
0.020435
0.017246
0.017246
0.021072
0.021072
0.02458
0.026494
0.020754
0.017883
0.020435
0.017883
0.014375
0.008635
0.0041702
-0.0018891
0.0051269
0.0054459
0.00066221
-0.0028458
-0.0015702
0.0016189
0.0035324
0.01023
0.0051269
0.0028946
0.0013
0.0025757
-0.00029452
-0.0047593
-0.0082673
-0.014327
-0.016878
-0.012732
-0.0105
-0.015921
-0.014964
-0.013689
-0.012094
-0.0089051
-0.0034836
-0.011456
-0.011137
-0.0089051
-0.0098618
-0.011775
-0.017197
-0.021661
-0.026126
-0.024213
-0.020386
-0.022299
-0.026445
-0.023575
-0.020067
-0.019748
-0.01337
-0.011775
-0.015921
-0.017835
-0.014964
-0.015921
-0.018791
-0.02198
-0.027402
-0.031229
-0.023894
-0.023894
-0.025488
-0.028678
-0.026764
-0.02198
-0.020067
-0.014645
-0.014327
-0.016878
-0.018153
-0.014327
-0.016559
-0.019429
-0.022618
-0.028359
-0.029634
-0.022937
-0.019748
-0.023894
-0.023575
-0.020067
-0.016878
-0.011456
-0.0053971
-0.0098618
-0.0095429
-0.005716
-0.0047593
-0.0041214
-0.0085862
-0.0105
-0.014964
-0.011775
-0.0069916
-0.0044404
-0.0082673
-0.0050782
-0.002208
0.0003433
0.0064026
0.0099106
0.0060837
0.0057648
0.01023
0.010548
0.0076782
0.004808
0.0013
-0.0015702
0.0064026
0.0067215
0.0064026
0.004808
0.0079971
0.013738
0.016927
0.024262
0.024899
0.022348
0.022986
0.026494
0.025537
0.023305
0.022348
0.016289
0.01597
0.02171
0.023305
0.02171
0.021391
0.024262
0.027451
0.030002
0.037975
0.03351
0.032872
0.034786
0.035742
0.033829
0.030959
0.02777
0.022667
0.023305
0.029364
0.031596
0.028088
0.029045
0.032234
0.036699
0.043077
0.049455
0.044991
0.046266
0.054239
0.054558
0.055196
0.053601
0.053601
0.052326
0.060617
0.066358
0.067633
0.069228
0.073374
0.081028
0.086768
0.093784
0.10048
0.098886
0.099843
0.10495
0.10558
0.1059
0.10526
0.099843
0.099524
0.10813
0.11005
0.10813
0.10877
0.11069
0.11388
0.11675
0.12153
0.11834
0.11738
0.11834
0.1193
0.11706
0.1126
0.10877
0.10239
0.10016
0.10495
0.10654
0.099843
0.10016
0.10112
0.1008
0.10399
0.10813
0.099524
0.09793
0.099524
0.09793
0.093465
0.08613
0.078157
0.073055
0.075925
0.075925
0.072417
0.068271
0.066358
0.066358
0.066039
0.069228
0.071141
0.063487
0.058385
0.060617
0.05679
0.052645
0.045947
0.03925
0.034467
0.036699
0.036699
0.031596
0.028407
0.02777
0.027451
0.028088
0.032234
0.029364
0.023943
0.022348
0.022029
0.019159
0.014694
0.008635
0.0019378
-0.0012513
0.0038513
0.0057648
0.0003433
-0.00061343
0.00066221
0.0022568
0.0057648
0.011505
0.0044891
0.0044891
0.0054459
0.0060837
0.0025757
-0.00061343
-0.005716
-0.010819
-0.0076295
-0.0047593
-0.0044404
-0.0085862
-0.0063538
-0.0031647
-0.0025269
0.0019378
0.0076782
0.0032135
0.0019378
0.0060837
0.0044891
0.0022568
-0.00029452
-0.0044404
-0.0079484
0.0003433
0.00098112
-0.00093234
-0.0015702
0.0003433
0.0051269
0.0095917
0.014056
0.01597
0.014056
0.013419
0.017564
0.015332
0.014694
0.011505
0.0076782
0.0054459
0.014375
0.01597
0.012143
0.014694
0.016927
0.020754
0.025856
0.032234
0.024899
0.026494
0.03064
0.031278
0.030959
0.027132
0.023305
0.020435
0.020754
0.025537
0.026175
0.022986
0.022986
0.028407
0.030002
0.031278
0.037018
0.030959
0.030959
0.034786
0.032234
0.030321
0.025856
0.018521
0.015651
0.021391
0.021391
0.019797
0.016289
0.017564
0.020754
0.025537
0.043077
0.063806
0.045629
0.039569
0.044672
0.047542
0.051688
0.048818
0.043077
0.039888
0.044672
0.048499
0.042758
0.028407
0.023305
0.014694
0.015651
0.020435
0.011505
0.0051269
-0.00061343
-0.0050782
-0.011137
-0.016878
-0.02198
-0.028359
-0.028678
-0.024213
-0.023256
-0.025807
-0.026126
-0.022618
-0.019748
-0.015283
-0.0105
-0.015283
-0.014964
-0.011137
-0.013051
-0.015283
-0.017835
-0.019748
-0.02517
-0.021024
-0.019748
-0.019429
-0.021661
-0.020705
-0.017516
-0.014964
-0.0085862
-0.005716
-0.0098618
-0.011775
-0.0073105
-0.009224
-0.010819
-0.012732
-0.018153
-0.020386
-0.014008
-0.013689
-0.015602
-0.01624
-0.014964
-0.010819
-0.0085862
-0.0031647
-0.0053971
-0.0050782
-0.0060349
-0.0050782
-0.0060349
-0.0089051
-0.011775
-0.018791
-0.019429
-0.01337
-0.010181
-0.014964
-0.015283
-0.01337
-0.011775
-0.0085862
0.0013
-0.0038025
-0.0073105
-0.0063538
-0.0066727
-0.0076295
-0.012413
-0.016559
-0.021343
-0.016878
-0.018791
-0.019748
-0.023575
-0.021343
-0.020067
-0.019429
-0.014008
-0.015602
-0.018791
-0.019748
-0.016878
-0.014008
-0.017197
-0.02198
-0.027083
-0.031229
-0.020705
-0.023575
-0.023894
-0.028996
-0.028996
-0.023575
-0.018791
-0.017516
-0.018472
-0.01911
-0.020705
-0.023256
-0.023256
-0.023575
-0.02804
-0.03378
-0.03378
-0.029634
-0.026126
-0.029953
-0.029634
-0.027402
-0.023575
-0.019748
-0.014645
-0.016878
-0.017516
-0.015283
-0.013689
-0.017516
-0.019748
-0.023256
-0.026445
-0.024851
-0.023894
-0.020705
-0.022618
-0.022618
-0.019429
-0.017835
-0.013051
-0.0076295
-0.013051
-0.013689
-0.010181
-0.011137
-0.012094
-0.014645
-0.019429
-0.024213
-0.017197
-0.015921
-0.017835
-0.018472
-0.017835
-0.013689
-0.01337
-0.0069916
-0.0063538
-0.009224
-0.0095429
-0.0063538
-0.0082673
-0.009224
-0.012094
-0.017835
-0.01911
-0.014008
-0.011456
-0.015602
-0.014964
-0.012094
-0.0089051
-0.0066727
-0.00061343
-0.0047593
-0.0041214
-0.0025269
-0.002208
-0.0031647
-0.0066727
-0.0095429
-0.014327
-0.014964
-0.010181
-0.0076295
-0.0098618
-0.0098618
-0.0060349
-0.0050782
-0.00093234
0.0044891
0.00098112
-0.00093234
0.0051269
0.0032135
0.0003433
-0.00093234
-0.005716
-0.0095429
-0.0038025
-0.0028458
-0.0034836
-0.005716
-0.0038025
-0.00093234
0.0032135
0.0064026
0.0092728
0.0067215
0.0038513
0.0073593
0.0064026
0.0044891
0.0013
-0.002208
-0.0060349
0.0013
0.0013
-0.0018891
-0.0015702
-0.00061343
0.0028946
0.0064026
0.010867
0.0060837
0.0070404
0.0092728
0.0076782
0.0076782
0.0051269
-0.00061343
-0.0031647
-0.0038025
0.0013
0.0025757
0.0016189
0.0016189
0.0041702
0.0060837
0.014056
0.016927
0.013738
0.014694
0.018521
0.017564
0.014056
0.01023
0.0067215
0.0032135
0.0095917
0.01023
0.008635
0.0054459
0.0067215
0.0095917
0.01023
0.014056
0.017246
0.014694
0.010548
0.015332
0.0131
0.010867
0.0079971
0.0044891
2.4388e-05
0.0073593
0.0070404
0.0044891
0.0038513
0.0035324
0.0089539
0.0092728
0.015013
0.012143
0.012781
0.01023
0.01884
0.041483
0.036699
0.034786
0.024262
0.028407
0.037975
0.046585
0.045947
0.048818
0.045947
0.04531
0.058704
0.06285
0.030321
0.0070404
0.020435
0.025537
0.0076782
-0.002208
-0.01624
-0.029634
-0.016878
-0.023894
-0.030591
-0.025488
-0.024851
-0.027721
-0.032823
-0.03091
-0.012413
-0.0098618
-0.009224
-0.013689
-0.03091
-0.023575
-0.017197
-0.027721
-0.028996
-0.022937
-0.023894
-0.02198
-0.038564
-0.031548
-0.022618
-0.028996
-0.018791
-0.016559
-0.026764
-0.0079484
0.0032135
0.047223
0.038294
-0.0025269
-0.01337
0.0022568
0.028088
0.032234
0.021072
0.019159
0.020116
0.011824
0.0060837
0.0051269
-0.052596
-0.05419
-0.046855
-0.047812
-0.056742
-0.080979
-0.097243
-0.10872
-0.10936
-0.10139
-0.099157
-0.09533
-0.094054
-0.091184
-0.081617
-0.073963
-0.070774
-0.073644
-0.067585
-0.060569
-0.06025
-0.063439
-0.064395
-0.06599
-0.066947
-0.058974
-0.056423
-0.054509
-0.051001
-0.044304
-0.040158
-0.030591
-0.010819
-0.0063538
-0.0044404
-0.0028458
-0.0044404
-0.0041214
-0.0050782
-0.0044404
-0.017197
-0.010181
-0.0066727
-0.01624
-0.014964
-0.02804
-0.037288
-0.034737
-0.03952
-0.040158
-0.048769
-0.056742
-0.054828
-0.043985
-0.055466
-0.058655
-0.079065
-0.078746
-0.087038
-0.079065
-0.074919
-0.073006
-0.068541
-0.058017
-0.056423
-0.063758
-0.053234
-0.049407
-0.036969
-0.032186
-0.030272
-0.022937
-0.020067
-0.016878
-0.016878
-0.005716
-0.002208
0.00098112
0.0016189
0.0028946
0.010548
0.016289
0.020435
0.023305
0.020116
0.018521
0.021072
0.02171
0.031915
0.026494
0.017564
0.013419
0.020754
0.019478
0.016927
0.014375
0.017883
0.024899
0.029364
0.028407
0.021072
0.01884
0.020435
0.014694
0.013738
0.012781
0.013419
0.0057648
2.4388e-05
0.0032135
0.010548
0.0038513
0.00098112
0.014375
0.010548
0.0079971
0.017246
0.0032135
-0.0050782
0.008316
0.0060837
0.0013
-0.013689
-0.02517
-0.019429
-0.024213
-0.023575
-0.023894
-0.028996
-0.03091
-0.02517
-0.024213
-0.023894
-0.01624
-0.01911
-0.021343
-0.016878
-0.018472
-0.019429
-0.020386
-0.023575
-0.024851
-0.020067
-0.017835
-0.020067
-0.0098618
0.026175
0.038294
0.073055
0.070503
0.054239
0.052326
0.064763
0.076244
0.081984
0.079114
0.086768
0.071779
0.059979
0.016927
-0.0069916
0.0044891
-0.0073105
-0.020705
-0.043985
-0.052915
-0.052596
-0.071411
-0.080022
-0.086719
-0.0864
-0.083849
-0.084487
-0.085762
-0.084168
-0.08066
-0.074601
-0.069498
-0.068222
-0.063758
-0.058336
-0.053871
-0.045899
-0.039202
-0.040477
-0.040477
-0.035375
-0.034099
-0.03378
-0.037926
-0.03952
-0.036331
-0.02517
-0.025488
-0.024213
-0.0031647
-0.0044404
-0.0098618
-0.0069916
0.0025757
0.0070404
0.0032135
-0.00061343
-0.0034836
0.0057648
0.0054459
0.0025757
-0.01624
-0.028996
-0.020705
-0.015602
-0.027402
-0.024213
-0.01624
-0.012413
-0.013051
-0.012094
-0.014964
-0.012094
-0.0105
-0.017197
-0.01911
-0.024213
-0.02517
-0.035056
-0.037607
-0.035375
-0.027083
-0.022618
-0.02517
-0.032504
-0.029315
-0.020705
-0.012094
-0.010819
-0.0082673
-0.0031647
-0.0028458
-0.0015702
-0.0025269
-0.0053971
-0.009224
-0.0015702
-0.00093234
-0.00093234
-0.0041214
-0.0034836
0.0013
0.0038513
0.0079971
0.011505
0.0073593
0.0041702
0.016927
0.014694
0.014694
0.014375
0.0041702
0.0016189
0.004808
0.0035324
0.0016189
2.4388e-05
0.0044891
0.012143
0.013738
0.008316
-0.0082673
-0.010181
-0.0060349
-0.00061343
-0.0015702
-0.013689
-0.017835
-0.025807
-0.022618
-0.016878
-0.014964
-0.018791
-0.017516
-0.014645
-0.012413
-0.0069916
-0.0015702
-0.0066727
-0.0066727
-0.002208
-0.0038025
-0.0063538
-0.011456
-0.01337
-0.016559
-0.0089051
-0.0066727
-0.0095429
-0.0028458
0.0067215
0.023305
0.03064
0.044991
0.093784
0.13556
0.10303
0.093465
0.087087
0.099843
0.11579
0.10271
0.086768
0.10144
0.10877
0.063487
0.038612
-0.033142
-0.014327
-0.014327
-0.045261
-0.051639
-0.06886
-0.082892
-0.10139
-0.10936
-0.11064
-0.11446
-0.11638
-0.11128
-0.093735
-0.094373
-0.097243
-0.09246
-0.076514
-0.069817
-0.063758
-0.05419
-0.053871
-0.050682
-0.042391
-0.038883
-0.036969
-0.037288
-0.037288
-0.039839
-0.032186
-0.027721
-0.025488
-0.025807
-0.022618
-0.018791
-0.014645
-0.0085862
-0.0044404
-0.0060349
-0.0076295
-0.0031647
-0.0034836
-0.005716
-0.0098618
-0.011775
-0.015283
-0.0076295
0.0057648
0.012462
0.0051269
0.0028946
0.02171
0.026813
0.023305
0.019159
0.021391
0.023624
0.02458
0.022029
0.017564
2.4388e-05
-0.0098618
-0.013689
-0.015921
-0.020067
-0.021343
-0.032823
-0.033461
-0.034737
-0.03091
-0.026764
-0.026764
-0.021024
-0.027083
-0.023575
-0.02517
-0.024213
-0.022937
-0.023256
-0.026126
-0.02517
-0.01911
-0.01911
-0.021024
-0.017197
-0.014327
-0.015921
-0.012094
-0.014645
-0.014008
-0.014008
-0.0089051
-0.014327
-0.01911
-0.018153
-0.022299
-0.015921
-0.013051
-0.01337
-0.0098618
0.0032135
0.05105
0.11802
0.13492
0.10495
0.12759
0.11898
0.13173
0.11898
0.11005
0.13205
0.16171
0.14672
0.10399
0.039888
-0.014008
-0.022937
0.0044891
-0.0082673
-0.062163
-0.079703
-0.10394
-0.1285
-0.12818
-0.12977
-0.12722
-0.12531
-0.12212
-0.10968
-0.10171
-0.10107
-0.087357
-0.090546
-0.090227
-0.073644
-0.075557
-0.067903
-0.062163
-0.06312
-0.06025
-0.070774
-0.078427
-0.06312
-0.061525
-0.062163
-0.069817
-0.067585
-0.059612
-0.047812
-0.047493
-0.036331
-0.028678
-0.02198
-0.011456
0.0016189
0.0073593
0.014056
0.032234
0.051688
0.081028
0.087406
0.082622
0.066995
0.071779
0.094741
0.10399
0.12631
0.11706
0.12089
0.1244
0.074012
0.064763
0.00098112
0.015013
0.044353
0.023943
-0.021024
-0.069179
-0.072368
-0.078109
-0.083849
-0.090546
-0.096605
-0.097562
-0.085125
-0.089589
-0.078109
-0.06599
-0.065033
-0.054509
-0.044623
-0.043028
-0.040477
-0.035375
-0.035694
-0.034099
-0.02517
-0.026126
-0.016559
-0.010181
-0.0076295
0.0025757
0.029045
0.051688
0.046904
0.03064
0.029045
0.050412
0.046904
0.038931
0.037975
0.035423
0.023624
0.024899
0.0003433
-0.014008
-0.0034836
-0.014008
-0.022299
-0.034418
-0.031229
-0.031229
-0.044623
-0.033461
-0.026445
-0.028359
0.0060837
0.011824
0.022348
0.0067215
0.00098112
0.0054459
-0.00061343
0.012143
0.024899
0.028726
0.031278
0.016289
-0.036969
-0.043028
-0.030591
-0.035056
-0.041434
-0.047174
-0.049088
-0.075876
-0.067585
-0.071411
-0.06025
-0.053234
-0.046218
-0.03378
-0.027721
-0.030272
-0.014645
-0.021024
-0.028678
-0.020705
-0.016559
-0.019748
-0.028359
-0.035694
-0.026126
-0.019748
-0.018472
-0.022937
-0.026764
-0.018791
-0.012094
-0.0050782
0.0032135
0.0064026
0.010548
0.022348
0.02171
0.030002
0.029045
0.023624
0.0079971
0.011505
0.029364
0.022348
0.025856
0.027132
0.016927
0.028726
0.027451
0.026494
0.0076782
0.0054459
0.024262
0.013738
0.017564
0.059661
0.048499
-0.011456
0.015013
0.04531
0.059979
0.059023
0.065082
0.057109
0.063169
0.058066
0.048818
0.0057648
0.03351
0.023943
-0.012094
-0.014327
-0.020067
-0.046536
-0.067266
-0.052915
-0.058655
-0.068541
-0.068541
-0.078427
-0.085762
-0.078746
-0.073006
-0.034099
-0.002208
-0.013689
-0.040796
-0.026445
-0.042391
-0.043347
-0.023575
-0.023575
-0.027721
-0.012413
-0.033142
-0.033142
-0.022299
-0.019429
-0.022299
-0.029634
-0.02517
-0.018791
-0.012732
-0.012094
-0.024851
-0.02804
-0.017516
-0.036331
-0.028678
-0.01624
-0.013051
-0.015921
-0.012732
-0.015283
-0.022299
-0.016559
-0.0050782
0.0032135
-0.0047593
0.0057648
-0.0018891
0.016289
0.038612
0.084217
0.063487
0.063806
0.081984
0.099524
0.10271
0.058704
0.061893
0.10941
0.13684
0.085811
0.051369
0.041802
0.022986
0.035104
0.047861
-0.00093234
-0.026126
-0.029953
-0.0015702
0.00066221
-0.027083
-0.029953
0.01597
0.018202
0.038931
0.012143
-0.0047593
-0.0095429
0.027132
0.021391
-0.0063538
-0.027083
-0.018791
-0.077152
-0.091822
-0.091503
-0.097881
-0.11925
-0.092141
-0.088314
-0.087676
-0.095968
-0.10585
-0.083849
-0.035375
0.010867
0.033829
0.0044891
-0.00061343
0.05392
0.066677
0.067314
0.10909
0.095697
0.096016
0.064763
0.058385
0.05679
0.056471
0.019797
0.017246
-0.012413
-0.04845
-0.055466
-0.05419
-0.099794
-0.10745
-0.048131
-0.02804
-0.028678
-0.017197
-0.00029452
-0.01624
-0.012094
-0.011137
-0.0105
0.010867
0.026813
0.035423
0.045629
0.02777
0.0022568
-0.0012513
-0.060887
-0.066947
-0.053871
-0.054509
-0.072049
-0.076195
-0.078427
-0.091503
-0.090546
-0.060569
-0.068222
-0.049088
-0.043985
-0.035056
-0.014645
-0.012094
0.012143
0.031278
0.06572
0.10399
0.17606
0.14417
0.12504
0.15119
0.16905
0.17638
0.15087
0.1126
0.1362
0.11706
0.052645
0.047223
-0.0085862
-0.0105
-0.032823
-0.08927
-0.095011
-0.065352
-0.059612
-0.10171
-0.090546
-0.1049
-0.071411
-0.038245
-0.051001
-0.038564
-0.012413
-0.027721
-0.051639
-0.031229
-0.053871
-0.051958
-0.029315
-0.04845
-0.03665
-0.027721
-0.0066727
2.4388e-05
0.013738
0.058385
0.046904
0.068271
0.06859
0.066995
0.066677
0.093784
0.064125
0.055834
0.049137
0.06859
0.042758
0.069547
0.055834
0.018521
-0.04845
-0.043985
-0.030272
-0.0066727
-0.005716
-0.026126
-0.033142
-0.038564
-0.015921
-0.023894
-0.044304
-0.031229
-0.023575
-0.02517
-0.021343
-0.03091
-0.012413
-0.035375
-0.042391
-0.032504
-0.0073105
-0.034418
-0.027083
-0.012413
-0.0050782
-0.0085862
0.010867
0.060617
0.067952
0.091233
0.099843
0.10144
0.09793
0.092827
0.08326
0.14098
0.13046
0.1244
0.1126
0.087725
0.041164
0.0032135
-0.032186
-0.0085862
-0.0047593
-0.040796
-0.078746
-0.020067
-0.0038025
0.023305
0.050093
0.031596
0.0057648
0.015651
0.0016189
0.011505
0.029045
0.083898
0.068909
0.030321
0.0013
0.0016189
-0.052915
-0.065352
-0.052915
-0.046218
-0.037607
-0.038245
-0.020386
0.056153
0.05679
0.028088
0.025537
0.047542
0.1008
0.10782
0.097611
0.099524
0.13492
0.085811
0.017246
0.057109
0.03351
-0.016559
-0.0076295
-0.012094
-0.026126
-0.061844
-0.078427
-0.083211
-0.077471
-0.091503
-0.084487
-0.076833
-0.069179
-0.040796
-0.033142
-0.014008
0.0131
0.031596
0.058704
0.16458
0.17224
0.15214
0.1244
0.11164
0.077201
0.098249
0.11324
0.15725
0.12695
0.085492
0.044991
0.035423
-0.0079484
-0.029953
-0.023894
-0.044942
-0.071411
-0.076514
-0.078746
-0.074601
-0.06599
-0.041434
-0.038564
-0.0044404
0.037337
0.022986
0.01884
0.0079971
0.011824
0.0051269
0.015651
0.049455
0.047542
0.066677
-0.0028458
-0.010181
-0.035056
-0.023575
0.0013
-0.020067
-0.033142
-0.034099
-0.065033
0.0041702
0.052007
0.070185
0.099843
0.10048
0.087406
0.044034
0.045947
0.035104
0.083898
0.13779
0.098568
0.07752
-0.0089051
-0.052915
-0.044942
0.01023
-0.019429
-0.021661
0.014694
0.017246
0.008635
-0.0012513
-0.023575
-0.013689
-0.0098618
-0.012413
0.020435
0.0003433
-0.047174
-0.071093
-0.079065
-0.12116
-0.11415
-0.10011
-0.13774
-0.15114
-0.13041
-0.12244
-0.10235
-0.048131
-0.019748
0.0022568
0.022029
0.047223
0.05105
0.096335
0.084854
0.069866
0.060298
0.087087
0.096335
0.083898
0.042758
0.028407
0.035104
0.022029
-0.015602
-0.041434
-0.064077
-0.039202
-0.036969
-0.043985
-0.057698
-0.052915
-0.038564
-0.033461
-0.015283
-0.012094
0.019797
0.026494
0.081984
0.13652
0.16394
0.15629
0.12759
0.095378
0.08326
0.045947
0.029683
0.072736
0.074968
0.019478
-0.035375
-0.032504
-0.067266
-0.10681
-0.15178
-0.17123
-0.17697
-0.16517
-0.1387
-0.12403
-0.11383
-0.11957
-0.10809
-0.10266
-0.052915
-0.0982
-0.11542
-0.06599
-0.060887
-0.055785
-0.065352
-0.043028
-0.031548
-0.011456
-0.046855
-0.097562
-0.056423
-0.056742
-0.062163
-0.062163
-0.032186
-0.020705
-0.045261
-0.066628
-0.052596
-0.040477
-0.050044
-0.05132
-0.053234
-0.031229
-0.067266
0.01023
0.069866
0.065082
0.058385
0.068909
0.043396
0.029683
0.019159
0.0019378
0.049774
0.055196
0.029683
-0.023575
-0.021343
-0.041434
-0.058017
-0.060887
-0.088633
-0.13041
-0.13456
-0.14125
-0.12658
-0.11032
-0.10171
-0.12658
-0.11319
-0.07779
-0.067903
-0.089589
-0.096286
-0.08927
-0.055785
-0.041115
-0.026764
-0.0053971
-0.029953
-0.022937
-0.088633
-0.066947
-0.052915
-0.066309
-0.058655
-0.087357
-0.09246
-0.092141
-0.10649
-0.090865
-0.087995
-0.10809
-0.11957
-0.11383
-0.10777
-0.087676
0.013419
0.03351
0.11005
0.092189
0.04531
-0.012413
0.0092728
0.0070404
-0.0034836
0.038294
0.054239
0.022348
0.0003433
-0.048769
-0.080979
-0.12435
-0.1403
-0.16772
-0.16358
-0.16421
-0.16007
-0.16772
-0.1674
-0.14667
-0.12722
-0.1167
-0.10585
-0.05132
-0.027083
-0.011137
0.023305
0.038612
0.063487
0.049137
0.058704
0.047223
0.03351
0.038294
0.010548
-0.039839
-0.022618
0.01023
-0.025807
-0.059612
-0.11733
-0.13487
-0.14093
-0.1454
-0.1454
-0.15018
-0.1387
-0.0864
0.0019378
-0.016878
-0.035375
-0.046855
-0.058017
-0.014645
0.0003433
0.0079971
0.018521
-0.0073105
-0.038883
-0.010181
-0.046218
-0.095968
-0.087357
-0.11128
-0.11096
-0.12084
-0.097243
-0.086719
-0.085762
-0.099476
-0.084487
-0.067266
-0.078427
-0.081617
-0.046218
-0.058017
-0.047493
-0.055785
-0.036969
-0.023575
-0.046855
-0.064077
-0.074282
-0.068222
-0.094054
-0.068541
-0.053552
-0.0069916
-0.03665
-0.056423
-0.035694
-0.012094
-0.0038025
0.0057648
-0.1167
-0.0085862
0.041483
-0.019429
-0.071093
-0.051001
-0.064077
-0.077471
-0.074919
-0.060569
-0.022937
0.040526
0.013738
0.0041702
-0.0066727
-0.030591
-0.028678
-0.032186
-0.014327
0.023305
0.050412
-0.00093234
-0.047812
-0.039839
-0.023894
0.029683
0.008635
0.050412
-0.0076295
-0.002208
-0.0053971
-0.015921
-0.019748
0.0067215
-0.03665
-0.03378
0.0035324
-0.088952
-0.13041
-0.11765
-0.14699
-0.1808
-0.17091
-0.14285
-0.16453
-0.1674
-0.14636
-0.13838
-0.13456
-0.089589
-0.077152
-0.070136
-0.055147
-0.056742
0.0060837
0.050093
0.02777
0.037337
0.035104
0.060936
0.11324
0.091233
0.10909
0.10877
0.052326
0.024262
0.061574
0.038612
0.047542
-0.0047593
0.018202
-0.025807
-0.07779
-0.12722
-0.11733
-0.11765
-0.1285
-0.11446
-0.097243
-0.096924
-0.087357
-0.041753
-0.01624
0.0095917
0.022986
0.0064026
0.028407
0.033191
0.032234
0.028088
0.0016189
0.046266
0.10686
0.048818
-0.023256
-0.049088
-0.033142
-0.040477
-0.023575
-0.035056
-0.043028
-0.072049
-0.091184
-0.063439
-0.064395
-0.069179
-0.05132
-0.010819
-0.035694
-0.01624
0.064763
0.11547
0.037337
0.031915
0.075287
0.084536
0.065401
0.06285
0.045947
0.051688
-0.014964
-0.014327
0.012462
-0.023894
-0.077471
-0.091503
-0.10203
-0.12626
-0.1033
-0.11255
-0.10617
-0.11064
-0.10649
-0.10649
-0.060569
-0.048769
-0.047174
-0.056104
-0.032823
0.017246
-0.020386
-0.028996
0.0044891
-0.020386
-0.029315
-0.0034836
0.037975
0.048818
0.0057648
0.050731
0.04531
0.022029
0.023624
0.03638
0.055834
0.052007
0.06572
0.052963
0.03925
0.067314
0.074649
0.044034
0.040845
0.05105
0.046585
0.053601
0.049774
0.090276
0.097292
0.057109
0.087725
0.11738
0.03925
0.098568
0.073055
0.042439
0.047223
0.025856
0.037018
0.044353
0.0092728
-0.029634
-0.049726
-0.054509
-0.072368
-0.13679
-0.11287
-0.11638
-0.13583
-0.13424
-0.14061
-0.13264
-0.11064
-0.10777
-0.10745
-0.10107
-0.081617
-0.066628
-0.071093
-0.053234
-0.040796
-0.077471
-0.067266
-0.023894
-0.018791
-0.036012
-0.04558
-0.040477
-0.037288
-0.02804
-0.02517
-0.023894
-0.0050782
-0.002208
-0.005716
0.050731
0.054239
0.05679
0.073055
0.070185
0.076882
0.075606
0.075925
0.098249
0.1464
0.11292
0.082622
0.077838
0.064763
0.037018
0.019159
0.010548
0.011505
0.012781
-0.045261
-0.050682
-0.056423
-0.055147
-0.077471
-0.1202
-0.08066
-0.046536
-0.06025
-0.069817
-0.065671
-0.046218
-0.028359
-0.023256
0.048818
0.052326
0.11738
0.063806
0.0013
-0.032186
0.03064
0.018202
0.035423
0.029045
-0.01337
-0.058017
-0.035694
-0.060569
-0.050682
-0.051639
-0.053234
-0.05132
-0.033142
-0.050682
-0.058655
-0.043028
-0.04845
-0.036331
-0.026126
-0.055466
-0.061525
-0.045899
-0.013689
0.043396
-0.011456
-0.037607
-0.027083
-0.022937
-0.021661
-0.0025269
-0.012413
-0.0073105
0.028407
0.044672
0.024262
-0.0085862
-0.009224
0.0032135
-0.015602
-0.00093234
-0.0089051
0.033829
0.0070404
0.021072
0.038931
0.049774
0.1008
0.081028
0.047542
0.057109
0.026813
0.020435
0.029045
0.023305
0.027451
-0.029634
-0.0050782
-0.005716
-0.057698
-0.071411
-0.081617
-0.071093
-0.057061
-0.067266
-0.069498
-0.086719
-0.080979
-0.061525
-0.055147
-0.044623
-0.037607
-0.03665
-0.047493
-0.012094
0.0092728
0.040526
0.011824
0.0060837
0.0070404
0.014375
-0.002208
0.038294
0.066039
0.045629
-0.034418
-0.021661
0.023624
-0.0015702
0.012143
0.027451
0.096654
0.035104
0.038612
0.084217
0.086449
0.088681
0.057747
0.10048
0.040526
0.060617
0.12631
0.051688
0.045947
-0.0105
-0.034418
0.0032135
-0.0069916
-0.019429
-0.073006
-0.054828
-0.015921
-0.010819
-0.038245
-0.086719
-0.038245
-0.021343
-0.035056
-0.03952
-0.03091
-0.06312
-0.11128
-0.090227
-0.069498
-0.074919
-0.10681
-0.10553
-0.096286
-0.058974
-0.048769
-0.050682
-0.053871
-0.066309
-0.052596
-0.050044
-0.047174
-0.040477
-0.028678
-0.060887
-0.040477
-0.028996
-0.044304
-0.034099
-0.029953
-0.023256
-0.03665
-0.025807
-0.031548
-0.018791
-0.015602
0.00098112
0.023305
0.031596
0.056471
0.082622
0.13142
0.10112
0.13907
0.087087
0.084217
0.11324
0.10686
0.11101
0.12695
0.12631
0.082303
0.040207
0.025218
-0.027083
-0.058017
-0.074282
-0.0089051
-0.047493
-0.080341
-0.079703
-0.076833
-0.087357
-0.062482
-0.044623
-0.019429
0.0022568
-0.025807
-0.033461
0.016608
0.011824
-0.0063538
-0.019429
-0.0012513
-0.054828
-0.078746
-0.0098618
-0.009224
0.0016189
-0.074919
-0.075238
-0.079703
-0.059931
-0.040796
-0.061206
-0.058017
-0.033461
-0.049088
-0.063439
-0.054828
-0.045899
-0.061206
-0.05132
-0.038883
-0.025807
-0.028996
-0.026445
-0.029315
-0.048131
-0.021661
2.4388e-05
-0.023575
0.00098112
0.044034
0.0092728
0.008316
0.020754
0.022667
0.08039
0.13078
0.10495
0.073374
0.074649
0.082622
0.065401
0.029045
0.095378
0.079752
0.07146
0.062531
-0.014327
0.00098112
-0.014008
-0.036331
-0.0012513
-0.015602
-0.035375
-0.0082673
-0.01624
-0.0050782
0.0076782
-0.0063538
0.068271
0.074649
0.02458
0.019797
0.0092728
0.025856
0.0028946
-0.031548
-0.042072
-0.027083
-0.063439
-0.025488
-0.035375
-0.032823
-0.018791
-0.056423
-0.077152
-0.051001
-0.037288
-0.042391
0.00066221
0.065401
0.01023
-0.043347
-0.052277
-0.036331
-0.012413
-0.0041214
-0.029315
-0.045261
-0.047812
-0.025807
0.020435
-0.0050782
0.036699
0.042121
0.0019378
0.012462
0.027132
0.037656
0.066677
0.03064
0.012462
-0.0098618
-0.0025269
-0.018153
-0.039839
-0.031229
-0.042391
-0.075238
-0.093735
-0.093735
-0.094692
-0.090227
-0.070774
-0.071411
-0.051958
-0.071411
-0.066309
-0.057698
-0.044304
-0.028359
-0.01624
-0.03665
-0.035694
-0.068541
-0.057061
-0.005716
-0.0089051
-0.030272
-0.046855
-0.057379
-0.070774
-0.059612
-0.056742
-0.050044
-0.065033
-0.062801
-0.031548
0.013419
0.042121
0.045947
0.044034
0.022348
0.02171
0.018202
0.023943
0.031278
0.061574
0.026494
-0.0025269
-0.015921
0.008635
-0.0018891
-0.02517
-0.064395
-0.087357
-0.048131
-0.037288
0.0079971
0.034786
0.044034
0.023305
0.041802
0.061893
0.033191
0.043715
0.044353
0.0051269
-0.048131
0.020754
0.046904
0.021072
-0.03952
-0.067585
-0.081617
-0.078109
-0.055466
-0.058974
-0.073325
-0.073325
-0.037607
-0.027083
-0.057061
-0.062163
-0.031229
-0.009224
0.074968
0.13333
0.089
0.044991
0.053601
0.020754
-0.0089051
-0.012413
0.0054459
0.004808
0.030959
0.008316
-0.051958
-0.075557
-0.11287
-0.14221
-0.15752
-0.15975
-0.14572
-0.12977
-0.13009
-0.12977
-0.10553
-0.0864
-0.070136
-0.068541
-0.072049
-0.040158
-0.041115
-0.0031647
-0.0098618
0.0041702
0.0073593
-0.015283
-0.023894
-0.038245
-0.052915
-0.002208
-0.0060349
0.013738
0.0044891
-0.015283
-0.046855
-0.052277
-0.032823
-0.03665
-0.039202
-0.030591
-0.011456
0.00098112
0.020435
0.035423
0.047861
0.030959
0.027132
0.012143
0.034786
0.066677
0.023624
-0.010819
-0.005716
-0.024851
-0.00029452
0.031278
0.0044891
-0.06599
-0.094054
-0.075557
-0.073963
-0.081617
-0.05419
-0.03952
-0.021343
-0.037607
-0.055785
-0.038564
-0.01624
-0.045899
-0.042072
-0.052596
-0.04271
-0.059931
-0.065671
-0.010181
0.010867
-0.026445
-0.047493
-0.027083
-0.023256
0.016289
0.0016189
0.0035324
-0.0034836
0.0022568
-0.0031647
0.0003433
0.0032135
0.0095917
-0.024851
-0.032504
-0.056742
-0.058336
-0.034418
-0.024213
-0.031229
-0.047493
-0.048769
-0.0053971
0.016289
-0.0060349
-0.059612
0.027451
0.06285
0.058704
0.042758
0.031915
0.008635
0.039888
0.029045
-0.0082673
0.015013
0.029364
-0.010181
-0.027083
-0.0098618
-0.044623
-0.062163
-0.069179
-0.10553
-0.081935
-0.093735
-0.10011
-0.10298
-0.10522
-0.099476
-0.091184
-0.097562
-0.08353
-0.021343
2.4388e-05
-0.011137
-0.0038025
-0.013051
-0.01624
-0.022937
0.049455
0.057109
0.077838
0.050412
0.03064
0.0131
0.010548
0.010548
0.011824
0.030002
0.0099106
-0.00061343
-0.0066727
-0.011775
-0.014327
-0.014645
-0.028996
-0.041115
-0.055147
-0.04558
-0.03952
-0.063758
0.0028946
0.0092728
0.01023
-0.0038025
0.031596
0.012462
0.02777
0.037975
0.081984
0.05392
0.031278
0.012143
0.034467
0.043077
0.02458
0.015651
0.0038513
0.030959
0.021391
-0.030591
-0.014964
-0.012413
-0.052915
-0.039202
-0.045899
-0.044623
-0.034099
-0.026764
-0.055785
-0.091503
-0.097562
-0.080979
-0.10011
-0.12212
-0.11415
-0.12116
-0.11446
-0.10139
-0.094054
-0.076514
-0.078109
-0.055147
-0.010819
-0.022299
-0.023256
-0.0063538
-0.020386
-0.018153
-0.013051
0.015332
0.040526
0.024899
0.042439
0.051369
0.080709
0.064444
0.044034
0.048499
0.069866
0.058066
0.05105
0.041483
0.061255
0.043715
0.016927
0.025218
-0.0041214
0.012143
0.016608
0.059342
0.048499
-0.00029452
-0.00093234
0.0070404
-0.0015702
-0.0018891
-0.010181
0.014694
-0.0076295
-0.014645
-0.032186
-0.046855
-0.06886
-0.071411
-0.042072
-0.073006
-0.077152
-0.078746
-0.054828
-0.0047593
0.069866
0.087406
0.069228
0.05105
0.051688
0.038931
0.061893
0.088362
0.090276
0.07752
0.028088
0.040526
-0.0053971
-0.0031647
-0.0044404
-0.028996
-0.043985
-0.055466
-0.066628
-0.078427
-0.08066
-0.062163
-0.057061
-0.053234
-0.063439
-0.064077
-0.074282
-0.065671
-0.049088
-0.052277
-0.031548
-0.051639
-0.05419
-0.041434
-0.013051
-0.026126
-0.036969
-0.055466
-0.048769
-0.033461
0.0041702
0.0035324
-0.0041214
-0.014964
0.049137
0.030321
0.0070404
0.008635
-0.0073105
0.037975
0.032553
0.044353
0.041802
0.0060837
0.0044891
-0.002208
-0.0066727
-0.037288
-0.034418
-0.040477
-0.02804
-0.028359
-0.065352
-0.067903
-0.046536
-0.010819
-0.025488
-0.026126
-0.01337
0.012462
0.033829
0.019797
0.011186
0.0076782
0.038612
0.025856
-0.0079484
0.044353
0.068271
0.0032135
0.0076782
0.057109
0.079114
0.10909
0.079433
0.066039
0.0041702
0.032872
0.054877
0.051369
0.008635
-0.010819
-0.017516
0.0095917
-0.0095429
-0.060887
-0.072049
-0.063758
-0.061844
-0.099476
-0.10394
-0.10139
-0.11383
-0.099157
-0.091822
-0.087038
-0.081935
-0.079703
-0.067266
-0.078746
-0.053871
-0.036331
0.0095917
0.020116
0.0041702
0.024262
0.014694
0.02777
0.050412
0.023305
0.05105
0.062212
0.035742
0.015651
0.0044891
-0.0028458
-0.02804
-0.032186
-0.036969
-0.043666
-0.049726
-0.044942
-0.040158
0.0044891
-0.013051
0.023305
0.043396
0.094741
0.078157
0.078795
0.071141
0.054239
0.029045
0.048818
0.093784
0.042121
-0.02198
0.034148
0.030002
-0.013689
-0.066309
-0.046855
-0.076833
-0.1151
-0.11478
-0.10075
-0.10553
-0.081617
-0.095968
-0.082892
-0.02198
-0.010181
-0.029634
-0.02517
-0.036012
-0.025488
-0.0105
0.033829
0.07146
0.039569
0.0044891
0.026494
0.057747
0.052007
0.02171
-0.0060349
-0.039839
-0.032823
-0.010819
-0.0089051
-0.043347
-0.036331
-0.03091
-0.018791
-0.01911
-0.016559
-0.027083
-0.029634
-0.01337
-0.011137
-0.0095429
-0.031548
-0.055147
-0.022618
-0.023256
-0.039202
-0.035375
-0.03665
-0.027402
-0.039839
-0.043666
-0.034099
-0.022937
-0.0041214
-0.0060349
-0.026126
-0.026126
-0.009224
-0.0031647
-0.020386
0.0032135
-0.002208
-0.0076295
0.026813
0.037975
0.023305
0.05679
0.046904
0.025537
0.030321
0.031278
0.019159
0.022029
0.059023
0.014375
-0.016559
-0.020067
0.0054459
-0.012413
-0.044304
0.008316
-0.0095429
-0.032504
-0.024851
0.013419
0.054558
0.050093
0.026175
0.044034
0.025218
-0.009224
-0.018791
0.022986
0.023624
0.0051269
0.024899
-0.050682
-0.077471
-0.044304
-0.023894
-0.039839
-0.049407
-0.074601
-0.073006
-0.054828
-0.042072
-0.034737
-0.053234
-0.070136
-0.047493
-0.0098618
-0.015921
-0.015921
-0.029315
-0.03091
-0.037926
-0.017516
-0.024851
-0.023894
-0.021024
0.01597
0.045947
0.0057648
-0.022937
0.0028946
-0.015283
-0.03091
-0.0085862
0.015332
0.041483
0.008316
-0.013689
-0.015921
0.020754
0.021072
0.025856
-0.0069916
-0.023894
-0.023575
-0.015602
-0.0038025
-0.016878
-0.049407
-0.05132
-0.032186
-0.051639
-0.051001
-0.018791
-0.0069916
0.011824
0.032234
0.043077
0.029683
0.020435
0.036699
0.01884
-0.0028458
0.076882
0.085492
0.059342
0.019159
0.0013
0.011824
0.01023
0.057428
0.0073593
-0.00061343
0.02458
0.015332
-0.012732
-0.02804
-0.074282
0.024262
0.018202
-0.034418
-0.035375
-0.054509
-0.047812
-0.069498
-0.083211
-0.080979
-0.065671
-0.066628
-0.066947
-0.055466
-0.057698
-0.066947
-0.065671
-0.046855
-0.028359
-0.0012513
-0.011775
-0.031548
-0.032823
-0.01624
-0.009224
-0.015602
0.0035324
-0.034737
-0.015921
0.03064
0.051369
0.03351
0.0131
0.0003433
-0.020705
-0.017197
-0.0085862
0.008316
0.013419
-0.0073105
0.0019378
-0.011456
-0.017516
-0.005716
0.054239
0.064763
0.047542
0.059661
0.03638
-0.0025269
-0.011456
-0.030591
0.041164
0.027132
0.069547
0.011186
0.0051269
-0.036331
-0.036331
-0.032823
-0.045261
-0.037926
-0.038564
-0.00061343
0.017564
-0.0028458
0.004808
0.004808
-0.021661
-0.027083
-0.027083
-0.031867
-0.028996
-0.017516
0.050731
0.023943
-0.044942
-0.029953
-0.03091
-0.034737
-0.024532
0.0044891
-0.01337
-0.018153
0.0041702
-0.0034836
-0.031548
-0.024213
-0.025488
-0.066628
-0.057698
-0.043347
-0.032186
0.008316
0.030002
0.0057648
-0.0082673
-0.0076295
-0.026445
-0.038245
-0.010819
-0.00093234
0.0092728
-0.002208
-0.013689
-0.031548
-0.024213
0.03638
-0.0038025
-0.032186
-0.036969
-0.043028
-0.078427
-0.032186
0.0064026
0.013738
0.0099106
0.020116
0.0032135
0.004808
0.0073593
-0.010181
-0.017197
-0.0044404
-0.005716
-0.0034836
-0.0015702
0.014694
-0.0031647
-0.049407
-0.0028458
0.00098112
-0.01337
-0.036969
-0.077471
-0.048769
-0.045261
-0.03665
-0.051639
-0.012413
-0.005716
-0.0053971
-0.0089051
-0.016559
-0.018153
0.0067215
0.020116
0.040207
0.011186
-0.058655
0.033829
0.058066
0.029364
0.032234
0.0044891
-0.0031647
0.061255
0.016927
-0.024213
-0.012732
0.012462
0.011186
0.027451
0.0131
0.045947
0.020435
-0.049407
-0.016878
-0.017835
-0.042072
-0.06312
-0.071411
-0.03952
-0.046855
-0.034737
-0.014327
-0.049088
-0.057698
-0.078427
-0.017197
-0.0047593
0.0022568
-0.017835
-0.029315
-0.028678
-0.035694
-0.053871
-0.04271
-0.050682
-0.064395
-0.050363
-0.051001
-0.052596
-0.054828
-0.059293
-0.046536
-0.05132
-0.029634
-0.024851
-0.0034836
0.0054459
0.00098112
0.013419
0.026813
0.010867
0.0019378
-0.005716
0.0095917
0.0060837
-0.011775
0.018521
0.018521
0.0051269
0.026175
0.024262
0.037656
-0.00093234
-0.02804
-0.023894
-0.0069916
-0.014645
-0.0085862
-0.026445
-0.045261
0.021072
0.017883
0.032553
0.076244
0.028407
0.0099106
0.058385
0.05105
0.059979
0.060936
0.066995
0.020754
-0.014964
0.01023
-0.027721
-0.020067
-0.03378
-0.058974
-0.091822
-0.11638
-0.13264
-0.10522
-0.11064
-0.12339
-0.11765
-0.078746
-0.10075
-0.1167
-0.10936
-0.073006
-0.069817
-0.068222
-0.078427
-0.063758
-0.03378
-0.040477
-0.037288
-0.058974
-0.044942
-0.042072
-0.022618
-0.0095429
-0.020386
-0.032504
-0.020386
-0.016559
-0.00061343
-0.028678
-0.046536
-0.047174
-0.042391
-0.031548
-0.021024
-0.009224
0.0099106
0.022029
0.03064
0.046585
0.017883
0.043396
0.081346
0.081346
0.10622
0.054239
0.013419
0.01884
0.063487
0.069866
0.059979
0.03064
0.015651
0.037337
0.065401
0.07752
0.061255
0.031596
0.045947
0.05679
0.053282
0.059023
0.019797
0.021391
0.029364
-0.027083
-0.026126
0.05679
0.01597
-0.036012
-0.088314
-0.10011
-0.093735
-0.077471
-0.080341
-0.08353
-0.094692
-0.10011
-0.069498
-0.064714
-0.084806
-0.074919
-0.074601
-0.067266
-0.056742
-0.069498
-0.075238
-0.056104
0.0003433
-0.005716
-0.04845
-0.036969
-0.020705
-0.035375
-0.064714
-0.055785
-0.03665
-0.027721
-0.012413
-0.028996
-0.044304
-0.058336
-0.044304
-0.036012
-0.035375
0.017883
0.0073593
0.0073593
0.047542
0.054239
0.052645
0.046585
0.06285
0.080071
0.062212
0.022029
0.054239
0.10877
0.078476
0.060617
0.031915
0.083579
0.05392
0.0035324
0.038294
0.020754
-0.0073105
-0.014964
-0.022618
-0.050682
-0.013051
-0.0066727
-0.011775
-0.0041214
0.032234
-0.026126
-0.022299
0.00066221
-0.014645
-0.031229
-0.035694
-0.013051
-0.025488
-0.037926
-0.02198
-0.050044
-0.034737
-0.053234
-0.06312
-0.058017
-0.03378
-0.031867
-0.041115
-0.029634
-0.014645
-0.018153
0.0099106
0.0035324
-0.01337
-0.0073105
-0.020386
-0.032186
-0.041434
-0.047493
-0.059931
-0.081617
-0.054828
-0.062801
-0.080022
-0.065352
-0.06886
-0.067266
-0.058655
-0.031867
-0.018791
0.035742
0.10877
0.10303
0.093465
0.087087
0.090276
0.057109
0.08326
0.11132
0.11515
0.090276
0.14736
0.094422
0.030002
0.0054459
-0.0098618
-0.00029452
-0.038245
-0.08353
-0.097562
-0.064714
-0.067903
-0.075876
-0.075876
-0.038883
-0.03665
-0.0050782
-0.0038025
-0.018791
-0.010819
0.01023
0.023305
-0.014645
-0.014645
0.05105
0.043077
0.029364
0.028407
0.0057648
-0.03665
-0.052915
-0.049726
-0.036969
-0.045261
-0.02804
-0.052596
-0.050363
-0.05132
-0.035694
-0.042072
-0.050363
-0.062163
-0.079384
-0.063439
-0.066947
-0.068222
-0.052915
-0.047174
-0.04271
-0.042391
-0.036969
-0.010819
0.040526
0.055515
0.065401
0.073055
0.057747
0.094103
0.085492
0.081028
0.089319
0.10335
0.073693
0.066677
0.052645
-0.018472
-0.011456
-0.0053971
-0.012094
-0.015921
-0.05132
-0.069179
-0.085762
-0.094373
-0.090865
-0.091184
-0.084487
-0.077471
-0.073006
-0.053234
-0.00029452
-0.0034836
-0.010181
-0.0050782
-0.010819
-0.011456
0.0076782
0.044353
0.073374
0.059661
0.043396
0.035423
0.030002
0.0099106
0.019797
-0.0018891
-0.023894
-0.010181
0.0028946
-0.014964
-0.015921
-0.017516
-0.02198
-0.032823
-0.039202
0.0016189
0.03351
0.044672
0.026175
0.02458
0.040526
0.021072
0.010548
0.063487
0.071779
0.058385
0.05679
0.0028946
0.00098112
0.0079971
0.0079971
-0.00029452
-0.040796
-0.020386
-0.035375
-0.051639
-0.055147
-0.063758
-0.080022
-0.055466
-0.034418
-0.045261
-0.032504
-0.033461
-0.043985
-0.025807
-0.023894
-0.015283
-0.022937
-0.021024
-0.031229
-0.032504
-0.043028
-0.041434
-0.038245
0.014375
0.012143
-0.002208
-0.012094
-0.0028458
0.008316
-0.019748
0.0089539
0.0131
0.03638
0.032234
0.018202
-0.012094
-0.020386
-0.023894
-0.023575
-0.034737
-0.03952
-0.034418
-0.014964
0.0044891
-0.027721
-0.030591
-0.011775
-0.00093234
0.0076782
0.018202
-0.03378
0.0067215
0.0089539
-0.010181
-0.018153
-0.013689
-0.027083
-0.048131
-0.054509
-0.064714
-0.043347
-0.025488
-0.01337
-0.032823
-0.015921
0.030002
0.030002
0.024899
0.025537
0.023305
0.026813
0.036699
0.013419
-0.010819
0.010867
0.022348
0.048499
0.068271
0.054239
0.036061
0.013419
-0.0069916
0.032234
0.051369
0.061255
0.032872
0.0131
0.028088
0.049774
0.033829
0.008635
0.0051269
-0.028996
-0.046218
-0.043985
0.0060837
-0.0044404
-0.049407
-0.054509
-0.050044
-0.068222
-0.034418
-0.044304
-0.039202
-0.040158
-0.054828
-0.092778
-0.080022
-0.10458
-0.088314
-0.084168
-0.061844
-0.052596
-0.057379
-0.073325
-0.091503
-0.073644
-0.056423
-0.043985
-0.013689
0.0092728
-0.0089051
-0.01337
-0.0066727
0.020435
0.031596
0.023305
0.031278
0.042121
0.046904
0.055834
0.053282
0.032553
0.058066
0.063487
0.041164
0.016608
0.017564
0.0067215
0.021072
0.020116
0.023305
0.040845
0.046585
0.040526
0.01597
0.0131
0.011505
0.046585
0.069547
0.054877
0.030002
0.027132
-0.011456
0.0019378
0.00066221
-0.061525
-0.061844
-0.036012
-0.076195
-0.083849
-0.090227
-0.081617
-0.081617
-0.092778
-0.085443
-0.076833
-0.087038
-0.06886
-0.058974
-0.058655
-0.061525
-0.02198
0.037018
0.004808
-0.00029452
-0.0018891
0.03064
0.010867
0.035742
0.028407
0.05392
0.059661
0.041802
0.015332
-0.00061343
0.012781
-0.0025269
0.014375
-0.023256
-0.056104
-0.047493
-0.0050782
-0.0066727
-0.022618
-0.011137
2.4388e-05
-0.014327
0.0089539
0.0095917
-0.022618
0.027132
0.020754
-0.0053971
-0.018791
-0.015283
-0.021343
-0.039202
-0.048769
-0.041753
-0.049726
-0.052915
-0.043028
-0.040477
-0.036331
-0.023894
0.021391
0.032872
0.027132
0.029683
0.033829
0.061574
0.05679
0.046904
0.059342
0.062212
0.026813
0.032872
0.025537
0.034148
-0.0066727
0.012143
-0.025488
-0.017835
-0.025807
-0.031548
-0.070455
-0.055785
-0.032186
-0.014645
-0.033461
-0.014008
0.044991
0.008635
0.008635
-0.0028458
0.0095917
0.018202
0.041483
0.050093
0.046585
0.059342
0.069547
0.028088
-0.01911
-0.014645
-0.0076295
2.4388e-05
-0.027721
-0.041115
-0.023575
-0.049407
-0.059612
-0.057698
-0.056104
-0.063439
-0.047812
-0.043028
-0.058974
-0.036331
-0.037926
-0.026764
-0.057698
-0.076195
-0.025807
-0.0060349
-0.028359
0.0016189
-0.024851
-0.0025269
-0.0031647
-0.0060349
-0.0028458
-0.0098618
0.0041702
-0.00093234
0.027132
0.019797
-0.0076295
-0.014645
0.017883
0.03638
0.017564
0.035104
0.037018
0.0003433
-0.012732
0.0038513
0.02171
0.0092728
0.02777
0.054239
0.0038513
-0.01337
-0.00029452
-0.017197
-0.038245
-0.059293
-0.02804
0.047542
0.025218
0.015332
0.0013
0.008635
-0.0034836
-0.0063538
-0.023575
-0.0012513
0.025856
0.00066221
0.038294
0.043396
0.05679
0.043715
-0.002208
-0.016559
0.044991
0.048818
0.061574
0.044353
0.034148
-0.0073105
0.020435
0.052007
-0.0034836
0.00066221
-0.034099
-0.051639
-0.072049
-0.061206
-0.062482
-0.08927
-0.10426
-0.093416
-0.086081
-0.022299
-0.035694
-0.022299
-0.024213
-0.019429
-0.017197
-0.031229
-0.036331
0.017246
0.034786
0.015013
-0.0050782
-0.024851
-0.063439
-0.022937
-0.022618
-0.028996
-0.036331
-0.051639
-0.035694
-0.018153
-0.018472
-0.023894
-0.011137
-0.0044404
-0.0015702
0.042121
0.012143
0.0099106
0.023624
0.014694
-0.010819
-0.0015702
-0.010181
0.035423
0.04531
0.052326
0.020435
0.020754
-0.018153
-0.02517
0.024262
0.0076782
-0.0089051
-0.019748
-0.015921
-0.022618
0.01884
0.028407
0.067314
0.049137
0.042758
-0.0018891
0.012143
0.026494
0.046585
0.038931
0.023624
0.037975
0.01023
-0.016559
-0.014008
-0.012094
-0.043028
-0.038883
-0.045261
-0.057379
-0.069817
-0.06599
-0.066947
-0.029953
0.015332
-0.0018891
-0.02804
0.0022568
0.00098112
0.028407
0.02458
-0.0098618
-0.027083
-0.015921
-0.025807
0.023943
0.034467
-0.022299
-0.018153
0.0060837
-0.0060349
-0.010181
0.0044891
-0.00093234
-0.031867
-0.015921
-0.0079484
0.026175
0.041164
0.041483
-0.0025269
0.010867
0.010548
0.0095917
0.0060837
0.0038513
0.026175
0.011505
-0.0038025
0.0070404
-0.022937
-0.036012
-0.068541
-0.025488
-0.0073105
-0.016878
-0.043028
-0.053234
-0.053871
-0.059612
-0.054509
-0.03952
-0.04271
-0.045261
-0.017835
-0.029953
-0.037288
-0.038883
-0.037288
-0.036331
-0.027083
-0.027083
-0.043347
-0.037288
-0.016559
-0.011456
-0.022299
0.0041702
0.019797
0.0095917
0.010548
0.042758
0.022029
-0.0047593
-0.002208
0.011824
0.0095917
-0.009224
0.028726
0.0092728
0.053282
0.039569
0.06859
0.042121
0.025537
0.043396
0.046904
0.074012
0.049455
0.081984
0.13014
0.10335
0.1177
0.063487
0.03064
0.015651
0.0079971
0.020435
-0.025488
-0.011137
-0.033461
-0.071411
-0.064714
-0.056104
-0.066309
-0.08927
-0.1151
-0.081935
-0.083211
-0.09246
-0.094373
-0.081617
-0.088633
-0.091503
-0.063439
-0.039202
-0.018153
2.4388e-05
-0.018472
-0.012413
-0.022937
-0.030272
-0.0085862
-0.022299
-0.005716
-0.013689
-0.014327
-0.0069916
-0.018153
-0.03091
-0.009224
-0.022618
-0.043666
-0.060569
-0.046218
-0.020067
-0.024532
-0.045899
-0.045261
-0.011456
-0.022937
-0.021661
-0.026445
-0.039202
-0.048769
-0.033142
-0.024213
-0.038564
-0.032504
0.012781
0.053282
0.031278
0.03351
0.059342
0.069228
0.040845
0.045629
0.069228
0.083579
0.12376
0.13652
0.075606
0.0092728
0.029683
0.079752
0.041483
-0.0044404
0.037337
0.032234
0.05392
0.027132
0.0044891
-0.0041214
-0.013051
-0.0085862
0.03351
0.008316
0.030959
0.017246
0.0095917
-0.009224
-0.019429
-0.033142
-0.00061343
0.0022568
-0.023256
-0.053552
-0.077471
-0.037607
-0.025488
-0.042391
-0.040477
-0.071093
-0.089589
-0.073963
-0.063758
-0.076833
-0.05419
-0.047174
-0.068222
-0.056423
-0.042391
-0.01911
0.00066221
0.025856
0.077201
0.061893
0.03351
0.045947
0.030321
0.024899
0.02171
0.0067215
-0.044942
0.029045
0.037975
0.0003433
-0.024213
-0.055147
-0.07779
-0.086081
-0.075876
-0.072687
-0.069498
-0.058655
-0.068222
-0.067266
-0.060887
-0.054509
-0.040158
-0.045261
-0.040796
0.0038513
0.091233
0.092508
0.06285
0.034467
0.050412
0.066358
0.054558
0.05105
0.084536
0.090914
0.089638
0.06285
-0.016878
-0.013689
0.0038513
-0.038883
-0.042391
-0.037607
-0.03091
-0.042072
-0.043028
-0.043985
-0.03952
-0.02804
-0.013051
-0.016878
-0.012413
-0.01337
-0.0089051
-0.0069916
0.0051269
0.032234
0.02458
0.020435
-0.0015702
-0.038564
-0.0060349
-0.0063538
0.0057648
0.0076782
-0.026126
-0.037926
-0.023575
-0.040477
-0.050363
-0.040477
-0.038883
-0.015921
-0.01337
-0.0034836
-0.0076295
0.021391
0.0019378
0.0070404
0.027132
0.056153
0.017883
0.07146
0.059023
0.0057648
-0.009224
-0.014327
-0.019748
-0.019429
-0.01337
-0.021024
0.0032135
-0.0095429
0.008635
0.037018
0.052645
0.071779
0.051369
0.029683
0.074012
0.10526
0.065401
0.054877
0.077838
0.03925
0.030321
-0.0095429
0.0131
-0.057061
-0.057698
-0.025807
-0.066947
-0.07173
-0.091503
-0.12403
-0.092141
-0.076833
-0.057379
-0.061844
-0.02517
0.0038513
0.013419
-0.0098618
-0.00029452
0.021072
-0.0069916
0.014056
0.012462
0.039888
0.046266
0.048818
0.020754
-0.010181
-0.036969
-0.046218
-0.03665
-0.055147
-0.041434
-0.050682
-0.049407
-0.058336
-0.070774
-0.023256
-0.01337
-0.0089051
-0.024851
0.0003433
0.026494
0.019478
0.0060837
0.0060837
0.012781
-0.020386
0.0073593
0.012462
0.0022568
-0.013689
0.0054459
-0.00029452
-0.01624
-0.03091
-0.017835
-0.005716
-0.0063538
-0.01624
-0.0060349
-0.00029452
-0.002208
0.029364
0.069228
0.029364
0.011505
-0.00061343
-0.0028458
0.026813
0.042758
0.042121
-0.024532
-0.08066
-0.029315
0.047223
0.03638
-0.018791
-0.055466
-0.052915
-0.04271
-0.053871
-0.0063538
0.011505
-0.0025269
0.0038513
0.01884
0.02171
-0.0031647
-0.0012513
0.050093
0.085173
0.059661
0.040845
0.027132
0.0016189
-0.0041214
-0.019429
0.0022568
0.0019378
-0.005716
-0.025807
-0.052596
-0.048769
-0.016878
-0.012094
-0.026445
-0.04271
-0.024851
-0.022937
-0.0050782
-0.02517
-0.0098618
-0.011456
-0.058017
-0.052277
-0.043347
-0.046855
-0.027721
-0.034099
-0.011456
-0.022937
-0.013051
0.012462
0.034467
0.0131
0.020435
0.030002
0.043396
0.060617
0.045629
0.030002
-0.026445
-0.043347
0.048818
0.035104
0.00098112
-0.012413
-0.039839
-0.068222
-0.063758
-0.046218
-0.036331
-0.055147
-0.063758
-0.060887
-0.016878
-0.022299
-0.014008
0.045947
0.096016
0.084854
0.052007
0.042758
0.028088
-0.03378
0.014694
0.064125
0.10176
0.062531
0.039569
-0.010181
-0.048769
-0.049726
-0.063758
-0.079703
-0.086081
-0.091503
-0.087676
-0.063439
-0.053234
-0.0095429
-0.0050782
0.024899
0.01884
-0.0012513
-0.00061343
0.0060837
0.027132
0.052645
0.094741
0.067633
0.024899
-0.0012513
0.034467
0.014694
0.01023
-0.013689
-0.023575
0.0019378
-0.0066727
-0.024213
-0.022937
-0.026445
-0.050363
-0.04558
-0.040158
-0.027721
-0.032823
-0.048769
-0.067266
-0.042391
-0.04845
-0.017835
0.0022568
-0.0028458
-0.0034836
0.01023
0.0003433
0.010867
-0.0050782
-0.0089051
0.029683
0.032872
0.020116
0.032872
-0.0082673
-0.013051
-0.0085862
-0.011456
-0.028359
-0.027402
-0.015921
0.00098112
-0.011775
-0.014645
-0.018153
-0.020386
-0.02517
-0.019429
-0.016559
0.0089539
0.024262
0.015013
0.011505
0.026494
0.019478
0.0057648
0.02458
0.030959
0.046904
0.0131
0.037337
0.048818
0.014694
0.0070404
2.4388e-05
0.035742
0.081665
0.079433
0.04531
0.020116
-0.018791
-0.0095429
0.017883
0.059342
0.088681
0.098886
0.050731
0.066039
0.069228
0.043077
0.016608
-0.0066727
-0.025488
-0.02198
-0.0034836
0.0041702
-0.013689
-0.02198
-0.012413
-0.028678
-0.064077
-0.03665
-0.036331
-0.038564
-0.061525
-0.081298
-0.035056
-0.028996
-0.031548
-0.04845
-0.06599
-0.12116
-0.10362
-0.079703
-0.069498
-0.075557
-0.086081
-0.098519
-0.094054
-0.072049
-0.050044
-0.040477
-0.051639
-0.044304
-0.042072
-0.035056
-0.017516
-0.018791
-0.018791
-0.018791
-0.00061343
0.016927
0.01023
0.0057648
0.0099106
0.015332
0.0028946
0.034148
0.069228
0.055515
0.062531
0.06285
0.10367
0.087725
0.064763
0.066358
0.14162
0.13301
0.10335
0.10399
0.091233
0.096335
0.076882
0.052007
0.060936
0.060617
0.028407
0.013419
-0.0018891
-0.036969
-0.043985
-0.087038
-0.037607
-0.032186
-0.031229
-0.057698
-0.080341
-0.086081
-0.076514
-0.040796
0.0025757
0.015013
-0.034099
-0.05419
-0.031548
-0.023575
-0.012413
-0.024851
-0.038245
-0.048769
-0.03091
0.011186
0.0003433
-0.0015702
-0.045261
-0.040477
-0.0089051
0.010548
-0.016878
-0.046218
-0.023894
-0.01624
-0.029315
-0.051639
-0.038564
-0.058336
-0.055466
-0.037607
-0.035056
-0.050682
-0.044942
0.011824
0.028407
0.030959
0.031596
0.034148
0.016289
0.029045
0.057109
0.055515
0.043396
0.037975
0.041483
0.034148
0.0092728
0.010867
0.0092728
-0.0060349
-0.0050782
0.0131
0.012781
-0.0041214
-0.012094
-0.029315
0.0057648
0.0022568
-0.012094
-0.041115
-0.017197
-0.01911
-0.02804
-0.034418
-0.030591
-0.022618
-0.024851
-0.029953
-0.035694
-0.029634
-0.050044
-0.05419
0.081665
0.086449
0.042121
0.012462
0.0076782
-0.01337
0.0003433
0.035742
0.06285
0.063806
0.058704
0.082622
0.038612
0.01597
0.027451
0.045629
0.013738
0.044353
0.032234
0.004808
-0.016878
0.0041702
-0.023894
-0.019748
0.0060837
-0.012094
-0.010819
0.011824
0.018202
0.07146
0.052326
0.0044891
2.4388e-05
0.0092728
0.0079971
-0.0076295
-0.0047593
0.027451
0.008316
-0.062163
-0.049088
-0.011456
-0.027402
-0.065033
-0.092141
-0.10522
-0.089589
-0.074601
-0.070455
-0.056104
-0.048769
-0.06025
-0.061206
-0.083849
-0.076195
-0.069179
-0.058017
-0.046218
-0.038883
-0.049407
-0.049088
-0.017197
-0.010181
0.00098112
0.036699
0.035104
0.029045
0.025856
0.028407
0.032872
0.035423
0.038931
0.028407
0.027132
-0.002208
0.0079971
-0.0041214
0.0064026
0.027132
-0.015921
-0.023575
0.012143
-0.0082673
0.0025757
0.013738
0.0025757
-0.015921
-0.014008
0.0038513
-0.0069916
0.031596
-0.0012513
0.0099106
0.040207
0.008635
0.011505
0.013419
0.03351
0.048499
0.037018
0.029683
-0.02198
0.0019378
0.0073593
-0.038245
-0.048769
-0.03665
-0.093097
-0.099794
-0.093735
-0.088952
-0.099794
-0.12977
-0.12435
-0.10777
-0.13487
-0.13551
-0.13774
-0.14604
-0.13041
-0.12116
-0.13934
-0.13296
-0.12467
-0.12595
-0.13041
-0.13137
-0.099476
-0.13774
-0.10649
-0.10107
-0.10458
-0.095649
-0.10681
-0.099157
-0.11223
-0.097562
-0.081617
-0.094054
-0.094692
-0.046536
0.023305
0.0070404
-0.062482
-0.034418
-0.03091
-0.048131
-0.044304
-0.055147
-0.020386
-0.015283
-0.027721
-0.056423
-0.077152
-0.12084
-0.15943
-0.11733
-0.12754
-0.10745
-0.12626
-0.091184
-0.08353
-0.066309
-0.069817
-0.063439
-0.072687
-0.092778
-0.048131
0.0022568
0.039569
-0.0025269
-0.011775
-0.067266
-0.05419
-0.037926
-0.054509
-0.064395
-0.0079484
0.048499
-0.0095429
-0.03378
-0.054509
-0.082254
-0.069498
-0.031548
-0.04558
-0.044942
-0.066628
-0.068222
-0.08066
-0.067266
-0.050363
-0.058017
-0.055147
-0.080022
-0.093097
-0.050044
-0.021343
-0.057379
-0.053234
-0.047493
-0.024213
-0.03665
-0.067266
-0.036969
-0.051958
-0.061844
-0.049088
-0.044623
-0.059293
-0.024851
0.0044891
0.010548
0.033829
0.027451
0.050412
0.043396
0.056471
0.047223
0.029683
-0.044942
0.0076782
0.058385
0.050731
0.022029
-0.012094
-0.023256
-0.032823
-0.046536
-0.043028
-0.0089051
0.0044891
-0.012413
-0.0079484
-0.0066727
2.4388e-05
0.0041702
0.0089539
0.0025757
-0.019429
-0.0015702
0.026494
0.010548
0.022348
0.03351
0.022029
0.030321
0.026494
0.020435
0.032234
0.039888
0.04531
0.056471
0.059023
0.058385
0.070503
0.054877
0.048818
0.041802
0.045947
0.050093
0.052963
0.094741
0.077838
0.075925
0.069228
0.021391
0.064763
0.085811
0.066995
0.055515
0.0022568
0.0057648
0.082303
0.076882
0.058066
0.008635
-0.015921
-0.020067
0.032234
0.008635
0.022348
0.023943
0.012462
0.012781
0.0095917
-0.0105
-0.03091
-0.024851
-0.027721
-0.03378
-0.032823
-0.031229
-0.0034836
-0.024532
-0.015602
-0.026126
-0.029953
-0.019429
-0.024213
0.0022568
0.0044891
-0.0060349
-0.013051
-0.0105
0.048818
0.072736
0.043077
0.028726
0.041483
0.074012
0.044353
0.053282
0.048499
0.059023
0.061574
0.039888
0.055196
0.041483
0.015651
0.004808
0.035423
0.030959
0.015013
0.0070404
0.011505
-0.002208
0.010548
0.025856
0.048818
0.041164
0.044672
0.019478
0.040207
0.07146
0.074649
0.11388
0.065082
0.065082
0.033829
0.044991
0.068271
0.080709
0.04531
0.035104
0.06572
0.041483
0.043715
0.047542
0.019159
0.035104
0.05105
0.051688
0.030002
0.015651
0.0060837
0.010548
0.019478
0.028726
0.03351
0.038294
0.019797
0.035104
0.032234
0.036699
0.0044891
-0.0028458
-0.011456
-0.053234
-0.062801
-0.0041214
0.025218
-0.015283
0.0016189
-0.0105
0.0016189
0.018202
0.048499
0.055196
0.044034
0.055196
0.040207
0.0076782
0.030002
0.05679
0.028088
0.037656
0.057747
0.0131
-0.01911
-0.043985
-0.041434
-0.065671
-0.046536
-0.017197
-0.020067
-0.020705
-0.028996
-0.0047593
-0.00093234
-0.0085862
0.0019378
0.0035324
-0.028678
-0.019748
-0.0089051
0.016608
0.01884
0.0019378
-0.016559
-0.005716
0.023943
0.01597
0.022986
0.029364
0.02777
0.026175
0.041483
0.044353
0.044034
0.043396
0.05679
0.03925
0.022667
0.05679
0.069228
0.043715
0.087725
0.079752
0.066995
0.028726
0.016927
0.016289
0.031915
-0.0066727
0.020435
0.01597
0.0054459
-0.014645
-0.061844
-0.0105
0.01023
-0.015283
-0.0089051
-0.015283
-0.018153
-0.00061343
0.0025757
-0.002208
0.020435
0.008316
0.024262
0.020754
-0.00029452
0.00098112
-0.023256
-0.0050782
-0.017197
-0.036969
-0.034418
-0.049407
-0.0082673
-0.02517
-0.0082673
0.021391
-0.0041214
-0.022299
-0.016559
-0.013051
-0.0063538
0.0070404
0.025856
-0.038564
-0.038245
0.011505
0.017246
-0.011137
-0.032504
-0.028359
0.03064
0.008316
0.018521
0.0041702
-0.01337
0.0051269
0.045947
0.03638
0.032872
0.008635
0.0079971
0.03638
0.056153
0.068271
0.024899
0.0016189
0.025218
0.049455
0.037337
0.023943
0.0076782
-0.01911
-0.012094
0.004808
-0.01911
-0.018791
-0.024213
-0.020067
-0.0018891
0.015651
0.020435
0.064125
0.066039
0.097292
0.070822
0.047861
0.061574
0.054239
0.06572
0.08039
0.079752
0.042758
0.034467
0.023943
0.026175
-0.010181
-0.044942
-0.069179
-0.03665
-0.023894
-0.027083
-0.031229
-0.0053971
-0.0076295
-0.009224
0.0060837
-0.018153
-0.0073105
-0.020705
-0.0044404
-0.00061343
-0.020705
-0.014645
0.010548
-0.0098618
-0.017835
-0.011456
0.021072
0.0019378
0.008635
0.010548
0.014056
0.030959
0.043396
0.040845
0.017564
0.017883
0.037975
0.01597
0.023305
0.032553
0.049137
0.032234
0.022986
0.019159
0.020754
0.029683
0.03925
0.038612
0.059979
0.066677
0.07146
0.074968
0.07433
0.068271
0.099843
0.11675
0.096973
0.14098
0.059661
0.063487
0.14162
0.14481
0.10782
0.086768
0.066358
0.059342
0.072736
0.032553
0.061255
0.046904
0.046904
0.037975
0.02777
-0.0082673
0.022667
0.054239
0.0060837
0.026175
0.037337
0.0067215
0.0092728
0.025537
0.028407
0.0089539
-0.0060349
-0.02804
-0.021024
0.0076782
0.0099106
0.013738
0.0051269
0.0032135
-0.005716
0.0035324
0.020435
0.039888
0.098568
0.054877
0.052007
0.062212
0.049774
0.056471
0.042121
0.061255
0.059979
0.085492
0.084536
0.061255
0.067633
0.07752
0.099205
0.10399
0.11993
0.13173
0.098886
0.10526
0.087406
0.070822
0.088362
0.11164
0.10877
0.052963
0.011186
0.041802
0.044353
0.015332
0.010548
0.017246
0.026175
-0.002208
-0.020386
-0.028678
-0.014008
0.041483
0.067952
0.053601
0.0067215
0.022029
0.010867
-0.03665
-0.0028458
0.0070404
0.044991
0.036061
0.021072
-0.023575
-0.030591
-0.047174
-0.053552
-0.065352
-0.063758
-0.06312
-0.058655
-0.087038
-0.10649
-0.060887
-0.056742
-0.056742
-0.070136
-0.083211
-0.099157
-0.091184
-0.079065
-0.067585
-0.062482
-0.078427
-0.14285
-0.11351
-0.10298
-0.1151
-0.11797
-0.12913
-0.12945
-0.097881
-0.068222
-0.071411
-0.067266
-0.074282
-0.072687
-0.10458
-0.080979
-0.068222
-0.075557
-0.054509
-0.037607
-0.06312
-0.1049
-0.13456
-0.1269
-0.10841
-0.10713
-0.09533
-0.091503
-0.081298
-0.081617
-0.06599
-0.050682
-0.063439
-0.03665
0.0054459
0.0092728
-0.023575
-0.018472
-0.015921
-0.037288
-0.05132
-0.024851
-0.028678
-0.066628
-0.081935
-0.051958
-0.056104
-0.11893
-0.13137
-0.11415
-0.12052
-0.13328
-0.14349
-0.14125
-0.13328
-0.14317
-0.10617
-0.10904
-0.12116
-0.094054
-0.090546
-0.1049
-0.083849
-0.051001
-0.068222
-0.072049
-0.070136
-0.055147
-0.04845
-0.050363
-0.0053971
-0.023256
-0.0060349
-0.0079484
-0.020705
-0.020386
-0.020386
-0.051001
-0.012413
0.020754
0.0060837
-0.018153
-0.021024
-0.02517
-0.055466
-0.060569
-0.051639
-0.075557
-0.084487
-0.056742
-0.031229
-0.023256
-0.019748
0.019478
0.012781
0.021072
0.027132
0.047542
0.034786
0.03064
0.037018
0.014694
0.073055
0.04531
0.043396
0.043715
-0.002208
-0.022299
-0.042391
-0.009224
-0.0076295
-0.00029452
-0.020067
-0.021343
-0.046218
-0.011456
-0.010819
-0.012413
-0.017516
-0.016559
-0.040796
-0.029634
-0.016559
0.0025757
0.046904
0.037975
0.021391
0.0032135
-0.0034836
0.018521
0.042758
0.050412
0.058066
0.035423
0.022348
0.019159
0.012462
-0.0038025
0.012462
0.015332
0.024899
0.0044891
-0.010181
0.004808
0.028407
0.021391
0.037656
0.071779
0.096973
0.085811
0.11388
0.10941
0.10335
0.087725
0.056471
0.067633
0.10495
0.074012
0.069547
0.052645
0.033191
0.077838
0.050412
0.0057648
-0.018472
-0.017516
-0.015283
-0.029634
-0.041115
-0.047493
-0.051958
-0.043985
-0.038245
-0.053552
-0.043028
-0.050682
-0.061206
-0.05419
-0.039839
-0.023575
-0.019429
-0.00029452
0.008316
0.011824
0.036699
0.049137
0.038612
0.06572
0.056153
0.07433
0.065082
0.088044
0.096016
0.083579
0.10239
0.092508
0.10495
0.10431
0.083898
0.075287
0.06285
0.044353
0.097611
0.092827
0.067952
0.063487
0.066358
0.10431
0.087725
0.10144
0.10176
0.11898
0.10622
0.094741
0.044034
0.074968
0.08039
0.079752
0.054558
0.057428
0.008635
0.025218
0.0060837
0.0051269
-0.0098618
-0.033142
-0.032823
0.0092728
0.036061
0.041802
0.023943
0.029683
0.03925
0.048818
0.066995
0.057428
0.066995
0.058066
0.061255
0.082622
0.067952
0.066995
0.056153
0.059661
0.06572
0.061255
0.069547
0.054877
0.029045
0.053601
0.050093
0.037656
0.020754
0.02458
0.019797
0.014694
0.017564
-0.0028458
-0.023894
0.0028946
0.01884
0.0131
0.02171
0.011505
-0.03378
-0.014964
0.0064026
-0.0044404
-0.017835
-0.010819
-0.010181
0.040207
0.018202
0.012143
0.014694
0.020116
0.0032135
0.0131
0.0076782
0.062531
0.071779
0.067314
0.092827
0.07752
0.069547
0.075606
0.072417
0.09187
0.091552
0.076244
0.031596
0.040845
0.068271
0.076882
0.046266
2.4388e-05
-0.0034836
-0.0044404
-0.023894
-0.034737
-0.017516
-0.058974
-0.10681
-0.099794
-0.092778
-0.072687
-0.081298
-0.095011
-0.092141
-0.1033
-0.10522
-0.052915
-0.027721
-0.017835
-0.015921
-0.049407
-0.071093
-0.053234
-0.036012
-0.031548
-0.046536
-0.059931
-0.081935
-0.064714
-0.06025
-0.080979
-0.085125
-0.097562
-0.11
-0.11446
-0.10522
-0.10872
-0.10075
-0.038564
-0.056742
-0.085762
-0.06312
-0.068222
-0.089908
-0.069498
-0.060569
-0.059612
-0.038883
-0.044623
-0.051001
-0.077152
-0.075557
-0.055147
-0.056104
-0.078109
-0.075238
-0.08927
-0.098519
-0.067903
-0.058017
-0.058655
-0.060887
-0.075876
-0.085762
-0.077471
-0.073963
-0.080022
-0.042072
-0.040796
-0.065671
-0.081617
-0.06599
-0.069498
-0.099157
-0.078427
-0.080341
-0.10458
-0.10362
-0.10585
-0.11096
-0.099476
-0.091184
-0.084806
-0.077471
-0.0076295
0.0057648
-0.014327
-0.01337
-0.017197
-0.046536
-0.023575
-0.014327
0.023624
0.012781
-0.024851
-0.038564
-0.047493
-0.055785
-0.021024
-0.067903
-0.089908
-0.073006
-0.065352
-0.071093
-0.076514
-0.072049
-0.063439
-0.078109
-0.073644
-0.089908
-0.045899
-0.010181
-0.032823
-0.044942
-0.069498
0.028088
0.060936
0.026175
0.015013
0.012143
0.0073593
-0.0015702
0.030002
0.023943
0.042439
0.008316
-0.015921
-0.027083
-0.033461
-0.041115
-0.057379
-0.058336
-0.067266
-0.066309
-0.04845
-0.04271
-0.040796
-0.048131
-0.058655
-0.05419
-0.052915
-0.03378
-0.030591
-0.044942
-0.047174
-0.023894
-0.016878
-0.016878
0.0089539
0.028088
0.042439
0.08039
0.071779
0.058066
0.078476
0.097611
0.038294
0.046904
0.060936
0.074012
0.067633
0.063487
0.051688
0.039569
0.048818
0.068271
0.021072
0.015332
0.080709
0.069866
0.026175
0.01884
0.048818
0.028407
0.028088
0.054558
0.0028946
-0.0079484
-0.0034836
-0.010181
-0.03378
-0.052915
-0.02804
-0.015283
-0.027083
-0.0085862
-0.016878
-0.019748
-0.015921
0.018521
0.019478
0.0095917
0.0076782
0.0019378
-0.010181
-0.005716
-0.02517
0.0038513
0.065401
0.043715
0.0028946
0.022986
0.032872
0.033191
0.0092728
0.016289
0.05105
0.065401
0.028407
0.021072
0.024899
0.0079971
0.027451
0.067314
0.034786
0.022348
0.01884
0.031278
0.023305
0.00098112
0.022029
0.012462
0.015651
0.022029
-0.012413
0.018521
-0.0044404
-0.010819
0.0016189
-0.009224
0.0051269
-0.022937
-0.0073105
0.022348
0.022029
-0.0034836
0.0076782
-0.017197
0.0070404
0.015651
0.0131
0.0035324
-0.009224
-0.0095429
-0.017197
-0.005716
0.0025757
0.0041702
-0.011775
0.0054459
0.0095917
0.032234
0.056471
0.025856
0.063806
0.089957
0.12025
0.12695
0.11483
0.11164
0.082303
0.085492
0.098249
0.09187
0.11993
0.1362
0.079752
0.068909
0.063806
0.024899
0.018202
-0.005716
-0.019748
-0.013689
-0.030591
-0.012094
-0.020067
-0.02198
-0.015602
-0.0050782
0.012462
-0.0025269
0.0022568
0.0041702
0.020116
0.081346
0.066358
0.076563
0.08613
0.049137
0.050093
0.020435
0.023943
0.028407
0.025218
0.028088
-0.002208
-0.011775
-0.0060349
-0.0041214
-0.01624
-0.0012513
-0.002208
-0.020386
-0.010819
-0.010819
-0.014645
0.02171
0.041483
0.01884
0.015013
0.018521
0.03351
0.036061
0.032553
0.039569
0.045629
0.072098
0.085492
0.058385
0.059979
0.067314
0.054558
0.062212
0.075606
0.072098
0.064125
0.079752
0.084217
0.090914
0.078476
0.084217
0.10431
0.10112
0.087725
0.067952
0.089957
0.09793
0.077838
0.067314
0.094103
0.083579
0.054558
0.041483
0.016289
0.03064
0.021072
0.03064
0.019159
0.0073593
-0.00061343
0.023624
0.021072
0.048499
0.087087
0.059023
0.056471
0.081028
0.078476
0.069866
0.074649
0.070822
0.077838
0.10495
0.089
0.040845
0.048818
0.05392
0.025537
-0.022299
-0.014008
-0.037288
-0.028678
-0.055466
-0.10585
-0.073963
-0.073006
-0.08927
-0.088633
-0.092778
-0.089589
-0.075876
-0.061525
-0.036969
-0.035375
-0.017197
-0.01337
-0.00061343
0.046585
0.012781
0.013419
0.012462
0.024899
-0.0095429
-0.023575
-0.0034836
0.031596
-0.023894
-0.033142
-0.026126
-0.046218
-0.055466
-0.055785
-0.038564
-0.031867
-0.041115
-0.047493
-0.056104
-0.021024
-0.0066727
-0.0031647
-0.011137
-0.015602
-0.011775
0.012143
-0.0015702
0.010867
0.0041702
-0.046536
-0.053552
-0.018791
-0.01337
-0.04558
-0.083849
-0.096924
-0.10553
-0.12052
-0.12244
-0.090865
-0.066628
-0.061844
-0.067266
-0.035056
-0.041753
-0.039839
-0.0076295
-0.0079484
-0.023575
-0.022618
-0.038883
0.064125
0.02777
-0.060887
-0.076833
-0.08927
-0.099476
-0.1151
-0.089589
-0.11733
-0.13902
-0.15497
-0.14986
-0.1285
-0.13264
-0.14508
-0.14827
-0.13966
-0.12403
-0.11191
-0.11446
-0.099476
-0.11128
-0.090546
-0.052596
-0.03091
-0.033142
-0.01624
-0.022299
-0.039839
-0.040158
-0.017197
0.0028946
-0.019429
-0.013689
-0.030591
-0.064395
-0.077152
-0.06025
-0.074919
-0.10522
-0.0864
-0.091503
-0.097562
-0.097243
-0.097881
-0.093416
-0.083211
-0.087038
-0.080341
-0.074282
-0.056104
-0.039202
-0.043347
-0.039839
-0.041115
-0.022299
-0.017835
-0.033461
-0.018472
0.010867
0.041802
0.048499
0.044353
0.055515
0.10208
0.07146
0.05679
0.070503
0.052326
0.057747
0.079114
0.076563
0.074649
0.052007
0.012143
0.031915
0.022986
0.0025757
-0.0085862
-0.020705
-0.005716
-0.011456
-0.066628
-0.064077
-0.051639
-0.078427
-0.088314
-0.10713
-0.11191
-0.092778
-0.070455
-0.088314
-0.094054
-0.08353
-0.080022
-0.041115
-0.049407
-0.06599
-0.055466
-0.055147
-0.067903
-0.027721
-0.011775
-0.034099
-0.057061
-0.052915
-0.063439
-0.056104
-0.052277
-0.052277
-0.058974
-0.056742
-0.046855
-0.038245
-0.04558
-0.049407
-0.036331
-0.032823
-0.02517
-0.019748
-0.0050782
-0.0031647
0.011505
0.0099106
0.0054459
0.0025757
0.020435
0.031915
0.046585
0.04531
0.05105
0.042121
0.042121
0.05105
0.039888
0.022348
0.030959
0.044353
0.072417
0.080709
0.088362
0.086449
0.099205
0.10112
0.1008
0.10048
0.11324
0.098886
0.090276
0.092827
0.08039
0.053282
0.073055
0.066677
0.057747
0.057747
0.1008
0.057747
0.017883
0.0099106
0.026494
-0.0041214
0.034467
0.070503
0.051688
0.024262
0.030959
-0.021661
-0.032823
-0.031229
-0.045261
-0.052277
-0.038245
-0.054828
-0.08066
-0.073006
-0.049726
-0.021024
-0.023575
-0.04558
-0.053871
-0.040796
-0.021343
-0.012094
2.4388e-05
-0.010181
-0.026445
-0.03378
-0.012413
-0.00061343
0.0013
0.0013
0.014375
0.01884
0.020116
0.026494
0.032234
0.041483
0.042758
0.044353
0.054877
0.032553
0.02458
0.050412
0.046904
0.052007
0.056153
0.066995
0.053601
0.13014
0.16363
0.16937
0.15916
0.17542
0.14098
0.11834
0.10718
0.17415
0.11164
0.095378
0.069228
0.05392
0.070185
0.05679
0.0003433
-0.04271
-0.078746
-0.075238
-0.059293
-0.053234
-0.056104
-0.058336
-0.043347
-0.033461
-0.034418
-0.035375
-0.0069916
-0.02198
-0.026764
-0.028996
-0.0085862
0.0022568
-0.0018891
-0.011775
0.04531
0.035742
0.024262
0.012462
0.0070404
0.0095917
0.024262
0.020116
-0.013051
-0.002208
0.0003433
0.0073593
0.0022568
0.008635
0.055834
0.037656
0.026813
0.028088
0.033829
0.038931
0.047223
0.048499
0.03925
0.040207
0.049137
0.024899
0.016927
0.049137
-0.024851
-0.0044404
0.014056
0.0054459
0.0131
0.018521
0.014375
0.013738
0.024899
0.032234
0.015332
0.026175
0.043715
0.054558
0.087087
0.087087
0.08613
0.067314
0.074012
0.087725
0.084217
0.10495
0.086768
0.069547
0.085811
0.1059
0.084536
0.075606
0.090914
0.08326
0.092508
0.055515
0.040845
0.0070404
-0.009224
0.017246
0.020435
0.020116
0.018521
0.011824
0.014694
0.026494
-0.023894
-0.060887
-0.06312
-0.036012
-0.038883
-0.069817
-0.095968
-0.078746
-0.063758
-0.044623
-0.034418
-0.052596
-0.061525
-0.036969
-0.035694
-0.033461
-0.023256
-0.02517
-0.022299
0.010867
0.01597
-0.011775
-0.023575
-0.02804
-0.016878
-0.039202
-0.005716
-0.0028458
-0.019748
-0.0066727
-0.0015702
0.008316
0.023943
0.022029
0.022986
0.06572
0.074012
0.044672
0.058704
0.064763
0.04818
0.073055
0.060936
0.058066
0.040526
0.012462
0.011186
0.028726
0.015332
0.021072
0.024899
0.0064026
-0.018153
-0.0044404
-0.012094
-0.010819
-0.011775
-0.018472
-0.030272
-0.029634
-0.0034836
-0.028678
-0.025488
0.0067215
0.0038513
-0.050682
-0.064714
-0.060887
-0.042072
-0.026445
-0.045899
-0.06312
-0.089908
-0.097562
-0.081935
-0.060569
-0.08066
-0.09533
-0.10107
-0.081617
-0.076833
-0.077471
-0.070455
-0.079384
-0.083849
-0.056742
-0.041434
-0.053552
-0.058336
-0.060569
-0.070136
-0.082892
-0.060569
-0.02517
-0.039202
-0.058017
-0.059293
-0.087357
-0.063439
-0.027721
-0.04271
-0.055466
-0.059293
-0.055147
-0.062163
-0.067903
-0.084487
-0.08927
-0.083211
-0.087357
-0.067266
-0.036331
-0.029953
-0.031867
-0.028996
-0.040158
-0.014327
-0.0018891
0.008316
0.044353
0.023624
-0.025488
-0.050363
-0.029953
-0.024213
-0.00029452
-0.031548
-0.06312
-0.085762
-0.095968
-0.075557
-0.071411
-0.081298
-0.10681
-0.11064
-0.091503
-0.0982
-0.11351
-0.096286
-0.11223
-0.11128
-0.10394
-0.11383
-0.10458
-0.11574
-0.13105
-0.13456
-0.12658
-0.1049
-0.10203
-0.10394
-0.095968
-0.099476
-0.099794
-0.10904
-0.095011
-0.084168
-0.075876
-0.058974
-0.059612
-0.043666
-0.053234
-0.055466
-0.047812
-0.041115
-0.034099
-0.021343
-0.027721
-0.012413
-0.014008
-0.022618
-0.026445
-0.021024
-0.011456
0.0016189
0.03925
0.060617
0.10526
0.10973
0.10335
0.10271
0.087406
0.084854
0.082941
0.11802
0.13811
0.13046
0.096335
0.031278
-0.0012513
0.044353
0.019797
-0.021343
-0.02198
-0.06025
-0.093416
-0.088633
-0.062163
-0.019748
-0.027721
-0.039202
-0.064077
-0.056423
-0.040158
-0.047174
-0.053552
-0.046855
-0.054509
-0.031229
-0.029315
-0.020705
-0.029634
-0.02517
-0.046536
-0.046536
-0.01624
-0.0079484
-0.023256
-0.014645
-0.0076295
-0.014964
-0.01911
-0.0060349
-0.017516
-0.014964
0.008635
0.018202
0.036061
0.041483
0.046266
0.050412
0.06285
0.065082
0.083898
0.092189
0.10622
0.10877
0.097611
0.084536
0.087406
0.080709
0.082622
0.088362
0.08326
0.081346
0.054877
0.063487
0.10526
0.10845
0.11738
0.085492
0.090914
0.078157
0.077838
0.10271
0.091233
0.10399
0.07146
0.044353
0.085811
0.093465
0.096973
0.086449
0.063806
0.096335
0.077201
0.078157
0.077201
0.076244
0.078476
0.040845
0.02777
0.019797
0.060617
-0.0028458
-0.015921
0.016289
-0.015602
-0.034099
-0.052596
-0.019429
0.0057648
0.0003433
-0.014327
-0.012413
-0.002208
-0.002208
-0.0085862
-0.0041214
0.0044891
0.03064
0.014694
0.0095917
0.010548
0.01597
0.028407
-0.013689
0.0076782
0.0022568
-0.0066727
0.0079971
0.0092728
-0.013689
-0.022618
-0.028678
-0.012094
-0.026445
-0.020705
-0.038883
-0.040158
-0.031229
-0.00061343
-0.0034836
0.022986
0.026175
0.035423
0.0076782
0.061255
0.087725
0.092827
0.097292
0.067952
0.061574
0.03638
0.020116
0.035104
0.061255
0.014375
-0.014327
0.0038513
0.0041702
-0.018153
-0.020386
-0.019429
-0.026764
-0.029315
-0.028359
-0.016878
-0.015921
-0.029315
-0.021661
0.013738
0.077838
0.070185
0.050093
0.049137
0.01597
0.0044891
0.042121
0.048499
0.059023
0.068271
0.06572
0.063169
0.053282
0.058066
0.045947
0.030959
-0.0012513
-0.0076295
0.0016189
0.042439
0.043077
0.048818
0.022029
-0.021024
-0.029634
0.013419
-0.0044404
-0.0041214
-0.034418
-0.042391
-0.049088
-0.040796
-0.024532
0.0060837
0.045947
0.049774
0.056153
0.028088
0.018521
0.034786
0.032234
0.069547
0.062212
0.022986
0.045947
0.029364
0.0016189
0.00066221
-0.0085862
-0.023256
-0.035694
-0.075557
-0.037607
-0.032823
-0.051639
-0.066309
-0.053871
-0.0095429
-0.0015702
-0.0063538
-0.0079484
-0.052277
-0.060569
-0.01624
-0.026764
-0.044304
-0.041753
0.011824
-0.0025269
-0.043028
-0.043985
-0.015602
-0.037607
-0.040477
-0.029315
-0.044942
-0.022937
-0.030272
-0.053871
-0.072687
-0.075876
-0.069817
-0.071093
-0.070136
-0.064077
-0.063439
-0.092141
-0.052277
-0.017197
-0.0031647
-0.0050782
-0.0089051
-0.028678
-0.021661
-0.031548
0.0013
-0.00029452
-0.032504
-0.049407
-0.06312
-0.034418
-0.029315
-0.034418
-0.043985
-0.063758
-0.080979
-0.080979
-0.043985
-0.010181
-0.010819
-0.013051
0.020116
0.032234
0.015332
0.00066221
-0.021661
-0.078746
-0.056423
-0.02198
0.010548
0.032553
-0.0076295
-0.029953
-0.054828
-0.067266
-0.066628
-0.055785
-0.059293
-0.075557
-0.074919
-0.072687
-0.058017
-0.097243
-0.10075
-0.069817
-0.073006
-0.069179
-0.084487
-0.12658
-0.088952
-0.035375
-0.040158
-0.052915
-0.039202
0.0051269
0.04531
0.024262
0.0016189
-0.023894
-0.052596
-0.03378
0.0054459
0.0051269
-0.044623
-0.088633
-0.050044
-0.057379
-0.081298
-0.11415
-0.13232
-0.13456
-0.13328
-0.13487
-0.13041
-0.12084
-0.11957
-0.11223
-0.083849
-0.047493
-0.038564
0.0076782
0.023624
0.020116
0.04818
0.034148
0.01023
0.024899
0.051369
0.04531
0.035742
0.026175
0.0060837
-0.017197
-0.064395
-0.055466
-0.065033
-0.064395
-0.090865
-0.11032
-0.11128
-0.087038
-0.083849
-0.090546
-0.091822
-0.062163
-0.049407
-0.051958
-0.024213
-0.014964
-0.020067
0.012781
0.026175
0.010867
0.041164
0.026813
0.05392
0.070185
0.062212
0.094741
0.020435
0.072736
0.029364
0.016289
0.01023
0.0038513
-0.029315
-0.044942
-0.015283
-0.03665
-0.055147
-0.043028
-0.052915
-0.044942
-0.058655
-0.034737
-0.010819
0.0019378
-0.00093234
0.01884
0.063169
0.06572
0.091552
0.082622
0.072098
0.034786
0.049455
0.065082
0.071779
0.10399
0.12567
0.10335
0.064444
0.030002
0.0079971
0.030002
0.057428
0.039569
0.05392
0.035104
0.03064
0.033829
0.028088
0.041164
0.03638
0.029683
0.049137
0.064444
0.080071
0.061893
0.060298
0.058704
0.050731
0.05105
0.041164
0.05679
0.071779
0.057428
0.092508
0.087406
0.05105
0.06285
0.082941
0.059342
0.053601
0.066995
0.066039
0.083579
0.071141
0.05105
2.4388e-05
0.021072
0.012462
0.035423
0.017246
0.0057648
-0.00061343
-0.0076295
-0.0050782
0.018202
0.011824
0.0060837
0.03925
0.05105
0.066039
0.06285
0.084536
0.083898
0.07433
0.1126
0.12408
0.09793
0.10399
0.093784
0.063806
0.079752
0.088681
0.091233
0.058385
0.069228
0.05679
0.011186
0.0028946
0.004808
0.008635
-0.0076295
0.0028946
0.029045
0.015013
-0.0025269
-0.005716
-0.014008
0.0028946
0.0070404
-0.012413
0.0064026
0.04818
0.02171
-0.02517
-0.002208
-0.00093234
0.0067215
0.010867
-0.0044404
-0.027721
-0.0098618
-0.017197
-0.0044404
0.0025757
0.020435
-0.030272
-0.020386
-0.0089051
-0.020067
-0.016559
-0.025488
-0.039202
-0.03378
-0.033142
-0.055147
-0.035694
-0.038245
-0.04845
-0.038883
-0.034418
-0.020067
-0.026126
-0.031867
-0.014645
0.013419
-0.0038025
-0.012413
0.0073593
-0.0069916
-0.017516
-0.02517
-0.0076295
-0.0085862
-0.030272
-0.016878
0.0019378
0.0041702
0.022348
-0.002208
0.011824
0.029364
0.042121
0.058704
0.03064
0.052007
0.011505
0.046585
0.045629
0.014694
0.010867
0.029683
0.016289
-0.0050782
-0.043028
-0.018472
2.4388e-05
-0.024213
-0.060569
-0.022937
-0.0095429
-0.022937
-0.032504
-0.016559
-0.017197
0.0079971
0.008635
0.0041702
0.0092728
0.017564
0.0019378
-0.031229
-0.018791
-0.021024
-0.01624
0.0016189
-0.01911
-0.045261
-0.039839
-0.034418
-0.042391
-0.023894
-0.057698
-0.066309
-0.057061
-0.067266
-0.03952
-0.034099
-0.038883
0.020754
0.016289
0.0070404
0.017883
-0.010181
-0.015921
-0.055147
-0.074919
-0.012413
-0.027721
-0.034099
-0.034737
-0.051639
-0.086719
-0.073963
-0.064395
-0.06886
-0.071411
-0.061844
-0.049726
-0.044623
-0.039839
-0.031867
0.017883
0.024899
0.016927
0.0099106
-0.0038025
-0.0053971
0.018521
0.03638
0.037975
0.012462
-0.0038025
0.043396
0.032872
0.043396
0.028407
-0.023575
0.010548
0.038931
0.020116
0.044353
0.020116
-0.018472
-0.019748
-0.0044404
-0.0063538
-0.017516
-0.027083
-0.02804
-0.018791
-0.025488
-0.0073105
-0.012094
0.0092728
-0.025807
-0.0038025
-0.015602
-0.022618
-0.04271
-0.056742
-0.043985
-0.03665
-0.03378
-0.0050782
-0.049407
-0.078109
-0.075876
-0.10522
-0.11925
-0.11861
-0.11223
-0.10298
-0.11223
-0.12435
-0.13009
-0.12307
-0.12467
-0.10681
-0.099476
-0.099794
-0.10522
-0.095011
-0.089589
-0.068541
-0.05132
-0.056423
-0.040477
-0.040796
-0.035056
-0.0076295
-0.0082673
-0.018153
-0.017516
-0.030591
-0.019748
-0.0044404
0.013419
0.015332
0.0089539
-0.018472
0.028407
0.016927
0.018521
0.041483
0.028726
0.0095917
0.017246
0.023624
0.010867
-0.0028458
0.013419
-0.0079484
-0.025807
-0.030591
-0.013689
-0.0089051
-0.019748
-0.02198
0.033829
0.03351
0.0079971
0.021072
0.014375
0.016289
0.012462
0.0095917
-0.028678
-0.016878
0.022667
0.0070404
-0.0050782
-0.016878
-0.053552
-0.063439
-0.066947
-0.070136
-0.057698
-0.029634
-0.022937
-0.048769
-0.05132
-0.041115
-0.031548
-0.032504
-0.0066727
-0.018791
-0.019429
0.0041702
-0.017516
-0.028359
-0.018791
-0.012732
-0.0031647
-0.021024
-0.029634
-0.031548
-0.023894
-0.027721
-0.035375
-0.034099
-0.0105
-0.0044404
-0.0044404
0.0028946
0.011824
0.0089539
0.01884
0.04818
0.067314
0.084854
0.13046
0.1126
0.088362
0.074012
0.089
0.081984
0.077838
0.096335
0.10399
0.087087
0.067314
0.07433
0.049137
0.031915
0.049774
0.035742
0.034786
0.042121
0.055515
0.051369
0.046904
0.046585
0.069547
0.08326
0.12759
0.10526
0.087087
0.08326
0.084536
0.09506
0.080709
0.058704
0.082941
0.092827
0.07146
0.049774
0.03064
0.018202
0.0054459
-0.029634
-0.041115
-0.0031647
-0.010819
-0.0041214
0.0028946
-0.0063538
-0.0095429
-0.014964
0.014694
-0.0015702
0.0060837
0.01597
0.023624
0.014694
0.015332
0.015332
0.016608
0.032234
0.042758
0.069866
0.078795
0.061893
0.055515
0.050731
0.035423
0.059342
0.087087
0.058066
0.037975
0.044353
0.031278
0.023624
0.020754
0.014056
0.01597
0.0079971
-0.013051
-0.031867
0.017246
0.047223
0.060617
0.052326
0.037337
0.036699
0.080709
0.12823
0.10654
0.08613
0.059023
0.054877
-0.00093234
0.015332
0.037018
0.063169
0.020754
-0.010819
-0.01911
-0.072687
-0.081617
-0.091184
-0.088314
-0.096286
-0.1033
-0.10745
-0.11542
-0.12212
-0.10617
-0.092778
-0.080341
-0.087676
-0.077152
-0.064395
-0.058017
-0.053234
-0.014645
-0.0069916
-0.0018891
0.039569
0.008635
-0.00029452
0.021072
0.0025757
-0.0089051
0.0057648
0.0028946
-0.0012513
-0.017835
-0.014008
-0.020386
0.01597
0.0003433
-0.022299
-0.010181
-0.0015702
-0.002208
-0.015921
-0.0044404
0.0070404
-0.0015702
-0.0063538
0.021391
0.03351
0.013738
0.01597
0.015651
0.014694
0.020435
0.027451
0.036699
0.0060837
0.021072
0.0073593
0.041483
0.028407
0.083898
0.07752
0.013738
0.031278
0.024262
0.018202
0.032234
0.02458
0.018521
0.031278
-0.017835
-0.011456
0.0003433
-0.017516
-0.025807
-0.049726
-0.060887
-0.09246
-0.085443
-0.095968
-0.082573
-0.049407
-0.058017
-0.05132
-0.051639
-0.049726
-0.043985
-0.036012
-0.034737
-0.020067
-0.010181
-0.023894
0.0057648
0.0073593
-0.01624
-0.016878
-0.0012513
0.0003433
0.012462
0.023624
0.027132
0.023624
0.027451
0.047542
0.06859
0.069547
0.032872
0.024899
0.059023
0.052645
0.020116
0.027132
0.041483
0.041802
-0.0050782
-0.013051
-0.0066727
0.020435
0.0016189
-0.015921
-0.01624
0.0038513
-0.031548
-0.0079484
-0.012094
-0.038245
-0.046855
-0.070455
-0.082573
-0.079384
-0.057698
-0.066628
-0.065352
-0.070774
-0.073963
-0.093416
-0.11159
-0.06025
-0.052915
-0.065352
-0.077471
-0.073644
-0.072687
-0.069817
-0.064395
-0.069498
-0.078109
-0.074282
-0.07779
-0.058655
-0.04271
-0.022618
0.0131
0.016608
0.015013
0.020435
-0.0012513
0.018202
0.071141
0.029364
0.037337
0.026175
0.0038513
0.0060837
0.0054459
-0.020067
-0.073006
-0.080979
-0.056742
-0.070455
-0.083211
-0.097562
-0.10713
-0.11893
-0.11255
-0.10553
-0.089908
-0.066947
-0.061844
-0.074282
-0.034737
-0.049088
-0.054509
-0.046536
-0.010181
0.011505
0.031278
0.058385
0.079114
0.081984
0.048818
0.0079971
-0.0044404
0.027132
0.029683
0.011824
0.0067215
-0.0034836
-0.0034836
-0.037926
-0.053871
-0.019429
-0.025807
-0.023575
-0.023575
-0.057379
-0.04558
-0.035056
-0.032504
-0.028678
-0.04558
-0.029634
-0.032186
-0.020705
-0.013051
-0.014964
-0.01337
0.008316
0.042439
0.035423
0.055196
0.041483
0.046904
0.050731
0.050731
0.049455
0.072736
0.092827
0.090595
0.072417
0.079433
0.073374
0.071779
0.090914
0.093146
0.048818
0.088681
0.078795
0.058385
0.067314
0.097611
0.087406
0.064444
0.046585
0.039569
0.035104
0.01023
0.019797
0.031278
0.019159
-0.014964
-0.017835
-0.0050782
0.027132
0.031278
-0.029315
-0.039202
0.026175
0.051369
0.026175
0.033191
0.048499
0.05679
0.074968
0.067633
0.062531
0.062531
0.082941
0.075287
0.067633
0.050093
0.081028
0.075606
0.041164
0.039569
-0.002208
-0.014008
-0.0095429
0.010548
-0.0047593
0.0073593
-0.012732
0.0044891
-0.0028458
0.019478
0.041164
0.041164
0.027132
0.028407
0.012462
0.0016189
0.022348
0.0076782
0.013738
-0.0105
-0.025488
-0.024851
-0.027402
-0.028359
-0.009224
2.4388e-05
-0.012094
-0.0073105
-0.00061343
0.015332
0.017564
0.050731
0.047542
0.059661
0.070822
0.035423
0.034786
0.034148
0.035104
0.043396
0.0095917
0.0028946
0.0073593
0.01597
0.029364
0.029045
0.020754
0.0016189
-0.021024
-0.02198
-0.012413
-0.010819
-0.012094
-0.009224
-0.028996
-0.037926
-0.013689
-0.033142
-0.048131
-0.036331
-0.051958
-0.038564
-0.039839
-0.034099
-0.037926
-0.059612
-0.019429
0.014056
0.016289
0.019797
-0.0012513
-0.002208
0.014694
0.0076782
0.024262
0.066039
0.056471
0.038294
0.010548
0.012143
0.024899
-0.0060349
-0.005716
-0.022299
-0.039839
-0.04845
-0.045261
-0.060887
-0.087038
-0.055466
-0.030272
-0.026764
-0.015283
-0.028359
-0.035375
-0.043985
-0.039202
-0.019429
0.0022568
0.013738
-0.013689
-0.021343
-0.032823
-0.026126
-0.027083
-0.024851
-0.043347
-0.060569
-0.049407
-0.014964
-0.022937
-0.024532
0.014375
0.018521
0.026175
0.019478
0.038612
0.11356
0.13875
0.09187
0.072098
0.061255
0.059023
0.051369
0.054239
0.040845
0.045947
0.035104
0.0070404
-0.021343
-0.048131
-0.078427
-0.066309
-0.073644
-0.079703
-0.096605
-0.10968
-0.1269
-0.12913
-0.095649
-0.11096
-0.093416
-0.081617
-0.08927
-0.09246
-0.091822
-0.073644
-0.06599
-0.084487
-0.075876
-0.054828
-0.059612
-0.04845
-0.028678
-0.053234
-0.056742
-0.02517
-0.032823
-0.045261
-0.051639
-0.03091
-0.017197
2.4388e-05
-0.02198
-0.024532
-0.028996
-0.03665
-0.037926
-0.054509
-0.055466
-0.051958
-0.053552
-0.070774
-0.068222
-0.042072
-0.052915
-0.054828
-0.065671
-0.040158
-0.01911
-0.01911
-0.00061343
-0.01337
-0.00061343
0.022667
0.02458
0.018202
0.022029
0.021072
0.069228
0.091233
0.059342
0.040526
0.045629
0.027451
-0.023575
0.0089539
0.030002
0.029045
0.0032135
-0.014645
-0.035056
-0.065033
-0.10171
-0.086719
-0.085443
-0.095011
-0.09246
-0.11383
-0.10649
-0.087676
-0.080022
-0.095011
-0.067266
-0.071411
-0.076195
-0.058336
-0.04271
-0.063758
-0.037926
-0.010181
-0.035375
-0.040158
-0.022937
-0.024532
0.0067215
0.015013
-0.018791
-0.014327
0.0057648
0.016927
0.0032135
-0.0063538
-0.012732
-0.036331
-0.047174
-0.02804
2.4388e-05
-0.044942
-0.043347
-0.035375
-0.056742
-0.068541
-0.054828
-0.039839
-0.023894
-0.016559
-0.021343
-0.025807
-0.020705
0.0032135
0.033191
0.056153
0.057109
0.075925
0.062531
0.043077
0.065401
0.10144
0.088044
0.10558
0.12631
0.12631
0.10048
0.08326
0.054558
0.047223
0.048818
0.063169
0.05392
0.0032135
0.012781
0.01023
-0.00061343
0.025537
0.032234
0.041802
0.04818
0.044672
0.037018
0.034148
0.037018
0.035742
0.062531
0.077201
0.059023
0.047542
0.017564
0.008635
0.048818
0.049455
0.046585
0.060298
0.057109
0.042439
0.061574
0.058385
0.055515
0.063806
0.056153
0.055834
0.068909
0.04818
0.062212
0.046904
0.030002
0.030959
0.034786
0.03638
0.033829
0.06285
0.077201
0.06285
0.082622
0.083898
0.064763
0.07752
0.13078
0.10909
0.10782
0.11356
0.10909
0.092508
0.10399
0.1126
0.10048
0.070503
0.066995
0.11132
0.059023
0.066677
0.078795
0.050412
0.03064
0.033829
0.03925
0.024899
0.026175
0.01884
0.026813
0.015332
0.031915
0.017883
0.022029
0.033829
0.027451
0.025537
0.008316
0.041164
0.029364
0.017246
0.0051269
-0.0012513
-0.011775
-0.02804
-0.026445
-0.015921
-0.0060349
0.012781
-0.013689
-0.014645
-0.023575
-0.0073105
0.01884
0.027132
0.011186
0.019478
-0.017835
0.0003433
0.050412
0.035104
0.020435
-0.00093234
-0.014327
-0.012732
0.036061
0.020116
-0.03665
-0.034737
-0.0079484
-0.018791
-0.027083
-0.0050782
-0.018153
-0.0028458
-0.0031647
0.0003433
-0.0085862
0.028088
0.027132
0.027451
0.015332
0.0131
0.010867
0.031915
0.029683
0.035104
0.028407
-0.027083
-0.02198
-0.037288
-0.077471
-0.054828
-0.063439
-0.082892
-0.11159
-0.10872
-0.083211
-0.070455
-0.078427
-0.086719
-0.088314
-0.064395
-0.060887
-0.071093
-0.055466
-0.059293
-0.011456
-0.014327
-0.023575
-0.038883
-0.049088
-0.054828
-0.041434
-0.058655
-0.042072
-0.033142
-0.029953
-0.052596
-0.037288
-0.051958
-0.059293
-0.046218
-0.042072
-0.06599
-0.058974
-0.05132
-0.04558
-0.04845
-0.024851
-0.014327
-0.04558
0.012781
0.031915
0.015013
0.019478
0.020116
0.018521
0.027451
-0.012094
0.011505
0.029045
0.040207
0.028407
-0.0012513
0.0044891
-0.0034836
-0.01337
-0.051958
-0.03665
-0.02804
-0.032823
-0.0085862
0.0041702
0.015332
-0.028359
-0.041434
-0.025488
-0.019429
-0.011456
0.0032135
-0.013689
0.022029
0.047542
0.019797
0.015651
0.025537
0.03064
0.0076782
-0.0018891
0.058066
0.012781
-0.042072
-0.040477
-0.040477
-0.044304
-0.064395
-0.092778
-0.098838
-0.094054
-0.091822
-0.08927
-0.094054
-0.10681
-0.10235
-0.10203
-0.074919
-0.059931
-0.077471
-0.10043
-0.0982
-0.079065
-0.077152
-0.074282
-0.091503
-0.12307
-0.10043
-0.095011
-0.11223
-0.11159
-0.082892
-0.070136
-0.056104
-0.06025
-0.052596
-0.071411
-0.06599
-0.046855
-0.037926
-0.044623
-0.047174
-0.053871
-0.056742
-0.047174
-0.062482
-0.06312
-0.051958
-0.051001
-0.062482
-0.059931
-0.055466
-0.076833
-0.10235
-0.06599
-0.050682
-0.055466
-0.055147
-0.074919
-0.050363
-0.034099
-0.044623
-0.020705
-0.030591
-0.0066727
0.012462
0.066039
0.066995
0.037018
0.012143
0.0016189
0.0051269
0.030321
-0.00093234
-0.027083
-0.056104
-0.040158
-0.033142
-0.051001
-0.084806
-0.10107
-0.097881
-0.10298
-0.088633
-0.077471
-0.083849
-0.050044
-0.0018891
-0.026445
-0.0066727
-0.014645
-0.027721
-0.049407
-0.041434
-0.015602
0.010548
0.0025757
-0.00029452
-0.026126
0.0092728
0.018202
0.015332
-0.0015702
0.0032135
-0.01337
-0.021024
-0.016878
-0.0105
0.0054459
0.028726
0.018521
0.021391
-0.0044404
0.014694
0.02458
0.014375
0.038612
0.04818
0.06572
0.11356
0.10367
0.12217
0.10845
0.094422
0.08039
0.069547
0.1126
0.13301
0.093784
0.024899
0.050412
0.10813
0.03351
0.034786
0.038294
0.024262
0.0070404
0.018202
0.0070404
0.01023
0.01884
0.061255
0.055834
0.045947
0.043396
0.03925
0.03638
0.030959
0.052007
0.075606
0.11962
0.099205
0.058066
0.042121
0.055515
0.041483
0.034467
0.040207
0.044672
0.031596
0.017564
0.017246
0.022029
0.017564
0.042439
0.030321
0.024899
0.027132
0.033829
0.03064
0.035104
0.050731
0.047542
0.067314
0.089957
0.070185
0.052645
0.072736
0.08613
0.11005
0.13142
0.12249
0.11706
0.10973
0.15852
0.12855
0.089638
0.10176
0.11706
0.09506
0.056471
0.085173
0.088044
0.031596
0.078157
0.10941
0.086768
0.049455
0.044034
0.026175
0.0003433
0.052007
0.066677
0.066358
0.046904
0.020754
0.008635
-0.015283
-0.016878
-0.029953
-0.041753
-0.052915
-0.04271
0.015332
0.011186
0.008316
0.010867
0.021072
0.012781
0.026494
0.027132
0.033829
0.031596
0.046585
0.025537
0.0051269
-0.015921
-0.010181
0.0060837
0.014694
-0.0031647
-0.010819
2.4388e-05
0.01023
0.025856
0.026813
0.022029
0.028407
0.050093
0.04818
0.059979
0.11451
0.10239
0.08613
0.096016
0.086768
0.092827
0.11356
0.11547
0.10144
0.08326
0.10303
0.082941
0.05392
0.021391
0.037337
0.028088
0.012143
-0.03378
-0.059293
-0.02198
-0.0015702
-0.033142
-0.041434
-0.009224
0.0016189
-0.015921
-0.014008
-0.011456
0.028407
0.017564
0.011186
-0.0073105
0.0089539
0.037018
0.01884
0.013419
0.020754
-0.022618
-0.067903
-0.10968
-0.020386
-0.009224
-0.043028
-0.028678
-0.031548
-0.065671
-0.081617
-0.072049
-0.086081
-0.10011
-0.096605
-0.071093
-0.076833
-0.073325
-0.059612
-0.038564
-0.03665
-0.0105
-0.032504
-0.03378
-0.039202
-0.0041214
0.013419
0.035423
0.02777
0.0057648
-0.012413
0.0041702
-0.028678
-0.04271
-0.0076295
-0.022937
-0.038245
-0.054828
-0.03378
-0.038564
-0.042391
-0.022937
-0.05419
-0.033142
-0.023256
-0.034737
-0.032186
-0.04558
-0.03665
-0.031867
-0.036012
-0.00061343
-0.0098618
-0.0063538
0.073374
0.053601
0.070503
0.07433
0.085811
0.058704
0.079114
0.10208
0.089638
0.083898
0.063806
0.046904
0.014375
0.021072
-0.015602
0.021072
-0.014645
-0.028678
-0.050363
-0.073006
-0.072368
-0.055785
-0.066309
-0.068222
-0.04845
-0.053871
-0.046218
-0.052596
-0.070455
-0.060569
-0.045899
-0.04845
-0.065352
-0.047493
-0.018153
-0.018791
-0.013689
-0.0012513
0.0003433
0.01023
0.013419
0.033191
0.04818
0.033829
0.028088
0.023624
0.046904
0.072736
0.086768
0.081028
0.075287
0.056153
0.043715
0.037975
0.070503
0.064125
0.053282
0.046266
0.032872
0.0131
0.035423
0.049455
0.008316
0.041483
0.044672
0.031596
0.042439
0.041802
0.019797
0.0041702
0.033829
0.041164
0.016289
0.043715
0.055834
0.017564
-0.0085862
-0.031867
-0.050682
-0.028359
0.01023
0.015013
-0.013051
0.0060837
0.0073593
-0.010181
-0.0038025
0.0022568
0.004808
0.014375
0.039569
-0.0044404
-0.0038025
-0.0053971
-0.014645
-0.014645
-0.032186
-0.02804
-0.014964
-0.0069916
-0.0089051
-0.005716
-0.005716
-0.012413
0.0131
0.035742
0.032872
0.011505
2.4388e-05
0.012781
0.022986
-0.0105
-0.022937
-0.0076295
0.0028946
0.0054459
-0.01624
-0.036969
-0.034099
-0.041434
-0.038564
-0.047812
-0.03665
-0.056104
-0.052596
-0.0047593
0.0079971
-0.017516
-0.028359
0.0064026
0.0099106
-0.0050782
-0.005716
0.029683
0.091552
0.07146
0.067314
0.049137
0.038931
-0.014008
-0.0050782
0.02458
0.03064
0.03638
0.013419
-0.049407
-0.046536
-0.040477
-0.037288
-0.011775
-0.036012
0.0028946
0.0022568
-0.009224
-0.028359
-0.0098618
-0.0044404
-0.047493
-0.038883
-0.016878
-0.037288
-0.041434
-0.059612
-0.074601
-0.090546
-0.0864
-0.077152
-0.090227
-0.086081
-0.07173
-0.064077
-0.070136
-0.073644
-0.074601
-0.049407
-0.046855
-0.065033
-0.053871
-0.044304
-0.047812
-0.022937
-0.00061343
0.01023
-0.011456
-0.010181
0.0003433
-0.017197
-0.030272
-0.019748
0.018202
0.021391
0.030959
-0.00093234
-0.041753
-0.04845
-0.01624
-0.020386
-0.0089051
-0.0098618
-0.038564
-0.039202
-0.039839
-0.028359
0.0041702
0.017246
0.008316
0.013738
0.034786
0.017883
0.054239
0.057747
0.015013
-0.002208
-0.014327
-0.0063538
0.013419
0.032234
-0.002208
-0.013051
-0.0063538
-0.009224
0.0028946
0.019797
0.0060837
-0.013051
-0.030272
-0.033461
-0.020067
-0.009224
-0.069179
-0.041115
-0.031867
-0.049407
-0.042391
-0.065671
-0.029634
-0.01337
-0.037288
-0.041753
-0.058336
-0.047174
-0.029634
-0.039202
-0.073963
-0.051958
-0.031229
-0.010819
-0.037288
-0.031867
-0.044942
-0.076514
-0.0864
-0.08353
-0.08066
-0.09246
-0.093735
-0.057379
-0.061525
-0.066309
-0.034737
-0.047174
-0.075238
-0.087038
-0.063439
-0.050363
-0.027402
-0.035056
-0.034418
-0.057698
-0.041434
-0.040796
-0.04558
-0.059293
-0.051639
-0.034418
-0.032823
-0.050363
-0.049407
-0.055466
-0.057698
-0.02517
-0.026764
-0.0034836
0.0054459
0.0067215
-0.012413
0.026494
0.047223
0.021391
0.016927
0.058385
0.032234
0.027132
0.022029
-0.021024
-0.022299
-0.018153
-0.0031647
-0.028678
-0.06025
-0.039202
-0.053552
-0.068541
-0.059612
-0.052596
-0.060887
-0.069817
-0.057698
-0.055466
-0.066947
-0.10872
-0.074919
-0.051639
-0.035056
-0.05132
-0.043666
-0.044942
-0.020386
-0.0025269
-0.0082673
0.014056
0.066039
0.03351
0.0089539
0.032872
0.052326
0.064125
0.055834
0.019478
-0.0098618
0.0019378
-0.021343
-0.027721
-0.013689
-0.023575
-0.049088
-0.070455
-0.058655
-0.087038
-0.085762
-0.075876
-0.056104
-0.065671
-0.058655
-0.075238
-0.062163
-0.040477
-0.040477
-0.03091
-0.014327
-0.014008
-0.01337
0.030321
0.035742
0.059979
0.046904
0.03351
0.024262
0.062212
0.057109
0.052645
0.033829
0.036699
-0.018791
-0.029634
-0.0031647
0.0016189
-0.035056
-0.031229
-0.039839
-0.049088
-0.022299
-0.025488
-0.0053971
-0.011775
-0.02804
-0.024213
-0.036331
-0.0047593
-0.010181
0.014694
0.022348
0.012781
0.018202
-0.0012513
-0.021343
-0.0041214
-0.0060349
0.028726
0.025856
0.0073593
0.031596
0.022029
-0.0031647
0.015651
0.0089539
-0.0031647
0.033191
0.016608
0.0044891
0.0067215
0.010548
-0.035694
-0.021343
0.016608
-0.005716
-0.024532
-0.032186
-0.061525
-0.065033
-0.044623
-0.046218
-0.030591
-0.045261
-0.015602
-0.015921
-0.027083
-0.02804
-0.00093234
0.023943
0.037975
0.078157
0.052007
0.04818
0.055196
0.037975
0.029683
0.019797
0.026175
0.03638
0.029364
0.050093
0.029683
0.029045
0.015013
0.0064026
0.026175
0.052326
0.074012
0.075606
0.074968
0.064444
0.037018
0.058704
0.059661
0.044034
0.042121
0.028407
0.047223
0.045947
2.4388e-05
-0.012094
-0.0105
-0.023256
-0.026445
-0.037607
-0.031229
-0.043347
-0.028678
-0.042072
-0.044942
-0.037288
-0.043985
-0.052915
-0.049088
-0.020705
-0.015602
-0.03091
-0.012413
0.02777
0.030002
0.023943
0.027451
0.014375
0.029683
0.017883
0.029045
0.080071
0.072098
0.046585
0.040526
0.041164
0.011505
0.0044891
0.035104
0.030959
0.019478
0.023943
0.043396
0.05679
0.075287
0.047223
0.038294
0.022029
0.0038513
0.021391
0.039888
0.066677
0.094422
0.048499
0.041483
0.039569
0.037656
0.046585
0.049774
0.029045
0.027451
0.0003433
0.035423
0.020116
-0.029315
-0.026126
-0.037288
-0.019429
-0.018472
-0.0047593
-0.02804
-0.047812
-0.029634
-0.030591
-0.023256
-0.013689
-0.01624
-0.0079484
0.0032135
0.012462
-0.0089051
-0.0098618
-0.010181
-0.041434
-0.012094
0.014375
-0.0044404
0.0032135
-0.0105
-0.018472
-0.0076295
0.034786
0.054877
0.03638
0.024899
-0.0012513
-0.045899
-0.013689
0.027451
0.020435
0.03351
0.047542
0.061574
0.068909
0.070503
0.035104
0.0092728
0.037975
0.064763
0.031596
0.050412
0.048818
0.039888
0.0064026
-0.012413
-0.02198
-0.052277
-0.058336
-0.045261
-0.066947
-0.090546
-0.092141
-0.076514
-0.068541
-0.066309
-0.03378
0.0025757
0.022348
0.020754
0.023624
0.0099106
0.011505
-0.0047593
-0.0018891
0.015651
0.02777
0.050412
0.037656
0.04531
-0.0053971
-0.036331
-0.030591
-0.019748
-0.021024
-0.036969
-0.017516
-0.046855
-0.060887
-0.052915
-0.034737
-0.020705
-0.031229
-0.038564
-0.037288
-0.034099
0.0032135
0.060298
0.039569
0.042758
0.10144
0.11356
0.067314
0.081665
0.062212
0.051688
0.025856
-0.0050782
0.008635
0.029045
-0.0066727
-0.036012
-0.045899
-0.075876
-0.1269
-0.12084
-0.096605
-0.11446
-0.11287
-0.10553
-0.11128
-0.095649
-0.078427
-0.082573
-0.083849
-0.067266
-0.034099
-0.019748
-0.0098618
-0.041434
-0.052596
-0.0105
-0.02517
-0.0044404
-0.00061343
0.0099106
0.0092728
2.4388e-05
-0.018472
-0.022618
0.014694
0.0057648
0.035742
0.07752
0.11962
0.14098
0.093465
0.042121
0.013419
0.035423
0.047861
0.081665
0.054877
-0.011775
-0.027721
-0.0085862
-0.036331
-0.090546
-0.14189
-0.13806
-0.12754
-0.12913
-0.1336
-0.11446
-0.10107
-0.095968
-0.057379
-0.056104
-0.046218
0.029683
0.049774
0.037975
0.042121
0.037656
0.03064
0.048499
0.049137
0.078795
0.063487
-0.002208
0.052645
0.052645
0.031596
0.032553
-0.00093234
-0.038564
-0.049088
-0.056104
-0.056104
-0.067585
-0.052915
-0.051958
-0.052596
-0.040796
-0.059293
-0.073006
-0.06312
-0.046218
0.00098112
-0.012413
-0.014645
-0.0095429
-0.0060349
-0.0012513
0.048499
0.044353
0.023943
0.043715
0.065401
0.055196
0.049774
0.040845
0.079752
0.059661
0.0092728
0.0019378
0.027132
0.073374
0.052326
0.020116
0.014375
-0.023575
-0.051001
-0.050044
-0.053871
-0.046218
-0.037926
-0.033461
-0.055147
-0.063439
-0.046536
-0.061525
-0.065352
-0.039202
-0.041753
-0.047812
-0.021024
-0.0085862
-0.015921
0.0035324
0.022986
0.022348
0.035423
0.045629
0.038294
0.065401
0.070185
0.059661
0.052963
0.054239
0.028407
0.055515
0.045947
0.02458
-0.033461
-0.038245
-0.022937
-0.014964
-0.03091
-0.021661
-0.036969
-0.046218
-0.030591
-0.024532
0.0054459
0.022986
0.054239
0.052645
0.077838
0.074012
0.024262
0.042758
0.035423
0.043715
0.01023
0.00066221
-0.0063538
-0.021343
-0.01911
-0.012413
-0.061844
-0.074601
-0.063758
-0.075557
-0.10107
-0.080022
-0.047493
-0.044304
-0.06312
-0.061525
-0.064714
-0.053552
-0.060569
-0.034099
-0.024532
0.023624
0.0025757
-0.023575
0.004808
0.026494
0.045947
0.050093
0.042439
0.028407
0.022029
0.012462
-0.0050782
0.0044891
0.023305
-0.012094
-0.005716
-0.033461
-0.028678
-0.032823
-0.034418
-0.036331
-0.046855
-0.01337
0.034148
0.04531
0.029364
0.024262
0.037975
0.03638
0.044991
0.042121
-0.012413
0.017564
0.052963
0.080709
0.059023
0.017246
-0.0015702
-0.0063538
-0.0053971
0.014694
0.035104
0.0013
0.015013
0.0051269
-0.028359
-0.021024
-0.011775
-0.015283
-0.013689
0.0095917
0.030002
0.018202
-0.0089051
-0.0053971
-0.0047593
-0.023894
-0.042391
-0.027721
-0.011775
-0.022937
-0.01337
-0.039202
-0.049407
-0.064395
-0.051958
-0.056742
-0.052596
-0.037288
-0.042072
-0.032504
-0.01624
-0.024213
-0.012732
0.044034
0.047861
0.049137
0.030002
0.0099106
0.017246
0.049774
0.10048
0.10335
0.042121
0.023943
0.044991
0.029683
0.037975
-0.0034836
0.0025757
-0.038564
0.015651
-0.020705
-0.034737
-0.046218
-0.032186
-0.015921
0.013738
0.028088
0.05392
0.020435
2.4388e-05
0.016289
0.028726
0.024899
0.058066
0.058385
0.067314
0.04531
0.014375
-0.0060349
-0.02804
-0.084806
-0.078746
-0.047812
-0.040158
-0.049726
-0.072687
-0.066947
-0.062163
-0.08927
-0.062801
-0.032823
-0.037607
-0.036331
-0.03091
-0.023575
-0.027402
-0.037607
-0.034099
-0.03091
-0.034737
-0.02517
-0.011137
2.4388e-05
-0.0073105
0.017246
0.017564
0.008316
0.00066221
-0.00093234
-0.0015702
0.0019378
0.032872
0.020754
2.4388e-05
-0.01337
-0.018472
-0.019748
0.058066
0.056471
0.024899
0.065082
0.05679
0.033829
0.031596
0.045629
0.061893
0.040526
0.014375
0.060936
0.063806
0.029045
0.0076782
-0.026764
-0.026445
-0.031867
-0.037607
-0.036331
-0.049088
-0.056104
-0.059612
-0.016559
-0.0079484
-0.0069916
0.01597
0.066995
0.097292
0.064763
0.069866
0.07146
0.086449
0.073055
0.060936
0.046266
0.066677
0.038294
0.0079971
0.032234
2.4388e-05
-0.054509
-0.083211
-0.10872
-0.10681
-0.12307
-0.13934
-0.14221
-0.12626
-0.10617
-0.10298
-0.097562
-0.086719
-0.056742
-0.031229
-0.022618
0.030002
0.0013
-0.013689
0.010548
0.030002
0.023624
0.014694
0.042121
0.0070404
-0.034418
-0.0012513
0.0067215
-0.00093234
-0.005716
-0.022937
-0.026445
-0.02198
-0.028359
-0.020705
-0.0073105
0.0044891
0.016289
-0.0031647
-0.005716
0.0076782
0.031278
0.030002
0.028088
0.040207
0.08613
0.073055
0.072736
0.07752
0.062531
0.037018
0.0022568
0.020116
0.015332
0.061574
0.053282
0.021391
0.023943
0.025537
0.010548
0.011824
0.0051269
0.016289
0.0131
0.014375
0.040207
0.072736
0.086449
0.070503
0.028088
0.034148
-0.0095429
0.0025757
-0.00029452
-0.014327
-0.012094
0.0038513
-0.00093234
-0.0105
-0.011137
-0.024213
-0.019748
-0.016878
-0.0034836
0.011824
0.021391
-0.020705
-0.012094
-0.022299
0.011186
-0.0050782
-0.041434
-0.025488
-0.0060349
0.0054459
-0.014645
-0.028678
-0.025807
0.0054459
0.0025757
-0.0034836
0.01884
-0.026126
-0.01624
0.017564
0.008635
0.0070404
-0.014327
-0.0098618
0.04531
0.061574
0.055515
0.059023
0.055515
0.044353
0.032872
0.087406
0.087725
0.074968
0.043077
0.071779
0.043715
0.035104
0.0076782
0.0035324
-0.020067
-0.030591
-0.014964
-0.025488
0.0092728
0.025218
-0.00061343
0.0032135
0.012143
-0.0082673
-0.0079484
0.02171
0.0095917
0.037337
0.059661
0.050731
0.0076782
0.010548
0.022348
0.018521
-0.0073105
0.013419
0.027132
0.025218
0.040845
0.048499
0.051369
0.01597
-0.0089051
-0.011775
-0.024851
-0.015283
-0.015921
-0.023575
-0.018153
-0.018791
-0.030591
-0.034099
-0.025807
-0.01911
0.0064026
0.0131
0.046266
0.029045
0.015013
-0.0034836
-0.012732
0.028726
0.040207
0.058704
0.032234
0.011824
0.040845
0.019797
-0.014964
-0.027402
-0.0085862
-0.0018891
0.00098112
0.016289
0.011824
0.004808
-0.028678
-0.059612
-0.0066727
-0.016878
-0.010819
0.020116
-0.0015702
-0.022618
-0.014964
-0.0063538
-0.0105
0.016608
0.021391
0.0013
0.0054459
-0.009224
-0.0105
0.013419
-0.0082673
-0.011775
0.025218
0.019478
0.0095917
0.024262
0.016608
-0.028678
-0.0085862
0.038612
0.062531
0.063806
0.0067215
-0.026126
-0.049088
-0.0066727
-0.055466
-0.049407
-0.051958
-0.066628
-0.088952
-0.12212
-0.11542
-0.073325
-0.078746
-0.10139
-0.076195
-0.057698
-0.047493
-0.043347
-0.024532
0.012143
0.050412
0.060617
0.076882
0.047223
0.037018
0.054558
0.030002
0.067633
0.086449
0.090595
0.064444
0.052963
0.046266
0.046585
0.037656
-0.012413
-0.01911
-0.0082673
-0.047812
-0.064714
-0.065033
-0.076514
-0.026764
-0.037607
-0.047174
-0.041753
-0.073325
-0.050682
-0.057379
-0.03665
-0.043028
-0.022937
-0.020067
-0.018791
-0.016878
-0.027083
-0.045261
-0.10777
-0.085762
-0.043985
-0.046536
-0.078427
-0.070136
-0.061844
-0.067903
-0.070136
-0.060887
-0.057698
-0.04271
-0.03665
-0.03952
-0.031229
-0.011775
-0.014327
-0.021343
-0.013051
0.0070404
0.020116
-0.0031647
0.0092728
0.027132
0.032553
0.034786
0.035104
0.020754
0.0003433
-0.0018891
0.048499
0.038612
0.055196
0.055834
0.036699
0.03925
0.041164
0.062212
0.051369
0.034467
0.033191
0.04531
0.037337
0.035423
0.037337
0.05105
0.081028
0.038931
-0.0082673
-0.014327
-0.018791
-0.029634
-0.012094
0.028407
0.014375
-0.015283
0.017246
0.039888
-0.020386
-0.047493
-0.0031647
-0.027402
-0.025488
-0.038245
-0.035056
-0.068222
-0.087357
-0.072049
-0.067903
-0.062801
-0.071093
-0.079703
-0.069498
-0.063439
-0.057698
-0.044304
-0.029315
-0.026126
-0.0073105
-0.0018891
-0.036012
-0.040477
-0.01337
-0.023894
-0.044304
-0.043028
-0.033142
-0.036969
-0.026445
-0.021024
-0.033142
-0.039839
-0.030591
-0.020705
-0.010181
0.0019378
-0.012732
-0.022299
-0.01337
-0.0031647
-0.024213
-0.043666
-0.03665
0.020435
0.022986
0.028407
0.012143
0.036061
0.044034
0.028088
0.052645
0.098568
0.10686
0.070185
0.05392
0.071141
0.074649
0.054877
0.07752
0.057747
0.059342
0.01023
0.0070404
0.0003433
-0.0076295
-0.0060349
-0.022937
-0.00061343
-0.012413
0.0099106
-0.0031647
-0.0095429
-0.013689
-0.022618
-0.019748
-0.023894
-0.043347
-0.01911
-0.018153
-0.023575
-0.020386
-0.028359
-0.055147
-0.049088
-0.042072
-0.049088
-0.040158
-0.06312
-0.076195
-0.063439
-0.038883
-0.032504
-0.032504
-0.01911
-0.027721
0.0035324
0.025537
0.017246
0.061255
0.043715
0.022986
0.0028946
0.0019378
0.0076782
0.058066
0.027451
-0.017197
-0.043985
-0.052915
-0.028996
-0.034099
-0.042391
-0.06025
-0.050682
-0.032186
-0.0034836
0.020116
0.014056
0.0067215
-0.0095429
-0.0098618
0.015651
0.036061
0.034467
0.024899
0.011505
0.008635
0.017246
0.0073593
-0.026764
-0.0050782
-0.0076295
-0.011456
-0.0076295
-0.037607
-0.023894
-0.025807
0.022348
-0.0050782
-0.022618
-0.033142
-0.039202
0.0076782
-0.0069916
-0.02198
0.00066221
0.018521
0.008635
-0.010819
-0.01337
0.055515
0.067633
0.062212
0.07146
0.050412
0.031915
0.016927
0.00066221
0.008635
0.03351
0.0038513
0.0095917
0.032872
0.033191
-0.005716
-0.022299
-0.053552
-0.043028
-0.036331
-0.040158
-0.048131
-0.020386
0.0028946
-0.0089051
-0.019429
-0.0076295
0.0038513
-0.0041214
-0.009224
0.011505
-0.014327
-0.04271
-0.0041214
0.0051269
-0.0041214
0.0089539
-0.011775
-0.045899
-0.047812
-0.032504
-0.022937
-0.025488
-0.0047593
0.0035324
0.0131
0.010867
0.019478
0.032872
0.075287
0.096335
0.085492
0.092827
0.073374
0.066677
0.061893
0.041802
-0.023575
-0.058336
-0.017516
0.042439
0.015651
-0.023575
-0.049407
-0.034099
-0.067266
-0.060569
-0.040477
-0.057061
-0.032504
-0.059612
-0.040796
-0.039839
-0.024851
-0.033461
-0.058974
-0.055147
-0.056742
-0.03665
-0.050363
-0.033142
-0.024851
0.014694
0.060617
0.044034
0.026175
0.021072
0.023305
0.0022568
0.020435
0.025218
0.034786
0.023305
0.035104
-0.0034836
-0.038245
-0.023894
-0.026126
-0.051958
-0.048769
-0.028678
-0.032504
-0.032504
-0.03091
-0.029953
-0.0089051
0.0016189
-0.0038025
0.0060837
0.018521
0.010867
0.024899
0.036699
0.049137
0.066995
0.066995
0.059023
0.050093
0.036061
0.029683
0.053601
0.055196
0.03925
0.03638
0.030002
0.033191
0.022986
0.020754
0.033829
-0.0085862
-0.0047593
-0.011775
-0.036331
0.014694
0.013738
0.028088
-0.0098618
-0.028678
-0.078746
-0.078109
-0.037926
-0.052915
-0.058655
-0.055147
-0.036012
-0.047174
-0.031229
-0.0079484
0.0025757
-0.0060349
0.066677
0.06859
0.084854
0.04818
0.030959
0.051369
0.034786
0.026175
0.030002
0.027132
0.014694
-0.0066727
-0.017197
-0.029315
-0.017835
0.015332
-0.024851
-0.032504
-0.049726
-0.048131
-0.020386
-0.01624
0.0022568
0.018521
0.0067215
-0.01911
-0.032504
-0.042072
-0.02804
-0.011456
-0.009224
-0.014327
-0.030591
-0.011456
-0.0012513
-0.0050782
0.012781
0.029045
0.017246
0.051688
0.037018
0.019159
-0.0060349
-0.00093234
0.081984
0.076882
0.061574
0.063169
0.047542
0.045947
0.030002
0.037656
0.03638
0.066358
0.052326
0.059979
0.05392
0.022667
-0.037926
-0.057379
-0.01624
-0.0079484
-0.0050782
-0.032504
-0.036331
-0.07173
-0.067903
-0.070774
-0.075876
-0.077471
-0.073325
-0.052915
-0.058655
-0.068222
-0.062482
-0.050682
-0.01337
0.035423
0.030321
0.020116
0.027132
0.02171
0.025537
0.016289
0.027132
0.019797
0.031915
0.00098112
0.016608
0.021072
-0.0015702
-0.00029452
-0.017516
-0.024532
-0.030272
-0.042072
-0.034737
-0.010181
0.031596
0.037337
0.043715
0.032553
0.018202
0.00066221
0.034148
0.041802
0.023305
-0.016878
0.030959
0.040207
0.043077
0.017564
0.00066221
-0.014327
0.031596
0.043715
0.02458
0.023943
0.036061
0.022029
0.085811
0.10271
0.12759
0.12918
0.075925
0.043715
0.032553
0.060617
0.089
0.047223
0.0022568
-0.011137
-0.005716
0.017246
0.03351
-0.058017
-0.092141
-0.093416
-0.12371
-0.1218
-0.10936
-0.099476
-0.060569
-0.0041214
-0.015921
-0.015283
-0.012413
-0.00029452
0.0013
0.0044891
0.0070404
-0.012413
0.040207
0.029364
0.027132
0.03351
0.0099106
-0.017516
-0.016559
-0.034418
-0.040477
-0.043028
-0.043985
-0.04845
-0.044623
-0.021024
-0.017197
0.0060837
0.0028946
-0.0089051
-0.00029452
0.022029
0.030959
0.056153
0.071141
0.10303
0.06859
0.05679
0.03925
0.046904
0.052963
0.057747
0.065401
0.044034
2.4388e-05
-0.067903
-0.0060349
-0.0034836
-0.057698
-0.091822
-0.10713
-0.10617
-0.10298
-0.091822
-0.078746
-0.057698
-0.050044
-0.056104
-0.042391
-0.02517
-0.0012513
0.033191
0.012781
0.011505
-0.0047593
0.011824
0.014375
-0.014645
0.016289
0.02171
0.03925
0.011505
-0.024851
-0.018472
-0.0066727
0.012781
0.0016189
0.011505
0.012781
0.017883
0.0092728
0.022986
-0.013689
-0.024532
0.016608
0.015013
0.0099106
0.029045
0.037975
0.026494
0.06285
0.075606
0.042439
0.010548
0.032553
-0.0095429
-0.015921
0.0028946
0.048499
0.02171
-0.036331
-0.054828
-0.068222
-0.11446
-0.11351
-0.089908
-0.097562
-0.1049
-0.10203
-0.089589
-0.082892
-0.075557
-0.071093
-0.067903
-0.045899
-0.040477
-0.036331
-0.031867
-0.05419
-0.035694
-0.011775
-0.0041214
0.0095917
0.017883
0.008635
0.0067215
0.033191
0.030959
0.035104
0.040207
0.033829
0.042758
0.0057648
0.022348
0.023305
0.0099106
-0.0015702
-0.0038025
-0.0079484
0.01884
0.041802
0.029045
0.023943
-0.0031647
-0.0076295
0.035104
0.037337
0.061574
0.028407
0.017883
0.065082
0.047542
0.035104
0.0131
-0.0098618
-0.01337
0.023624
0.035104
0.021391
0.0041702
0.008316
-0.016559
-0.0095429
0.015013
0.022986
-0.0038025
-0.012413
0.02171
0.023943
-0.019429
-0.039202
-0.034418
-0.027721
0.012781
0.020754
0.00098112
-0.020386
-0.044942
-0.00093234
-0.02198
-0.059293
-0.017516
-0.019429
-0.027083
-0.052915
-0.036969
-0.05419
-0.039202
-0.031548
-0.0031647
-0.00029452
-0.0069916
-0.038245
-0.024213
-0.0073105
0.0064026
0.028726
0.012462
-0.005716
-0.0050782
0.025218
0.015651
-0.0044404
-0.042391
-0.034099
-0.0038025
0.0095917
0.0019378
0.0038513
0.004808
-0.022937
-0.027721
-0.026445
0.0019378
-0.0041214
-0.011137
0.032553
0.035423
0.014375
0.0057648
0.029683
0.037656
0.034148
0.037337
0.055515
0.061893
0.072736
0.089
0.087725
0.05105
0.014694
0.02171
0.01597
0.037337
0.034786
-0.0034836
-0.014008
-0.0044404
-0.028996
-0.023575
0.012143
0.0076782
-0.0015702
-0.0012513
-0.009224
-0.0069916
-0.046536
-0.0063538
-0.0089051
2.4388e-05
-0.022618
-0.031867
-0.051001
-0.044942
-0.044304
-0.053234
-0.049726
-0.043028
-0.037288
-0.041115
-0.041434
-0.010819
0.014375
0.0076782
0.016608
0.024899
-0.0095429
0.0025757
-0.020705
-0.024532
0.0060837
0.013419
-0.0034836
-0.014327
0.0003433
0.016608
0.0060837
0.0019378
-0.0031647
-0.028359
-0.028359
-0.01337
-0.018153
0.0044891
-0.023256
-0.039202
-0.018791
-0.018791
-0.014327
-0.0105
-0.016559
-0.0095429
-0.0060349
0.0064026
0.039888
0.055834
0.037656
0.063169
0.09793
0.079114
0.097292
0.10239
0.093465
0.05105
0.053601
0.020435
0.036699
0.051369
0.032553
0.039888
0.0044891
-0.061844
-0.072687
-0.044304
-0.058974
-0.066628
-0.094054
-0.084806
-0.059293
-0.06025
-0.065671
-0.066628
-0.062801
-0.029634
-0.014008
-0.011775
0.030002
0.052326
0.067952
0.038294
0.035742
0.044034
0.043715
0.021072
0.041164
0.027132
0.0070404
-0.00061343
-0.025488
-0.014327
-0.023894
-0.038245
-0.056104
-0.061525
-0.044304
-0.032186
-0.01911
-0.024851
-0.020067
-0.027083
-0.029953
-0.0015702
0.0070404
-0.00061343
0.026494
0.022986
0.0038513
-0.0050782
0.0038513
0.0089539
0.032234
0.048818
0.03064
0.020435
0.014056
0.024262
0.027451
0.063169
0.075287
0.066358
0.038294
-0.016559
-0.027721
0.016927
0.014375
-0.00029452
-0.01337
-0.0095429
-0.015602
-0.047493
-0.087357
-0.085443
-0.085125
-0.093416
-0.088952
-0.082254
-0.069179
-0.067903
-0.055147
-0.025488
-0.011456
-0.0012513
0.0041702
0.0035324
-0.0105
0.042121
0.063169
0.035104
0.026175
0.026813
0.016289
0.0003433
0.0060837
-0.014327
0.008635
0.012781
-0.0041214
-0.0073105
-0.03952
-0.070455
-0.015283
0.00066221
-0.017197
-0.036012
-0.011137
0.0016189
-0.010819
-0.015921
0.00098112
0.033829
0.028726
0.084536
0.087406
0.070185
0.063806
0.054558
0.071141
0.093146
0.064125
0.059342
0.045947
0.036699
0.02171
0.014375
-0.0063538
-0.041115
-0.072368
-0.084168
-0.087357
-0.070774
-0.096924
-0.049088
-0.030591
-0.028996
-0.023894
-0.014008
-0.017197
-0.0012513
0.030959
0.034148
0.013738
0.0070404
-0.0060349
0.031278
0.061255
0.051369
0.067633
0.042758
0.027132
0.0028946
0.09187
0.11547
0.10303
0.073693
0.05679
0.07433
0.074649
0.03638
0.028088
0.058066
0.012143
0.010867
0.023624
0.0035324
-0.069179
-0.067903
-0.078746
-0.063758
-0.04845
-0.067903
-0.052915
-0.02804
-0.063758
-0.0864
-0.03091
-0.048131
-0.078427
-0.06599
-0.04845
-0.031229
-0.063439
-0.056423
-0.01337
-0.023575
-0.055466
-0.06025
-0.04845
-0.047174
-0.058017
-0.062482
-0.054828
-0.052277
-0.065671
-0.049407
-0.046536
-0.040158
-0.030591
-0.035694
-0.022937
0.0064026
0.067952
0.10782
0.070822
0.086768
0.082622
0.046904
0.058385
0.09187
0.083898
0.05105
0.047223
0.06285
0.022986
-0.0031647
-0.0082673
-0.051958
-0.059612
-0.059612
-0.041753
-0.062482
-0.061206
-0.056742
-0.053871
-0.041115
-0.034737
-0.0098618
-0.0105
-0.024213
-0.011775
0.016289
0.023943
0.038294
0.065082
0.055834
0.021072
0.03064
0.046585
0.028407
0.050731
0.023305
0.044034
0.038612
0.0032135
0.0076782
-0.012413
-0.035694
-0.009224
-0.0060349
-0.027402
-0.024851
-0.0031647
-0.017197
-0.00061343
-0.0105
-0.014645
-0.019429
-0.011137
-0.0025269
0.008316
0.085811
0.06572
0.084536
0.10208
0.12982
0.094741
0.087406
0.096654
0.10463
0.11069
0.066358
0.072417
0.04531
0.020116
-0.019429
-0.027083
-0.052915
-0.087038
-0.11606
-0.11606
-0.10617
-0.10171
-0.10617
-0.09533
-0.076833
-0.064714
-0.044304
-0.03952
-0.039202
-0.011775
-0.012413
0.021391
0.031915
0.05105
0.06285
0.069866
0.066995
0.097611
0.083898
0.069228
0.058066
0.069228
0.080709
0.063487
0.069228
0.060298
0.055834
0.031278
0.008635
-0.01911
-0.017835
-0.011137
-0.020386
-0.0079484
-0.027721
-0.059612
-0.051639
0.012143
0.0131
0.008635
-0.015283
-0.0089051
0.037656
0.094103
0.081984
0.031596
0.0131
0.012462
0.038931
0.048499
0.078476
0.091233
0.084854
0.092189
0.046266
0.012143
0.004808
-0.0069916
0.0013
-0.017835
-0.02517
-0.038564
-0.050682
-0.041115
-0.025488
-0.018791
-0.043347
-0.053552
-0.062482
-0.041753
-0.005716
-0.018153
-0.010181
0.0041702
-0.0060349
0.008635
-0.0025269
-0.0073105
-0.053552
-0.051639
-0.040158
-0.045261
-0.022618
-0.028996
-0.032823
-0.035694
-0.03378
-0.026126
-0.0082673
0.013419
0.037975
0.018202
0.01884
0.050412
0.040526
0.020435
0.02777
0.022986
0.0092728
0.066677
0.075925
0.050093
0.06285
0.068271
0.026813
0.0028946
-0.0015702
-0.015283
-0.002208
0.0131
0.0013
-0.021024
-0.034737
-0.079384
-0.08066
-0.081617
-0.091822
-0.10075
-0.10107
-0.10298
-0.079384
-0.054509
-0.050044
-0.06312
-0.043985
-0.00061343
0.014694
0.022029
0.017246
2.4388e-05
-0.020705
-0.0031647
0.025218
0.046904
0.038294
0.0067215
-0.023894
0.015332
0.012143
-0.002208
-0.012413
-0.014327
-0.019748
-0.014645
-0.0053971
0.008316
-0.010819
-0.01337
-0.0089051
0.010548
0.016608
0.024899
0.02777
0.032234
0.035423
0.016608
0.02777
-0.00093234
-0.0012513
0.00066221
0.010548
2.4388e-05
0.0079971
-0.015283
-0.057379
-0.058017
-0.049407
-0.051958
-0.055785
-0.064077
-0.035056
-0.035375
-0.037607
-0.050044
-0.027083
-0.018153
0.0073593
0.0054459
-0.01911
-0.034099
-0.054509
-0.053234
-0.028996
0.013738
0.030002
0.034148
-0.010819
0.035742
0.038612
0.042439
0.0044891
0.020435
0.031278
0.057428
0.072736
0.029683
-0.011456
0.010867
0.046585
0.062531
0.027132
-0.019429
-0.015283
-0.043347
-0.050044
-0.027721
-0.014964
-0.0098618
0.0044891
-0.01911
-0.032823
0.0073593
-0.00061343
-0.014008
-0.032186
-0.057061
0.01597
0.013738
0.0067215
0.016608
-0.0038025
-0.017516
-0.011456
0.0041702
-0.014645
-0.053871
-0.028678
-0.027083
-0.018791
-0.012413
0.0038513
0.0025757
-0.038564
-0.050044
-0.043028
-0.059612
-0.02804
0.01597
-0.0069916
-0.002208
-0.013051
0.0051269
-0.041434
-0.011456
0.015013
0.022029
0.008635
-0.013051
-0.03665
-0.060887
-0.039839
-0.0098618
0.021072
-0.0105
-0.012732
-0.049407
-0.03665
-0.022299
-0.036969
-0.059293
-0.064395
-0.050682
-0.051639
-0.055785
-0.061525
-0.040477
-0.027402
-0.033142
-0.0050782
0.012462
0.0131
0.0016189
0.0041702
-0.017197
-0.013051
0.037656
0.049137
0.037018
0.041802
0.015651
0.016927
0.027132
0.026175
0.013419
0.024262
0.024899
0.028407
0.064763
0.081028
0.040526
0.019159
0.014375
0.01023
-0.013689
0.0038513
0.024899
0.0076782
-0.00029452
-0.0095429
-0.0098618
0.00098112
-0.0050782
-0.014645
-0.01624
-0.04845
0.00098112
0.014694
0.055515
0.047542
0.020116
0.0067215
-0.0105
-0.03378
-0.025488
0.0099106
0.023624
0.037337
0.013419
-0.011137
-0.025488
-0.039839
-0.017516
-0.00061343
-0.0028458
-0.013051
-0.029953
-0.052915
-0.046536
-0.043347
-0.072049
-0.079065
-0.060887
-0.041434
-0.055147
-0.046218
-0.061844
0.03064
0.066039
0.07752
0.059661
0.066995
0.040845
0.014375
0.051369
0.09506
0.10239
0.060617
0.01597
-0.015921
-0.024851
-0.028359
-0.036012
-0.059612
-0.067585
-0.074919
-0.10171
-0.094692
-0.088633
-0.085125
-0.078109
-0.06599
-0.03952
-0.048131
-0.06025
-0.073963
-0.05419
-0.029634
-0.0066727
-0.0038025
-0.032504
-0.026445
0.010548
-0.0025269
0.012462
0.011186
0.0041702
0.016608
0.0044891
-0.0079484
0.0089539
0.01023
-0.025807
-0.0041214
0.031278
0.015332
0.023305
0.015651
0.015332
-0.014327
0.03351
0.063169
0.055196
0.050731
0.055196
0.041483
0.037337
0.0073593
0.021072
0.018202
0.021072
0.033191
0.024899
0.02777
0.037656
0.01597
-0.025488
-0.026126
0.0038513
0.0099106
0.038294
0.025856
0.0035324
-0.020067
0.036699
0.054877
0.034786
0.026175
0.057747
0.040526
0.032553
0.008635
0.03064
0.059342
0.052963
0.0032135
-0.022299
-0.028359
-0.0095429
-0.029315
-0.063439
-0.058974
-0.069498
-0.079703
-0.078746
-0.062163
-0.089908
-0.071411
-0.04558
-0.041753
-0.033142
-0.024851
-0.028996
-0.037926
-0.026764
-0.016559
-0.0025269
-0.012413
-0.0038025
-0.014008
-0.041753
-0.052915
-0.023575
-0.0041214
-0.005716
-0.015602
-0.021343
-0.02198
-0.040158
-0.031548
-0.0105
-0.0018891
-0.024851
-0.038564
-0.035056
-0.0025269
0.014375
0.048818
0.03925
0.03925
0.049137
0.056471
0.031596
0.03351
0.040845
0.079752
0.085173
0.07146
0.049774
0.040207
0.01884
0.034467
0.028407
0.028088
0.046904
0.027132
0.03064
0.012143
0.0079971
-0.0015702
-0.0047593
0.0073593
0.012781
0.0041702
-0.013689
-0.0044404
-0.034418
-0.028678
-0.034737
-0.057379
-0.058655
-0.043028
-0.02517
0.027451
0.026175
0.013419
-0.0085862
0.0067215
0.019478
-0.011775
-0.030272
0.0089539
0.029045
0.01597
-0.029634
-0.04271
-0.040158
-0.02517
-0.036012
-0.041753
-0.041753
-0.034737
-0.028996
-0.0031647
-0.021024
0.0054459
0.0038513
0.01597
0.035423
0.029045
-0.017197
-0.039202
-0.036969
-0.014645
0.0032135
0.0076782
-0.0031647
-0.019748
-0.051958
-0.049407
-0.017197
-0.0015702
-0.015602
-0.0089051
0.012462
0.036699
0.062212
0.077838
0.070822
0.070503
0.083898
0.072736
0.060617
0.031915
-0.0041214
0.044353
0.092189
0.086768
0.03064
-0.02198
-0.027721
-0.032823
-0.038245
-0.05132
-0.014008
-0.0047593
-0.011456
0.004808
-0.016559
-0.026445
-0.009224
0.011505
0.010867
0.012781
0.012781
0.0028946
-0.033142
-0.079703
-0.031867
-0.051639
-0.060569
-0.047812
-0.078746
-0.094692
-0.094373
-0.08353
-0.075557
-0.068541
-0.06025
-0.065352
-0.051958
-0.013689
-0.016878
-0.014645
0.015332
0.044672
0.094741
0.052326
0.045947
0.041483
0.022348
0.023624
0.048818
0.078476
0.059979
0.044672
0.031915
0.038612
0.0028946
0.0054459
-0.0034836
-0.0041214
-0.0031647
-0.014008
-0.019748
-0.019748
-0.02804
-0.0079484
-0.034099
-0.0069916
0.0067215
0.016608
0.023624
0.019159
0.019478
0.01597
0.033191
0.063806
0.092827
0.073374
0.047223
0.058704
0.056153
0.04531
0.02777
0.059979
0.033191
0.022348
2.4388e-05
-0.0025269
0.026175
0.0079971
-0.0044404
-0.034099
-0.030272
-0.014327
0.020116
0.063806
0.016289
0.019478
0.03925
0.066677
0.022986
0.020754
0.057109
0.020754
-0.031548
0.019797
0.034467
0.0051269
-0.034099
-0.064714
-0.068541
-0.081617
-0.097562
-0.091822
-0.086081
-0.081617
-0.065352
-0.061525
-0.062163
-0.060569
-0.034099
-0.019429
-0.022618
-0.0031647
0.041483
0.03925
-0.013051
0.028407
0.055834
0.015651
0.010867
0.028726
0.016289
0.025218
0.022029
0.0089539
0.0067215
0.0057648
0.015651
0.0057648
-0.011775
-0.012094
-0.0066727
-0.0079484
-0.0015702
0.0022568
0.047542
0.078795
0.1059
0.10367
0.089319
0.082303
0.080071
0.072098
0.049137
0.10367
0.12153
0.091233
0.033191
0.01884
-0.012094
-0.060569
-0.058974
-0.079703
-0.087995
-0.094692
-0.13487
-0.13774
-0.11223
-0.10904
-0.10362
-0.1033
-0.091184
-0.081617
-0.049088
-0.044942
-0.023894
-0.021024
-0.018472
-0.027721
-0.040158
-0.022618
0.01597
0.037975
0.014694
0.029045
0.019159
0.027132
0.017564
0.03638
-0.005716
0.0099106
0.011186
0.01597
0.022029
-0.0050782
-0.04558
-0.035056
-0.011456
-0.012732
-0.02517
-0.024851
-0.016878
-0.022299
-0.01337
-0.0069916
-0.00029452
-0.0018891
0.0032135
0.020116
0.037975
0.037337
0.1177
0.16554
0.10144
0.088362
0.08039
0.10208
0.060617
0.047542
0.059661
0.089319
0.074649
0.024262
0.0025757
-0.0098618
-0.058336
-0.082892
-0.11223
-0.13743
-0.13456
-0.1403
-0.1285
-0.11702
-0.11287
-0.10298
-0.097881
-0.084487
-0.010181
0.025856
0.0070404
0.035742
0.099205
0.083898
0.062212
0.095378
0.087406
0.086768
0.055834
0.098568
0.073693
0.014056
-0.011456
0.028407
0.018521
-0.011137
-0.06312
-0.095011
-0.10522
-0.087357
-0.088952
-0.09246
-0.083849
-0.084168
-0.054828
-0.029634
-0.014327
0.013738
0.040526
0.033829
0.044353
0.046904
0.061255
0.08039
0.031915
0.096973
0.13779
0.1059
0.038612
-0.018791
-0.0082673
-0.012094
2.4388e-05
-0.020386
-0.051958
-0.05132
-0.066628
-0.078427
-0.064395
-0.060887
-0.065671
-0.076833
-0.075557
-0.069179
-0.040796
-0.018153
-0.02198
-0.038564
-0.050363
-0.031229
-0.024532
-0.014645
-0.0060349
0.01023
-0.033142
0.022986
0.019159
0.0092728
-0.015283
0.0073593
-0.012732
-0.0066727
-0.00061343
-0.0095429
0.0025757
0.032553
0.052963
0.081665
0.045629
0.053282
0.081665
0.074012
0.095697
0.09506
0.091552
0.080071
0.076244
0.094422
0.059342
0.0060837
-0.041753
-0.0015702
0.01023
-0.0031647
-0.037288
-0.055147
-0.073006
-0.08353
-0.072049
-0.032186
-0.029315
0.014694
-0.0095429
0.0022568
0.040207
0.055515
0.0038513
-0.0095429
0.015013
0.041483
0.073374
0.093146
0.11228
0.086449
0.031915
0.019797
-0.00093234
-0.029953
-0.016559
0.0035324
-0.0073105
-0.016559
-0.06025
-0.063439
-0.085125
-0.091184
-0.099157
-0.096286
-0.081298
-0.081617
-0.082573
-0.085762
-0.074282
-0.062482
-0.042391
-0.062482
-0.042391
-0.036012
-0.050044
-0.048131
-0.032504
-0.026445
-0.021024
-0.021343
-0.0025269
0.010548
-0.0025269
0.016608
0.024262
0.033191
0.052007
0.023943
-0.0095429
0.018521
0.038931
0.026175
0.020116
0.018202
0.036699
0.030002
0.01884
0.0025757
-0.0063538
-0.0073105
0.020116
0.022986
0.03064
0.045629
0.026175
2.4388e-05
0.016289
0.04531
0.01884
-0.0028458
0.0054459
0.024262
0.041164
0.032553
0.039569
0.04818
0.06572
0.08039
0.093465
0.063169
0.039888
0.05105
0.038612
0.046585
0.047542
0.0022568
-0.038564
-0.052277
-0.039202
-0.026445
-0.067903
-0.093416
-0.12371
-0.11032
-0.086719
-0.084168
-0.099157
-0.10904
-0.094054
-0.040796
0.0016189
0.041164
0.03925
0.02171
0.0070404
0.022667
0.0060837
0.027132
0.042758
0.046904
0.065401
0.044034
0.024899
-0.0060349
-0.041753
-0.035056
-0.038564
-0.055147
-0.064077
-0.072368
-0.075238
-0.057698
-0.038245
-0.027402
-0.027083
-0.014008
-0.0060349
-0.00029452
-0.0038025
0.041802
0.046904
0.021391
0.055196
0.058066
0.020116
-0.0050782
0.020754
0.025218
0.045629
0.048499
0.064125
0.047861
0.056153
0.047542
0.08613
0.07752
0.068271
0.090595
0.055834
0.049774
0.064444
0.052963
0.023943
-0.011137
-0.021024
-0.026764
-0.057379
-0.041115
-0.013689
-0.066628
-0.052277
-0.031867
-0.053552
-0.056742
-0.039202
-0.025807
-0.005716
-0.034099
-0.012413
0.012143
0.014375
-0.0038025
-0.023256
-0.028359
-0.049726
-0.041115
-0.034737
-0.029953
-0.024532
-0.0089051
-0.027721
