-0.0063538
-0.00029452
-0.0044404
-0.0047593
-0.0060349
-0.0018891
0.0044891
0.012143
0.0060837
0.0054459
0.0070404
0.0054459
0.0054459
0.0019378
-0.0034836
-0.005716
-0.0034836
-0.0041214
-0.00029452
-0.0047593
-0.0028458
-0.00029452
0.0013
0.0041702
0.011824
0.0095917
0.0060837
0.0095917
0.0070404
0.0051269
0.0028946
-0.0034836
-0.010181
-0.0031647
0.0003433
-0.0018891
-0.0028458
-0.0018891
2.4388e-05
0.0028946
0.008635
0.0073593
0.0060837
0.0060837
0.0067215
0.0051269
0.0060837
0.0016189
-0.0079484
-0.010819
-0.0038025
-0.0012513
-0.0041214
-0.0028458
-0.0047593
0.0003433
0.0067215
0.012143
0.004808
0.0067215
0.011186
0.0099106
0.0051269
0.0028946
-0.002208
-0.009224
-0.0015702
-0.00061343
0.00066221
-0.0044404
-0.0015702
0.0019378
0.0038513
0.0073593
0.012462
0.0076782
0.0057648
0.011505
0.0099106
0.0060837
0.0025757
-0.0034836
-0.0066727
2.4388e-05
-0.0012513
-0.0015702
-0.0038025
-0.0015702
0.0028946
0.0057648
0.0095917
0.0076782
0.008316
0.0067215
0.010548
0.008635
0.0044891
0.0003433
-0.0031647
-0.0066727
-0.0031647
0.0019378
-0.0041214
-0.0038025
-0.0012513
-0.0018891
0.0070404
0.010867
0.0054459
0.0064026
0.0073593
0.0076782
0.0060837
0.0032135
-0.0028458
-0.0073105
-0.0028458
-0.0018891
-0.00093234
-0.0041214
-0.0028458
0.0016189
0.0038513
0.0067215
0.0131
0.0079971
0.0060837
0.0092728
0.0057648
0.0054459
0.0041702
-0.0025269
-0.0073105
-0.0028458
-0.0031647
-0.0047593
-0.0050782
-0.0050782
-0.0012513
0.0022568
0.0076782
0.0035324
0.0028946
0.0051269
0.0070404
0.0025757
0.0003433
-0.0025269
-0.0098618
-0.014645
-0.0085862
-0.00061343
-0.0085862
-0.0082673
-0.0060349
-0.0034836
0.0016189
0.0060837
0.0003433
0.0013
0.0057648
0.0028946
0.00066221
-0.0018891
-0.0044404
-0.012094
-0.0079484
-0.0066727
-0.0050782
-0.011456
-0.0076295
-0.002208
-0.00029452
0.004808
0.0092728
0.004808
0.0032135
0.0051269
0.0016189
0.0019378
0.0019378
-0.0079484
-0.011775
-0.0063538
-0.0060349
-0.0044404
-0.0063538
-0.0066727
-0.0038025
-0.00029452
0.0035324
0.0028946
0.0025757
0.0022568
0.0038513
0.00066221
-0.0018891
-0.0044404
-0.010819
-0.015283
-0.0098618
-0.0066727
-0.0085862
-0.010181
-0.0082673
-0.0060349
2.4388e-05
0.0038513
-0.00029452
-0.0012513
0.00098112
0.0041702
0.0016189
-0.0031647
-0.009224
-0.012094
-0.012094
-0.0085862
-0.0063538
-0.010181
-0.010181
-0.0063538
-0.0034836
0.00098112
0.0067215
0.0022568
-0.00029452
0.0035324
0.0022568
-0.00061343
-0.005716
-0.0089051
-0.013051
-0.0069916
-0.0085862
-0.009224
-0.010181
-0.011456
-0.005716
-0.0015702
0.0016189
-0.0012513
0.0022568
0.0013
0.00066221
-0.0018891
-0.0044404
-0.0066727
-0.011456
-0.017516
-0.011137
-0.0098618
-0.014645
-0.0082673
-0.0066727
-0.0079484
-0.0047593
0.0025757
-0.002208
-0.00093234
0.0003433
2.4388e-05
-0.0015702
-0.0041214
-0.0089051
-0.013051
-0.010819
-0.010181
-0.0098618
-0.012413
-0.011137
-0.0073105
-0.0053971
-0.00093234
0.0038513
0.0003433
-0.002208
0.00098112
0.0003433
-0.0025269
-0.005716
-0.011775
-0.014964
-0.0089051
-0.0076295
-0.0098618
-0.012732
-0.011456
-0.0066727
-0.002208
0.0019378
-0.00093234
-0.00029452
0.0013
0.0032135
-0.0012513
-0.0063538
-0.0060349
-0.010819
-0.014964
-0.010181
-0.0079484
-0.012413
-0.011775
-0.0079484
-0.0076295
-0.0031647
0.0038513
0.00098112
-0.0012513
0.00098112
-0.0031647
-0.0034836
0.0003433
-0.0063538
-0.014327
-0.01337
-0.0073105
-0.0069916
-0.0085862
-0.0098618
-0.0079484
-0.0047593
0.0025757
0.0092728
0.0044891
0.00098112
0.0054459
0.0038513
0.0019378
-0.0012513
-0.0050782
-0.0105
-0.0066727
-0.0028458
-0.0047593
-0.0047593
-0.0041214
-0.00093234
0.0016189
0.0038513
0.0019378
0.0076782
0.0051269
0.0064026
0.0032135
-0.0015702
-0.0034836
-0.0089051
-0.012413
-0.005716
-0.0044404
-0.0073105
-0.0079484
-0.0060349
-0.0031647
0.0025757
0.0073593
0.0013
0.0022568
0.0060837
0.0051269
0.0038513
-0.00093234
-0.0047593
-0.0098618
-0.0069916
-0.0066727
-0.0041214
-0.0076295
-0.0047593
-0.0028458
-0.00093234
0.0041702
0.0076782
0.0041702
0.0022568
0.0060837
0.0057648
0.0016189
-0.0012513
-0.0069916
-0.010819
-0.0044404
-0.0031647
-0.0073105
-0.0073105
-0.005716
-0.0012513
0.0025757
0.0057648
0.0038513
0.0057648
0.0022568
0.0057648
0.0035324
0.0025757
-0.00093234
-0.0069916
-0.010181
-0.0060349
-0.0015702
-0.0053971
-0.0060349
-0.0031647
-0.00093234
0.0051269
0.01023
0.0044891
0.004808
0.008635
0.008316
0.0054459
0.0016189
-0.0047593
-0.0105
-0.0038025
-0.0018891
-0.0034836
-0.0066727
-0.0041214
-0.0028458
-0.00061343
0.0057648
0.012781
0.0019378
2.4388e-05
0.0079971
0.0067215
0.0025757
0.00066221
-0.0063538
-0.0105
-0.002208
0.00098112
-0.0050782
-0.0066727
-0.0044404
2.4388e-05
0.0044891
0.0067215
0.0076782
0.008635
0.0070404
0.0070404
0.0035324
0.0051269
0.0016189
-0.0053971
-0.0073105
-0.00093234
0.00066221
-0.0038025
-0.0031647
0.0003433
0.0032135
0.0076782
0.013419
0.008316
0.0064026
0.0070404
0.011824
0.0092728
0.0079971
0.00066221
-0.0082673
-0.0041214
0.0003433
0.00098112
-0.00061343
-0.002208
0.0013
0.0035324
0.0099106
0.014694
0.011186
0.008635
0.0131
0.0099106
0.0060837
0.0035324
-0.0025269
-0.0044404
0.0025757
0.00098112
-0.00061343
-0.002208
-0.0018891
0.0003433
0.0060837
0.0089539
0.0057648
0.008316
0.0064026
0.01023
0.0067215
2.4388e-05
-0.0028458
-0.0069916
-0.0105
-0.0047593
-0.0012513
-0.0044404
-0.0053971
-0.0038025
-0.002208
0.0019378
0.008635
0.0028946
0.0035324
0.0067215
0.0057648
0.0054459
0.0019378
-0.0047593
-0.0098618
-0.005716
-0.0050782
-0.00093234
-0.0060349
-0.0050782
-0.0028458
-0.00093234
0.0044891
0.011186
0.0076782
0.0032135
0.0060837
0.0070404
0.0044891
0.00098112
-0.0069916
-0.011137
-0.0025269
-0.0012513
-0.0044404
-0.0063538
-0.0050782
-0.0012513
0.0032135
0.0067215
0.004808
0.0032135
-0.00029452
0.0051269
0.0044891
0.00066221
-0.0038025
-0.0069916
-0.014008
-0.0098618
-0.005716
-0.0089051
-0.0105
-0.0105
-0.0063538
-0.0025269
0.0044891
-0.0012513
-0.00029452
0.0013
-0.0012513
-0.0012513
-0.0060349
-0.011775
-0.014008
-0.010181
-0.012413
-0.0089051
-0.01624
-0.011775
-0.0047593
-0.005716
-0.0028458
0.0016189
-0.0018891
-0.00093234
0.0019378
-0.002208
-0.0050782
-0.0063538
-0.012413
-0.012732
-0.0053971
-0.0085862
-0.0105
-0.013051
-0.0098618
-0.0060349
-0.0041214
0.0028946
0.0057648
0.0013
-0.0018891
0.0035324
-0.00061343
-0.0031647
-0.0041214
-0.010819
-0.014645
-0.009224
-0.0050782
-0.011137
-0.010819
-0.0076295
-0.0038025
-0.00093234
0.0051269
0.0003433
0.00098112
0.0028946
0.0028946
0.0022568
-0.0018891
-0.0069916
-0.011137
-0.0098618
-0.0085862
-0.0047593
-0.0073105
-0.0066727
-0.0034836
-0.0031647
0.0019378
0.0064026
0.0013
0.0016189
0.0057648
0.004808
0.0003433
-0.0038025
-0.0079484
-0.012094
-0.0050782
-0.0066727
-0.0079484
-0.0095429
-0.0085862
-0.00061343
0.0003433
0.00098112
0.0003433
0.00098112
0.0025757
0.0057648
0.0003433
-0.0018891
-0.0063538
-0.0095429
-0.01624
-0.0098618
-0.0066727
-0.0098618
-0.012413
-0.0089051
-0.0063538
-0.002208
0.0035324
-0.0031647
-0.0015702
0.0013
0.0003433
-0.0012513
-0.0044404
-0.0095429
-0.014008
-0.0105
-0.0098618
-0.0082673
-0.012094
-0.009224
-0.0047593
-0.0069916
-0.0015702
0.0054459
-0.00093234
-0.00093234
2.4388e-05
0.0035324
0.0013
-0.0076295
-0.010819
-0.014008
-0.0069916
-0.0073105
-0.009224
-0.010819
-0.0079484
-0.0038025
-0.0028458
0.0038513
0.0025757
0.0032135
0.0013
0.0041702
0.00098112
2.4388e-05
-0.00093234
-0.0069916
-0.012413
-0.0076295
-0.0031647
-0.0053971
-0.0073105
-0.0038025
-0.0012513
0.0032135
0.008316
0.0044891
0.0041702
0.0073593
0.0060837
0.0028946
0.00098112
-0.0050782
-0.0085862
-0.0063538
-0.005716
-0.0044404
-0.0073105
-0.0050782
-0.0038025
-0.0018891
0.0035324
0.0095917
0.0019378
2.4388e-05
0.0054459
0.0060837
2.4388e-05
-0.0038025
-0.0076295
-0.012413
-0.0066727
-0.0076295
-0.0076295
-0.010819
-0.009224
-0.0047593
0.0003433
0.0044891
0.0016189
-0.002208
0.00098112
0.0035324
-0.002208
-0.0063538
-0.005716
-0.011456
-0.016559
-0.012094
-0.0105
-0.014645
-0.012732
-0.012094
-0.0098618
-0.005716
0.0003433
-0.0066727
-0.005716
-0.0012513
-0.00093234
-0.0060349
-0.0098618
-0.013689
-0.017516
-0.013689
-0.011775
-0.012094
-0.014964
-0.01624
-0.012094
-0.0095429
-0.0047593
0.0038513
-0.0025269
-0.005716
-0.0012513
-0.0018891
-0.0053971
-0.0079484
-0.012413
-0.018153
-0.010181
-0.0085862
-0.012094
-0.014964
-0.01337
-0.0082673
-0.0053971
-0.0018891
-0.002208
-0.0028458
-0.0041214
-0.00061343
-0.0041214
-0.005716
-0.0089051
-0.014645
-0.01911
-0.013689
-0.009224
-0.012732
-0.013689
-0.012413
-0.009224
-0.0028458
0.0016189
-0.0038025
-0.002208
-0.0018891
-0.00029452
-0.00093234
-0.005716
-0.0098618
-0.013051
-0.012094
-0.0105
-0.0105
-0.011456
-0.0105
-0.0089051
-0.0073105
-0.00061343
0.0054459
0.0013
-0.00061343
0.0019378
0.0016189
-0.0025269
-0.0050782
-0.010181
-0.014008
-0.0076295
-0.0069916
-0.0089051
-0.010819
-0.0105
-0.0044404
-0.00061343
0.00066221
0.0016189
0.0016189
-0.002208
0.0016189
-0.0015702
-0.0038025
-0.0063538
-0.012094
-0.017516
-0.012732
-0.0079484
-0.012094
-0.013051
-0.011456
-0.0105
-0.002208
0.004808
-0.0028458
0.00066221
0.0016189
-0.0012513
-0.00093234
-0.0050782
-0.0089051
-0.012094
-0.011137
-0.009224
-0.0063538
-0.010819
-0.0085862
-0.0047593
-0.0047593
2.4388e-05
0.0076782
0.0028946
0.0003433
0.0035324
0.00098112
-0.00061343
-0.0025269
-0.0047593
-0.014008
-0.0063538
-0.0038025
-0.0066727
-0.0082673
-0.0063538
-0.00029452
0.00098112
0.0064026
0.0067215
0.0054459
0.0032135
0.0076782
0.0051269
0.0022568
0.0003433
-0.0069916
-0.011456
-0.0044404
-0.0028458
-0.0066727
-0.0079484
-0.0047593
-0.0015702
0.0016189
0.0070404
0.0028946
0.0016189
0.0051269
0.0044891
0.0028946
-0.00029452
-0.005716
-0.011456
-0.009224
-0.0063538
-0.0044404
-0.0076295
-0.0063538
-0.0028458
-0.002208
0.0016189
0.0064026
0.0054459
0.0035324
0.0060837
0.0022568
-0.0015702
-0.00061343
-0.0076295
-0.012413
-0.0063538
-0.0060349
-0.0073105
-0.011456
-0.0085862
-0.0047593
-0.0028458
0.0022568
0.0051269
0.0025757
-0.0015702
0.0032135
2.4388e-05
-0.0015702
-0.0044404
-0.009224
-0.015921
-0.0073105
-0.0063538
-0.011775
-0.011456
-0.0060349
-0.0015702
-0.0044404
0.004808
0.0003433
-0.00093234
0.0013
0.0013
-0.00029452
-0.0031647
-0.0098618
-0.011775
-0.0085862
-0.010819
-0.009224
-0.0095429
-0.0098618
-0.0076295
-0.0066727
2.4388e-05
0.0044891
2.4388e-05
-0.0018891
0.0016189
0.00098112
-0.002208
-0.0060349
-0.012094
-0.014645
-0.0082673
-0.009224
-0.010819
-0.011456
-0.010819
-0.0063538
-0.0031647
0.0013
0.00066221
0.0003433
-0.0015702
2.4388e-05
-0.00061343
-0.0034836
-0.0076295
-0.01337
-0.017197
-0.010181
-0.0073105
-0.012094
-0.011137
-0.0095429
-0.0069916
-0.0012513
0.0044891
-0.0018891
-0.0015702
-0.0015702
0.0013
2.4388e-05
-0.0047593
-0.010181
-0.012732
-0.011456
-0.011456
-0.0095429
-0.013689
-0.012413
-0.009224
-0.0073105
-0.0025269
0.0041702
-0.0015702
-0.0034836
0.00098112
-0.00093234
-0.005716
-0.0085862
-0.01337
-0.017197
-0.0095429
-0.011456
-0.011775
-0.013689
-0.012413
-0.010181
-0.0047593
-0.002208
-0.002208
-0.0018891
-0.0041214
-0.0018891
-0.0044404
-0.0076295
-0.0098618
-0.015921
-0.020067
-0.013689
-0.011456
-0.017516
-0.015921
-0.011456
-0.0095429
-0.0063538
-0.0031647
-0.0063538
-0.0012513
-0.0031647
-0.002208
-0.0034836
-0.0069916
-0.011456
-0.015921
-0.014008
-0.012413
-0.0095429
-0.011775
-0.012094
-0.0089051
-0.0044404
-0.00093234
0.004808
0.0013
-0.00029452
0.0038513
0.0028946
0.0032135
0.00066221
-0.005716
-0.0095429
0.00098112
2.4388e-05
-0.0034836
-0.0079484
-0.0047593
0.0003433
0.0028946
0.0051269
0.0041702
0.0044891
-0.00061343
0.0016189
-0.0025269
-0.0082673
-0.012094
-0.015921
-0.021024
-0.014964
-0.012413
-0.01624
-0.018153
-0.014645
-0.011137
-0.0066727
-0.00093234
-0.0063538
-0.0050782
-0.0015702
-0.0018891
-0.0044404
-0.0066727
-0.012094
-0.015283
-0.014327
-0.013689
-0.012413
-0.014327
-0.012732
-0.010819
-0.0089051
-0.0053971
0.0016189
-0.0038025
-0.0063538
-0.0015702
0.00098112
2.4388e-05
-0.005716
-0.011775
-0.015283
-0.0076295
-0.0069916
-0.0089051
-0.0105
-0.0073105
-0.0028458
-0.0031647
-0.00029452
0.0041702
0.004808
-0.00061343
0.0013
-0.0025269
-0.0047593
-0.0066727
-0.012094
-0.016559
-0.011137
-0.0085862
-0.012094
-0.010819
-0.0069916
-0.0060349
-0.0031647
0.0032135
-0.002208
-0.00093234
0.0032135
0.0035324
-0.00029452
-0.0034836
-0.0085862
-0.014964
-0.012094
-0.0073105
-0.0076295
-0.0098618
-0.0082673
-0.0082673
-0.0069916
0.0003433
0.008316
0.0038513
0.00066221
0.0032135
0.0032135
0.0013
-0.0018891
-0.0066727
-0.011456
-0.002208
-0.0031647
-0.0034836
-0.0066727
-0.0038025
0.0003433
0.0019378
0.0038513
0.0070404
0.0079971
0.004808
0.008316
0.0057648
0.0019378
-0.00061343
-0.0073105
-0.012413
-0.0047593
-0.0041214
-0.0079484
-0.0073105
-0.0038025
-0.00061343
0.0016189
0.0070404
0.0003433
-0.0012513
0.004808
0.0038513
0.00098112
-0.0038025
-0.0085862
-0.01337
-0.011775
-0.0095429
-0.0073105
-0.012094
-0.010181
-0.0066727
-0.0066727
-0.0028458
0.004808
-0.00061343
-0.0012513
0.0016189
-0.0012513
-0.0050782
-0.0076295
-0.011775
-0.015921
-0.0095429
-0.0089051
-0.012094
-0.012094
-0.011137
-0.0060349
-0.0041214
0.0013
0.0022568
0.00066221
-0.0018891
0.0013
2.4388e-05
-0.0028458
-0.0050782
-0.012413
-0.017197
-0.0098618
-0.010819
-0.009224
-0.0095429
-0.0089051
-0.0095429
-0.0063538
0.004808
0.00066221
0.0003433
0.0003433
0.0013
-0.00029452
-0.0025269
-0.0082673
-0.01337
-0.010819
-0.0085862
-0.0069916
-0.010181
-0.0095429
-0.0053971
-0.0050782
0.0003433
0.0070404
0.0016189
-0.0012513
0.0044891
0.0035324
2.4388e-05
-0.002208
-0.0095429
-0.013051
-0.0079484
-0.0076295
-0.0085862
-0.010181
-0.0085862
-0.0047593
-0.0044404
-0.0012513
0.0003433
0.00066221
-0.00061343
-0.00061343
-0.0028458
-0.0044404
-0.0060349
-0.012413
-0.015921
-0.0095429
-0.009224
-0.011775
-0.0085862
-0.0076295
-0.0085862
-0.0015702
0.0044891
0.00098112
-0.00061343
0.0025757
0.0019378
-0.00029452
-0.0012513
-0.0085862
-0.012413
-0.010819
-0.009224
-0.0063538
-0.0098618
-0.0095429
-0.0085862
-0.0050782
0.00066221
0.0073593
0.0003433
-0.002208
0.0035324
0.0035324
2.4388e-05
-0.0028458
-0.009224
-0.014964
-0.0073105
-0.0079484
-0.0079484
-0.010181
-0.0082673
-0.0063538
-0.0041214
0.00098112
0.0032135
0.0016189
-0.0018891
0.00098112
-0.0012513
-0.0028458
-0.0053971
-0.012732
-0.017197
-0.010181
-0.009224
-0.011775
-0.011775
-0.011137
-0.0069916
-0.0038025
0.0019378
-0.0044404
-0.0034836
-0.0018891
-0.00093234
-0.0025269
-0.0073105
-0.0105
-0.014964
-0.014008
-0.01337
-0.011775
-0.013689
-0.011137
-0.009224
-0.0095429
-0.002208
0.0028946
-0.00061343
-0.0025269
-0.00061343
-0.00029452
-0.0018891
-0.0050782
-0.013051
-0.01624
-0.0085862
-0.0095429
-0.009224
-0.012413
-0.011456
-0.005716
-0.0041214
0.0003433
0.0025757
2.4388e-05
-0.0012513
0.0016189
-0.00093234
-0.0041214
-0.0085862
-0.011775
-0.014327
-0.010181
-0.0095429
-0.012094
-0.012094
-0.011456
-0.0085862
0.0013
0.0067215
0.0057648
0.0041702
0.0054459
0.0057648
0.0060837
0.0035324
-0.0015702
-0.0066727
-0.0060349
-0.0041214
-0.0015702
-0.0053971
-0.0069916
-0.0015702
-0.0050782
-0.0034836
0.0044891
-0.0031647
-0.0050782
-0.0015702
-0.0047593
-0.0066727
-0.011775
-0.016559
-0.020705
-0.013689
-0.014327
-0.014645
-0.018153
-0.016878
-0.0105
-0.0076295
-0.0038025
-0.0018891
-0.0028458
-0.0066727
-0.0034836
-0.0044404
-0.0079484
-0.009224
-0.014645
-0.020067
-0.013051
-0.0105
-0.014645
-0.013051
-0.0095429
-0.0076295
-0.0044404
0.0019378
-0.0034836
-0.002208
0.00098112
0.0003433
-0.0015702
-0.0041214
-0.0105
-0.012094
-0.011775
-0.0053971
-0.0031647
-0.0069916
-0.0069916
-0.0028458
-0.00061343
0.0057648
0.013419
0.0073593
0.0060837
0.010548
0.0092728
0.0035324
0.0022568
-0.0018891
-0.0082673
-0.0044404
-0.002208
-0.0050782
-0.0082673
-0.0069916
-0.0038025
-0.00061343
0.0025757
0.0067215
0.015651
0.032553
0.07146
0.075287
0.067314
0.065082
0.060617
0.056471
0.063806
0.069228
0.073374
0.074968
0.080071
0.090595
0.051369
0.03351
0.021391
0.0054459
0.0038513
-0.0053971
-0.021343
-0.037288
-0.051958
-0.056742
-0.059612
-0.062482
-0.059931
-0.066309
-0.066947
-0.062163
-0.061844
-0.055147
-0.049088
-0.050682
-0.050363
-0.044623
-0.043985
-0.045261
-0.047493
-0.044623
-0.041115
-0.029953
-0.024532
-0.0095429
-0.012094
-0.0076295
-0.0015702
0.004808
0.012781
0.014694
0.015651
0.021072
0.021391
0.014694
0.008316
0.0041702
-0.0050782
-0.012094
-0.014645
-0.019748
-0.021343
-0.021343
-0.021024
-0.021024
-0.01911
-0.014008
-0.018153
-0.016559
-0.0105
-0.0069916
-0.010819
-0.012413
-0.013689
-0.01624
-0.017516
-0.017835
-0.012094
-0.015921
-0.009224
-0.0066727
-0.0069916
-0.0028458
0.0079971
-0.0047593
-0.002208
0.0028946
0.0019378
-0.00029452
-0.0034836
-0.0085862
-0.01337
-0.0050782
-0.0034836
-0.0018891
-0.005716
-0.0028458
0.0019378
0.0054459
0.0073593
0.011824
0.017246
0.01023
0.012781
0.011186
0.0067215
-0.0044404
-0.012413
-0.014964
0.0019378
0.0070404
-0.00093234
0.0041702
-0.0015702
0.00098112
0.004808
0.014375
0.0013
0.010867
0.02171
0.014694
0.019159
0.011505
0.0070404
-0.0038025
-0.00093234
0.0041702
0.0038513
-0.0047593
-0.0041214
-0.00093234
2.4388e-05
0.0095917
0.016289
0.0076782
0.0022568
0.0070404
0.0060837
0.0035324
2.4388e-05
-0.0018891
-0.005716
-0.00029452
2.4388e-05
2.4388e-05
-0.013689
-0.0060349
0.004808
0.0028946
0.0028946
0.0044891
0.0044891
-0.0012513
0.004808
-0.0025269
-0.0105
-0.0095429
-0.014645
-0.020067
-0.01337
-0.012413
-0.016878
-0.018791
-0.0079484
0.01023
0.0070404
0.033829
0.030959
0.024899
0.022667
0.020435
0.018202
0.014056
0.008635
0.0064026
0.0131
0.01023
0.016608
-0.0031647
-0.020705
-0.019429
-0.020386
-0.0025269
0.029683
0.031278
0.022348
0.037337
0.043715
0.041483
0.042121
0.038931
0.029045
0.040845
0.037975
0.029045
0.03064
0.012781
-0.0018891
0.00066221
-0.022937
-0.023894
-0.023575
-0.043985
-0.05419
-0.065352
-0.052596
-0.059612
-0.065033
-0.055147
-0.041115
-0.04845
-0.041753
-0.031867
-0.02198
-0.020705
-0.011456
0.0076782
-0.0060349
-0.002208
0.0025757
0.0060837
-0.0015702
-0.0047593
-0.013689
-0.01624
-0.017835
-0.0098618
-0.012094
-0.014964
-0.013689
-0.011775
-0.0085862
2.4388e-05
0.0057648
0.0054459
0.0051269
0.0092728
0.0019378
-0.009224
0.0019378
2.4388e-05
-0.0069916
-0.00029452
-0.0015702
-0.0034836
-0.0041214
0.019797
0.031915
0.019797
0.027132
0.039569
0.034467
0.022029
0.023305
0.022986
0.019159
0.022029
0.014694
-0.00061343
0.0016189
-0.019429
-0.0098618
-0.0047593
-0.016559
-0.019748
-0.014645
-0.005716
-0.0069916
-0.0025269
-0.0012513
-0.0066727
-0.0041214
0.0022568
-0.00029452
0.0073593
0.0051269
0.010548
-0.00061343
-0.0098618
-0.019429
-0.0047593
0.0003433
0.0051269
0.013738
-0.0038025
-0.012413
-0.0105
-0.016878
-0.029315
-0.022618
-0.037926
-0.044942
-0.01911
-0.014964
-0.0025269
0.0089539
0.01884
0.037018
0.020116
0.032872
0.049137
0.052007
0.052007
0.057428
0.057747
0.054877
0.055834
0.029045
0.0041702
-0.009224
-0.014327
0.008316
-0.0095429
-0.035056
-0.043347
-0.028678
-0.037607
-0.03952
-0.046218
-0.058017
-0.055466
-0.067903
-0.086081
-0.094692
-0.090865
-0.099476
-0.099476
-0.089589
-0.11096
-0.10298
-0.08927
-0.097881
-0.093735
-0.082254
-0.06599
-0.065033
-0.062163
-0.054828
-0.043028
-0.050044
-0.05132
-0.04271
-0.030591
-0.0063538
0.012462
-0.011775
-0.0053971
0.0092728
0.0131
0.0099106
2.4388e-05
-0.0066727
-0.0098618
0.0028946
0.036699
0.031915
0.010867
-0.0041214
-0.017835
-0.031867
-0.038883
-0.01337
0.0131
0.0038513
0.011824
0.0067215
-0.0031647
-0.013689
-0.00061343
-0.01911
-0.015921
2.4388e-05
-0.0012513
-0.017516
-0.046536
-0.061206
-0.069179
-0.053871
-0.051639
-0.050682
-0.054509
-0.065352
-0.054828
-0.052915
-0.055785
-0.061206
-0.048769
-0.048769
-0.05419
-0.051639
-0.053234
-0.051639
-0.047174
-0.036969
-0.039839
-0.042391
-0.038883
-0.041434
-0.031229
-0.018153
-0.012413
-0.012732
-0.0089051
-0.016878
-0.026126
-0.028678
-0.030591
-0.040796
-0.028678
-0.02804
-0.035375
-0.037926
-0.041753
-0.038883
-0.050363
-0.039839
-0.020705
-0.016559
-0.034418
-0.035375
-0.036331
-0.03378
-0.054509
-0.058655
-0.062163
-0.060887
-0.041434
-0.044942
-0.047174
-0.059612
-0.043985
-0.026445
-0.029953
-0.021661
-0.012413
-0.0066727
-0.0038025
0.0044891
0.016289
0.016608
0.012781
0.0022568
0.02458
0.030959
0.03351
0.025537
0.03351
0.03638
0.042121
0.036061
0.034467
0.035423
0.035423
0.031278
0.026494
0.017883
0.0022568
-0.00093234
-0.0050782
0.015013
0.02171
0.010867
0.028088
0.022348
0.024899
0.040207
0.041164
0.02171
0.026494
0.019478
0.026813
0.030002
0.033829
0.013419
-0.0069916
-0.032504
-0.04271
-0.017835
-0.031229
-0.04558
-0.039839
-0.042391
-0.038564
-0.047174
-0.025807
-0.018153
-0.029634
-0.043028
-0.035056
-0.032504
-0.044623
-0.041753
-0.026764
-0.026764
-0.026445
-0.027083
-0.014645
0.010548
0.01884
0.034148
0.057747
0.054558
0.044353
0.022667
0.019159
0.067314
0.070185
0.038931
0.019797
0.035104
0.024899
-0.0041214
-0.026126
-0.028359
-0.032823
-0.029634
-0.031867
-0.049726
-0.065352
-0.066628
-0.041753
-0.048131
-0.052277
-0.060569
-0.046855
-0.043028
-0.048131
-0.050682
-0.034737
-0.041753
-0.039202
-0.026764
-0.014645
-0.0105
-0.026764
-0.037607
-0.038883
-0.052277
-0.043347
-0.049407
-0.051958
-0.066309
-0.06599
-0.051639
-0.037288
-0.044623
-0.035056
-0.02198
-0.01337
0.0051269
0.017246
0.018521
0.023943
0.036061
0.047542
0.045629
0.03925
0.03638
0.035104
0.046266
0.040207
0.02777
0.022029
0.019159
0.020435
0.025537
0.016608
0.013419
0.017883
0.0089539
0.06285
0.090595
0.094741
0.060617
0.057109
0.087406
0.079433
0.081984
0.08613
0.09506
0.10239
0.088044
0.073374
0.02777
0.0028946
0.010548
0.0022568
-0.0076295
-0.034099
-0.081298
-0.098519
-0.089589
-0.078746
-0.064714
-0.064714
-0.054509
-0.053552
-0.058017
-0.058336
-0.047493
-0.026126
-0.033461
-0.05419
-0.056742
-0.042391
-0.055466
-0.058336
-0.048131
-0.067903
-0.074919
-0.073325
-0.080341
-0.10139
-0.087357
-0.023894
-0.017197
-0.027721
-0.016878
-0.01337
-0.015602
0.0025757
-0.0015702
0.0019378
0.01023
-0.0076295
0.0044891
0.0064026
0.017883
0.031915
0.031915
0.027451
0.032234
0.017883
0.029683
0.026494
0.052326
0.047223
0.013738
0.01884
0.03351
0.01597
0.01597
0.083898
0.065082
0.044672
0.018521
0.023943
0.058704
0.058385
0.060936
0.058385
0.043396
0.045947
0.025218
0.017246
-0.00061343
0.0003433
-0.023256
-0.061844
-0.060887
-0.067585
-0.087995
-0.10394
-0.081298
-0.070455
-0.035056
-0.0069916
-0.012413
-0.009224
-0.014008
0.015651
0.023305
0.032553
0.027132
0.013419
0.024899
0.024899
0.023305
0.016608
0.039569
0.0089539
-0.045899
-0.050682
-0.033142
-0.057379
-0.085762
-0.073006
-0.064077
-0.076833
-0.093735
-0.097881
-0.094692
-0.08927
-0.084806
-0.075876
-0.074919
-0.05419
-0.032823
-0.03952
-0.029315
-0.0050782
-0.00061343
0.0044891
0.02458
0.01597
-0.0012513
2.4388e-05
0.026175
0.015651
0.02458
0.026813
0.017883
0.0095917
0.0131
-0.01337
-0.026126
-0.0063538
-0.010819
-0.01911
-0.018472
-0.016559
-0.010819
-0.02198
-0.023575
-0.053234
-0.052596
-0.059612
-0.076195
-0.074282
-0.060569
-0.044623
-0.051958
-0.024851
-0.026445
-0.017197
0.028407
0.0016189
-0.018472
-0.042391
-0.051001
-0.043985
-0.014645
0.0095917
0.0044891
0.13652
0.17319
0.15023
0.10973
0.098249
0.073374
0.076244
0.061255
0.044034
0.083579
0.090914
0.074649
-0.034099
-0.061844
-0.057379
-0.094373
-0.12276
-0.18016
-0.19961
-0.18909
-0.17538
-0.16772
-0.15752
-0.16103
-0.13424
-0.11128
-0.10394
-0.081617
-0.057379
-0.043666
-0.065352
-0.084487
-0.091822
-0.073963
-0.014008
-0.02517
-0.019429
-0.031867
-0.071411
-0.053552
-0.051639
-0.061525
-0.054828
-0.019748
0.016608
0.040845
0.078157
0.055834
0.023943
0.028088
0.037656
0.050093
0.042121
0.055196
0.054239
0.032234
0.010867
-0.037288
-0.031548
-0.0089051
0.00066221
-0.0044404
-0.042072
-0.043985
-0.070136
-0.071411
-0.037288
-0.035694
0.00098112
0.017564
0.016608
0.0038513
-0.017516
-0.04271
-0.0031647
0.032553
0.0038513
-0.0050782
-0.01337
-0.0098618
-0.02517
-0.016559
0.0028946
-0.016878
-0.014327
0.0131
0.010548
0.012462
0.0025757
0.02777
-0.023894
-0.035056
-0.009224
-0.015283
-0.04845
-0.04845
-0.051958
-0.039202
-0.069498
-0.065352
-0.028359
-0.011775
-0.02198
-0.021343
0.0131
-0.0063538
-0.015283
0.0099106
-0.0063538
-0.0018891
0.01884
0.033829
0.069547
0.10718
0.093465
0.05105
0.038612
0.0092728
-0.0095429
0.0041702
0.029364
0.039569
0.035423
-0.0069916
-0.041753
-0.036012
-0.023256
-0.061844
-0.05132
-0.074601
-0.074919
-0.0105
0.0022568
-0.020386
-0.0095429
0.012462
0.036061
0.05392
0.073055
0.062531
0.07752
0.058385
0.017246
-0.012413
0.022348
0.028088
0.022348
-0.017516
-0.042391
-0.052915
-0.059612
-0.061844
-0.075876
-0.079703
-0.073325
0.0019378
0.0054459
0.010548
-0.017516
-0.0053971
-0.011456
0.048818
0.081028
0.10239
0.082303
0.062531
0.054877
0.08039
0.053282
0.057428
0.043077
0.011186
-0.02517
-0.025488
-0.032504
-0.048131
-0.082573
-0.097562
-0.1167
-0.1167
-0.12626
-0.082573
-0.018472
0.0092728
0.13397
0.12727
0.11037
0.078795
0.076882
0.069228
0.06572
0.11388
0.13078
0.14704
0.092189
0.008635
-0.012094
-0.030272
-0.033142
-0.078746
-0.13583
-0.13551
-0.12435
-0.12052
-0.096605
-0.046218
-0.046536
-0.036331
-0.045261
-0.03665
-0.055785
-0.035694
-0.05419
-0.076833
-0.060569
-0.050682
-0.093416
-0.062163
-0.067585
-0.063758
-0.090227
-0.11446
-0.09246
-0.07779
-0.074282
-0.06025
-0.043028
-0.055785
-0.054828
-0.055466
-0.0044404
0.032234
0.044991
0.037018
0.016927
0.058385
0.079433
0.11579
0.15342
0.1547
0.11324
0.12918
0.087087
0.090276
0.074649
0.10558
0.04818
-0.0028458
0.04531
-0.03665
0.0016189
0.0016189
-0.058017
-0.082892
-0.12276
-0.10745
-0.095968
-0.086719
-0.097881
-0.11032
-0.091184
-0.071093
-0.091503
-0.084168
-0.083211
-0.079703
-0.095011
-0.081935
-0.069179
-0.036012
-0.023894
0.004808
0.10208
0.093465
0.089319
0.084854
0.096016
0.050093
0.034467
0.028088
0.030959
0.050093
-0.017835
-0.012413
-0.040477
-0.064077
-0.13583
-0.13073
-0.12658
-0.15656
-0.18271
-0.1556
-0.098838
-0.067585
-0.026445
-0.020067
-0.057698
-0.0034836
0.032234
0.026175
0.032234
0.012143
0.0038513
0.019478
-0.0041214
0.014375
0.032234
-0.03665
-0.087357
-0.0089051
-0.036331
-0.073644
-0.078746
-0.11478
-0.13328
-0.11319
-0.04558
-0.02804
-0.014645
-0.010819
-0.044942
-0.0050782
0.031915
-0.0018891
-0.0050782
0.0099106
0.023305
-0.0089051
-0.052915
-0.032823
-0.019429
-0.033142
-0.063439
-0.062482
-0.053552
-0.082254
-0.11446
-0.09246
-0.10043
-0.10936
-0.11829
-0.080341
-0.070455
-0.061844
0.0057648
0.024262
0.028088
0.065401
0.052645
0.080709
0.10176
0.089319
0.05105
0.030002
0.065401
0.077838
0.062531
0.057428
0.015332
-0.042391
-0.076514
-0.11446
-0.13041
-0.15911
-0.16613
-0.14763
-0.14572
-0.13169
-0.11606
-0.10841
-0.070455
0.06859
0.035104
0.00066221
0.050093
0.050412
0.054558
0.061893
0.055834
0.031596
0.067314
0.019797
-0.058017
-0.053234
-0.032186
-0.044304
-0.13232
-0.14444
-0.15975
-0.16772
-0.15975
-0.16358
-0.17474
-0.1674
-0.13296
-0.070455
-0.011775
-0.036969
-0.051001
-0.03665
-0.05132
-0.043347
-0.04271
-0.014008
-0.01624
-0.03665
-0.02804
-0.082892
-0.047493
-0.08066
-0.10043
-0.13009
-0.1387
-0.13743
-0.14221
-0.12371
-0.069817
-0.047493
-0.055466
-0.046536
-0.046218
-0.036331
-0.0105
-0.027402
-0.021661
0.058704
0.10271
0.11292
0.063806
0.040845
0.080071
0.16012
0.11228
0.058704
0.062531
0.039569
0.0025757
-0.011456
0.027132
0.040207
-0.042072
-0.11415
-0.087357
-0.082892
-0.16613
-0.19961
-0.22449
-0.20057
-0.1859
-0.20089
-0.19642
-0.18175
-0.19196
-0.11415
-0.12116
-0.12595
-0.12244
-0.10266
-0.10043
-0.087676
-0.041115
-0.040477
-0.073006
-0.14891
-0.14412
-0.058017
-0.040158
-0.071093
-0.1049
-0.082254
-0.064714
-0.087676
-0.088314
-0.068222
-0.00029452
-0.010181
0.03351
0.13524
0.16171
0.13269
0.10941
0.083579
0.075925
0.11547
0.1244
0.11228
0.042758
0.03351
0.11515
0.0067215
-0.03665
-0.10107
-0.11606
-0.19132
-0.19802
-0.18654
-0.17538
-0.16836
-0.16995
-0.15815
-0.15528
-0.169
-0.11159
-0.11096
-0.10585
0.030321
0.075606
0.041802
0.021391
0.016289
-0.024532
-0.051639
-0.021343
-0.0015702
-0.018472
-0.028678
-0.053234
-0.075557
-0.097562
-0.11159
-0.11
-0.15178
-0.16868
-0.14061
-0.13232
-0.10043
-0.077471
0.014375
0.093146
0.15183
0.091552
0.027132
0.053282
0.10048
0.078476
0.025856
0.024262
0.030959
0.042121
0.097292
0.048499
-0.056423
-0.13934
-0.15465
-0.17474
-0.16326
-0.17474
-0.17314
-0.10649
-0.064077
-0.010819
0.02171
0.0054459
-0.022299
-0.0079484
0.0057648
0.02777
0.03638
0.025218
-0.019429
0.023624
0.053282
-0.009224
-0.086719
-0.11383
-0.11032
-0.12212
-0.1285
-0.13902
-0.14827
-0.12307
-0.10203
-0.12244
-0.10266
0.01023
-0.017197
-0.041753
-0.022937
0.086449
0.047223
-0.0053971
0.0054459
0.034786
0.072098
0.061255
0.030002
0.1177
0.13333
0.06859
0.079114
0.059023
0.10303
0.028407
-0.026445
0.0095917
-0.035375
0.0041702
0.0032135
-0.029634
-0.068541
-0.043028
-0.078427
-0.089908
-0.089589
-0.047493
-0.077471
-0.050363
0.021391
0.03064
-0.012094
-0.025807
-0.0066727
0.03351
0.015013
0.037656
-0.00029452
0.089
0.071779
-0.0018891
0.033829
0.052326
-0.021024
-0.044623
0.0089539
0.074012
-0.011137
-0.057061
-0.10553
-0.04558
-0.10713
-0.10011
-0.06312
-0.064077
-0.082573
-0.051001
-0.095011
-0.13615
-0.11893
-0.068222
-0.073325
-0.038245
-0.036331
-0.041753
-0.036012
0.0022568
-0.017516
-0.039839
-0.06599
-0.065352
-0.080022
-0.0031647
-0.019748
-0.035056
-0.043028
-0.042391
-0.028996
-0.024213
-0.02804
-0.0105
0.010548
0.060617
0.069866
0.037337
0.065082
0.12823
0.18563
0.34062
0.2475
0.1295
0.061255
0.089319
0.15852
0.15342
0.083898
0.023624
0.008316
0.025537
0.042439
-0.061206
-0.15465
-0.15624
-0.16995
-0.15784
-0.09246
-0.10203
-0.11351
-0.093097
-0.1285
-0.10809
-0.072368
-0.074601
-0.053234
-0.084168
-0.071093
-0.031548
-0.046855
-0.09246
-0.12977
-0.13041
-0.096924
-0.087357
-0.074601
-0.084806
-0.073963
-0.041115
-0.021343
0.054558
0.11419
0.1531
0.082941
0.054239
0.077838
0.064125
0.073693
0.16107
0.075925
0.12217
0.07433
0.063487
0.034148
-0.026126
0.0032135
-0.061844
-0.088952
-0.10841
-0.10426
-0.11574
-0.15592
-0.094054
-0.11893
-0.15497
-0.13838
-0.054828
-0.029315
-0.038883
-0.010181
-0.040477
-0.033142
-0.031229
-0.0079484
0.047223
0.1008
0.0057648
-0.010181
0.04818
0.02458
0.0099106
-0.074601
-0.049407
-0.051639
-0.091503
-0.075876
-0.058655
-0.058017
-0.073325
-0.08927
-0.052596
0.0092728
-0.040158
-0.065671
-0.059293
-0.04845
0.0003433
0.0025757
-0.0105
-0.019748
-0.041115
-0.017835
0.02458
-0.012094
-0.017516
-0.032186
-0.01337
-0.034737
-0.052915
-0.075876
-0.15146
-0.047812
-0.0063538
-0.017835
-0.044304
-0.081617
-0.060887
0.04818
0.029683
-0.017835
-0.097881
0.028726
0.10845
0.047861
-0.044942
-0.034099
-0.037607
0.021072
-0.02517
-0.11064
-0.10203
-0.099157
-0.085762
-0.1269
-0.13041
-0.15146
-0.14636
-0.13998
-0.12499
-0.10617
-0.024213
-0.0050782
-0.023894
-0.026764
-0.0073105
-0.0066727
0.030002
0.087087
0.099524
0.05392
0.0035324
-0.037926
0.020435
-0.023256
-0.046855
-0.030591
0.0028946
-0.023575
-0.077471
-0.11542
-0.12467
-0.13647
-0.14349
-0.13519
-0.132
-0.095649
-0.079065
-0.026126
-0.031867
-0.032504
-0.050363
-0.04845
-0.020067
-0.0105
-0.041753
-0.0034836
-0.019748
0.020116
-0.029634
-0.053552
-0.088952
-0.08066
-0.064077
-0.071093
-0.082573
-0.023575
-0.017835
-0.022937
-0.026764
-0.0095429
0.043077
0.057428
0.030321
0.15374
0.25356
0.25005
0.1649
0.13365
0.063806
0.064125
0.099205
0.057428
-0.00061343
-0.092141
0.013738
0.071141
-0.036331
-0.14476
-0.2146
-0.24554
-0.24554
-0.22959
-0.2162
-0.20376
-0.20153
-0.15528
-0.11223
-0.062482
-0.0098618
0.025537
0.015651
0.16299
0.062531
-0.023256
0.017564
0.014375
0.059979
0.030321
0.044034
0.02171
0.0022568
-0.013051
-0.092141
-0.13232
-0.17155
-0.16517
-0.15433
-0.13392
-0.1285
-0.089589
0.017246
0.03351
0.0032135
0.054558
0.046904
0.028726
0.02171
-0.04271
-0.046218
-0.0066727
0.037656
0.046904
-0.00061343
-0.061525
-0.056423
-0.08353
-0.14125
-0.1336
-0.11829
-0.1336
-0.11159
-0.10904
-0.086081
-0.066947
-0.085762
-0.090546
-0.033461
0.073374
0.073374
-0.00061343
-0.0041214
0.034786
0.072736
0.10782
0.065082
0.026813
0.060617
0.12599
0.11802
0.066358
0.040207
-0.0050782
-0.049088
-0.040477
-0.014645
-0.041115
0.033191
0.035423
-0.025488
0.0051269
-0.034418
-0.053234
-0.068541
-0.032823
-0.023256
0.012143
-0.039202
-0.034418
-0.050363
-0.064077
-0.094373
-0.071411
-0.075876
-0.082573
-0.093416
-0.12945
-0.094054
-0.072049
-0.067585
-0.047812
-0.012413
0.04818
-0.011775
0.013738
0.062212
0.028407
0.038612
0.054877
0.046266
0.077838
0.10622
0.053282
0.17128
0.064125
0.061255
0.10271
0.090595
-0.084168
-0.015602
-0.056742
-0.051001
0.072098
-0.025488
0.12599
0.040207
-0.095649
-0.085443
-0.048131
-0.00061343
-0.009224
-0.040158
-0.056742
-0.084487
-0.087038
-0.095011
-0.10617
-0.089589
-0.12563
-0.15688
-0.1202
-0.12722
-0.095968
-0.074919
-0.13169
-0.10171
-0.059931
-0.055785
-0.14508
-0.017835
0.010548
-0.0063538
-0.0028458
-0.019429
-0.055147
-0.061844
-0.050044
-0.05132
-0.067903
-0.027402
-0.023575
-0.04558
-0.099157
-0.075876
-0.071093
0.023624
-0.0095429
-0.058974
-0.053234
-0.064714
-0.037926
-0.005716
-0.0066727
-0.0105
-0.0038025
0.059342
0.11164
0.11898
0.060617
0.028407
0.11324
0.12982
0.09187
0.059979
0.070503
0.02458
0.010867
0.033829
0.047223
-0.052915
-0.027083
-0.057698
-0.084806
-0.081617
-0.08353
-0.08927
-0.038883
-0.058336
-0.06599
-0.081617
-0.04271
-0.029953
0.008316
-0.0073105
0.15693
0.069547
-0.0034836
0.017883
0.0019378
-0.0038025
0.028407
0.059661
0.12057
0.096335
0.022667
0.044991
0.0060837
-0.041753
-0.06886
-0.052596
-0.046855
-0.04558
-0.028678
-0.066947
-0.059293
-0.027083
-0.026764
0.073693
0.078476
0.015332
0.0070404
-0.014327
-0.017835
-0.015921
0.004808
0.040845
0.068909
-0.028678
-0.020705
-0.053871
-0.093097
-0.10777
-0.14954
-0.1049
-0.10139
-0.052596
-0.11383
-0.087676
-0.094054
-0.10235
-0.061206
-0.064395
-0.058017
-0.073644
-0.06025
-0.04558
-0.08066
-0.070774
-0.065033
-0.050363
-0.035375
-0.084487
-0.0034836
0.0076782
-0.002208
-0.023575
-0.043985
-0.027083
0.00066221
0.0064026
-0.013689
-0.012732
-0.00093234
-0.0066727
-0.0015702
0.043715
0.014056
0.029683
0.099205
0.059342
0.046585
0.047223
0.082622
0.082303
0.067952
0.086768
0.11451
0.074649
0.03064
-0.0076295
-0.017516
-0.018791
0.0089539
0.016608
0.008316
0.0025757
-0.020067
0.066039
0.052645
0.037018
0.01884
-0.049407
-0.024532
0.044353
0.055196
0.031278
-0.0060349
-0.016559
-0.050044
-0.035375
-0.052596
-0.079703
-0.086719
-0.078746
-0.084806
-0.058655
-0.06312
-0.11223
-0.043028
0.011505
-0.054509
-0.066947
-0.07173
-0.081298
-0.021661
0.019478
0.011824
-0.02517
-0.031229
-0.019748
0.0003433
0.0051269
-0.048131
-0.0034836
0.1177
-0.013689
-0.060569
-0.064714
-0.0047593
-0.015602
-0.026126
-0.0063538
-0.015602
-0.0095429
-0.038883
-0.023575
-0.030591
-0.020705
-0.010181
-0.016559
0.013419
0.025218
0.012781
0.018202
0.036061
0.055196
0.016608
0.033829
0.072098
0.057747
0.028726
-0.0076295
0.035742
0.025537
0.018202
0.010548
0.039888
-0.0079484
-0.022299
0.0064026
0.026813
0.0051269
-0.015283
0.0044891
0.03925
0.13875
0.10335
0.14927
0.1885
0.16745
0.12631
0.10845
0.050093
0.059661
0.12312
0.061574
0.09187
0.051688
0.011505
-0.052915
-0.10075
-0.10075
-0.11446
-0.097881
-0.10904
-0.099157
-0.10713
-0.087038
-0.11096
-0.087995
-0.062482
-0.076514
-0.10458
-0.12307
-0.078109
-0.064077
-0.091822
-0.078427
-0.072687
-0.043028
-0.046536
-0.043347
-0.025488
-0.0044404
0.016289
0.0073593
0.016608
0.052326
-0.00061343
0.017246
0.0131
0.022029
-0.0041214
-0.009224
-0.019748
0.0044891
-0.01911
-0.044623
-0.04271
-0.020067
-0.03378
-0.015283
0.0060837
0.12695
0.13492
0.26153
0.2424
0.2341
0.1311
0.1228
0.090595
0.080071
0.090595
0.070503
0.15151
0.1598
0.063487
-0.079703
-0.090865
-0.14891
-0.18431
-0.17857
-0.17314
-0.18175
-0.17857
-0.12563
-0.075238
-0.10841
-0.13456
-0.094054
-0.067903
-0.062482
-0.080979
-0.042072
-0.026764
-0.066309
-0.050044
-0.059612
-0.067266
-0.074601
-0.10298
-0.10777
-0.10266
-0.11096
-0.099157
-0.087676
-0.0982
-0.080022
-0.064714
-0.073963
-0.063758
-0.03378
-0.027402
0.019478
0.050731
0.016608
-0.00061343
0.043715
0.034467
0.023943
0.026494
0.042439
0.11866
0.090595
0.099524
0.11388
0.067633
-0.0085862
-0.010181
0.015332
-0.021024
0.010867
-0.015602
-0.016559
-0.065671
-0.062163
-0.097562
-0.10936
-0.09533
-0.056423
0.028088
-0.00093234
-0.02517
0.054558
0.069228
0.19392
0.091233
0.069228
0.044034
0.19009
0.17351
0.050731
0.06859
0.076244
0.023305
0.011824
-0.056104
-0.093097
-0.0864
-0.091503
-0.12882
-0.15369
-0.1757
-0.16677
-0.14795
-0.14923
-0.11
-0.064395
-0.09533
-0.084168
-0.061525
-0.053234
-0.081617
-0.077471
-0.032504
-0.017835
-0.016878
-0.016559
0.014375
-0.0076295
-0.070455
-0.077152
-0.075557
-0.078746
-0.09533
-0.087357
-0.052915
-0.073006
-0.081617
-0.078109
-0.072687
-0.04271
-0.019748
-0.041753
0.035104
0.12536
0.072736
0.13875
0.096335
0.08326
0.1228
0.098568
0.03925
0.037018
0.02777
0.087087
0.067633
0.028088
-0.058017
-0.12276
-0.08066
-0.094692
-0.11032
-0.14763
-0.14827
-0.14572
-0.15114
-0.1403
-0.090546
-0.11287
-0.0982
-0.062801
-0.067266
0.017883
0.055515
0.0092728
-0.0044404
-0.0095429
0.0089539
0.034467
0.052645
-0.062482
-0.0031647
0.017564
-0.0028458
-0.073963
-0.074282
-0.072687
-0.067903
0.019478
-0.046855
-0.071411
-0.046536
-0.03378
0.015651
0.019478
-0.010181
0.018202
0.025856
0.023305
-0.035375
-0.010181
-0.030272
-0.093735
-0.03091
-0.058655
-0.082254
-0.033461
-0.0066727
-0.035694
-0.012732
0.14927
0.080709
0.06285
0.023943
0.042121
0.038294
0.047223
0.028407
0.094422
0.070185
0.089957
0.080709
-0.0015702
-0.055466
-0.067585
-0.12052
-0.096924
-0.04558
-0.095011
-0.14476
-0.095011
-0.11223
-0.11829
-0.12499
-0.1454
-0.13487
-0.090546
-0.029953
-0.0031647
-0.024851
-0.035694
-0.0053971
0.0079971
0.022348
-0.046536
-0.012413
0.0079971
0.05392
0.018202
0.023624
0.00098112
-0.031867
-0.087038
-0.093097
-0.086719
-0.084168
-0.077471
-0.063439
-0.076195
-0.077152
-0.056423
-0.058655
-0.045261
-0.025807
0.0013
0.034467
-0.01911
-0.03665
-0.02517
0.057109
0.17415
0.11675
0.069547
0.063169
0.046585
0.071779
0.044353
0.042758
0.0057648
0.064125
0.020435
0.01023
-0.041753
-0.060887
-0.081935
-0.075238
-0.078746
-0.036331
-0.014008
-0.041434
-0.036331
0.036061
0.048499
0.044353
0.035742
0.089638
0.044034
0.091552
0.055196
-0.044304
-0.063758
-0.031867
-0.042391
-0.014645
-0.08066
-0.1556
-0.1049
-0.11765
-0.13934
-0.15433
-0.15752
-0.15497
-0.13519
-0.13232
-0.11319
-0.096924
-0.10394
-0.10011
-0.068222
-0.053234
-0.049088
-0.016878
-0.020705
-0.016559
-0.0047593
0.0099106
-0.00029452
0.0032135
0.022986
0.012781
0.014694
0.0064026
0.010548
-0.0063538
-0.020067
-0.034418
-0.035056
-0.036012
-0.031548
-0.039202
-0.023894
-0.034099
-0.024851
0.014694
2.4388e-05
0.042758
0.017564
0.082941
0.21561
0.22709
0.14832
0.063806
0.093784
0.13237
0.20476
0.13971
0.1228
0.11993
0.1126
0.077838
-0.011775
0.0041702
-0.025807
-0.11223
-0.10298
-0.11957
-0.16708
-0.15018
-0.14667
-0.12626
-0.1033
-0.087357
-0.073644
-0.065352
-0.043985
-0.03091
0.0057648
0.020116
0.098249
0.025218
-0.01337
-0.03378
0.010548
-0.047812
-0.058336
-0.024213
-0.046218
-0.090546
-0.11478
-0.13647
-0.13838
-0.12977
-0.12658
-0.11765
-0.10681
-0.055147
-0.051639
-0.05132
-0.040158
0.0044891
0.02777
0.0022568
0.044034
0.044034
0.046904
0.05105
0.066039
0.031915
0.04818
-0.0073105
0.027132
0.022348
-0.00093234
-0.034737
-0.065671
-0.073325
-0.073325
-0.094373
-0.096286
-0.082892
-0.052915
-0.023894
-0.02517
-0.015283
0.00098112
0.00098112
0.031278
0.10622
0.10877
0.07433
0.047861
-0.029953
0.03638
0.088044
0.051369
-0.012094
-0.015283
-0.032504
-0.066947
-0.099476
-0.08066
-0.081935
-0.10585
-0.096924
-0.097881
-0.10266
-0.10362
-0.096605
-0.094054
-0.069817
-0.069179
-0.075876
-0.05419
-0.035694
-0.05132
-0.03665
-0.021024
-0.022618
-0.026764
-0.015921
0.0016189
0.008635
0.029045
0.03925
0.012143
0.023943
0.013419
-0.00061343
0.017883
0.023943
0.027451
0.084536
0.052645
0.052645
0.03064
0.059342
0.028407
0.0076782
0.012462
-0.0034836
-0.00029452
0.0060837
-0.031229
-0.061525
-0.06312
-0.065352
-0.097243
-0.033461
-0.029634
0.072417
0.090914
0.050731
0.0044891
0.011505
0.030959
0.095378
0.10973
0.19169
0.18946
0.051369
-0.011775
0.073693
0.069547
0.011824
-0.038245
-0.039839
-0.053552
-0.016878
-0.029315
-0.06025
-0.064395
-0.072368
-0.089908
-0.046536
-0.075557
-0.13073
-0.12595
-0.11446
-0.080022
-0.072368
-0.1033
-0.11446
-0.11829
-0.1202
-0.11064
-0.10617
-0.093735
-0.076833
-0.06025
-0.047493
0.01023
0.025856
0.004808
0.0028946
-0.0015702
0.011824
0.056471
0.059979
0.033829
0.029683
0.058704
0.072417
0.06859
0.065082
0.040845
-0.022299
-0.018153
-0.02517
-0.018791
-0.024213
-0.036012
-0.04845
-0.05132
-0.059612
-0.054509
-0.005716
0.017883
0.064125
0.022986
0.019478
0.070822
0.1598
0.15151
0.13429
0.11993
0.044991
0.066039
0.088362
0.09506
0.075287
0.026813
-0.11319
-0.02517
-0.028359
-0.076195
-0.11733
-0.12658
-0.097881
-0.070136
-0.081298
-0.033142
-0.03665
-0.037607
-0.035375
-0.0082673
0.01884
0.015013
0.020754
0.0070404
0.0089539
-0.024532
-0.018153
-0.019748
0.0044891
-0.035375
-0.056104
-0.10713
-0.085762
-0.085443
-0.089589
-0.099476
-0.10936
-0.11191
-0.090865
-0.077471
-0.073963
-0.064714
-0.048131
-0.015602
0.03351
0.11292
0.18882
0.15629
0.1177
0.10239
0.092508
0.1126
0.11164
0.075287
0.1059
0.049455
0.022667
0.07146
0.025537
-0.052915
-0.10235
-0.10426
-0.1218
-0.13679
-0.1285
-0.11893
-0.1033
-0.08066
-0.064714
-0.005716
0.031915
0.03351
0.016608
0.032553
0.014056
0.056471
0.084217
0.11738
0.097292
0.041483
0.032234
-0.0018891
-0.0073105
0.0095917
-0.063439
-0.085443
-0.096924
-0.098838
-0.089589
-0.088633
-0.11319
-0.098838
-0.072368
-0.064395
-0.064395
-0.044304
-0.026126
-0.0060349
0.030959
0.040845
0.029683
-0.010819
0.0095917
0.043715
0.041164
0.015651
-0.026126
-0.063758
-0.00061343
0.022348
-0.02198
-0.043666
-0.044942
-0.053552
-0.067266
-0.076195
-0.056423
-0.059931
-0.069817
-0.047174
-0.023256
-0.0073105
0.023305
0.010867
0.01023
0.059023
0.080709
0.15055
0.12599
0.1126
0.07752
0.066039
0.036699
0.059661
0.065082
0.043396
-0.002208
-0.052596
-0.038245
-0.054509
-0.087995
-0.072049
-0.080341
-0.088314
-0.059612
-0.050682
-0.037288
0.015651
0.041802
0.0095917
0.021391
0.053601
0.072098
0.034786
0.015651
0.046904
0.056471
0.048818
0.028407
0.0064026
-0.018791
-0.017516
-0.059931
-0.052915
-0.01911
-0.068222
-0.083849
-0.098838
-0.11255
-0.10617
-0.095011
-0.080022
-0.08927
-0.078746
-0.067903
0.0013
0.0022568
0.015332
0.0044891
-0.029315
-0.036012
0.0044891
0.021072
0.016289
0.020435
0.022986
-0.019748
-0.066628
-0.055147
-0.0012513
-0.029315
-0.046855
-0.056104
-0.066628
-0.053552
-0.03665
-0.03952
-0.026764
-0.01911
-0.017835
0.022029
0.031596
0.021072
0.014694
0.039888
0.049137
0.04818
0.076244
0.097292
0.091233
0.10144
0.06859
0.045947
0.049774
0.070185
0.078795
0.05392
0.0089539
-0.044304
-0.039839
-0.030272
0.044991
0.073055
0.068909
0.044353
0.034786
0.034467
0.035104
0.052963
0.063169
0.065082
0.081665
0.074968
0.050412
0.045629
0.029045
0.0067215
-0.0038025
-0.017516
-0.033142
-0.043347
-0.055466
-0.071093
-0.066309
-0.081298
-0.049407
-0.062163
-0.050363
-0.047812
-0.049726
-0.047174
-0.063439
-0.069498
-0.057379
-0.052277
-0.045261
-0.033461
-0.002208
0.026494
0.054239
0.069866
0.048818
0.044034
0.042121
0.015332
0.022986
0.035104
0.03351
0.027451
0.0041702
-0.043347
-0.033142
-0.016878
-0.034737
-0.044942
-0.062801
-0.075238
-0.071411
-0.061525
-0.043666
-0.021661
-0.011456
0.029364
0.079752
0.15693
0.12504
0.090914
0.095378
0.11132
0.1177
0.11132
0.096335
0.11866
0.073055
0.030002
-0.0089051
0.028088
-0.0034836
-0.058336
-0.098519
-0.13743
-0.17027
-0.16549
-0.16868
-0.14827
-0.13105
-0.096286
-0.079065
-0.041753
2.4388e-05
0.022348
0.029364
0.040526
0.031596
0.024262
0.034786
0.062531
0.054877
0.040526
0.028726
0.0022568
0.012462
0.0054459
-0.031548
-0.051639
-0.059293
-0.064077
-0.06599
-0.03952
-0.038883
-0.03665
-0.02804
-0.024851
-0.022937
-0.020067
0.0060837
0.039888
0.050412
0.062212
0.078476
0.044353
0.034467
0.045629
0.044034
0.098249
0.11164
0.057747
0.057109
0.022029
0.035104
0.023624
0.046266
0.032553
0.0041702
0.022667
0.029683
0.029364
0.038612
0.030002
0.045947
0.03638
0.027451
0.046266
0.042121
0.058704
0.066677
0.045629
0.014694
-0.005716
-0.0073105
-0.038883
-0.022618
-0.026764
-0.041115
-0.032504
-0.012094
-0.0028458
-0.027721
-0.017197
-0.0053971
-0.03378
-0.03665
-0.033142
-0.031229
-0.020067
-0.023575
-0.023575
-0.045899
-0.023575
-0.020705
-0.016559
-0.030272
-0.027402
-0.016559
-0.020705
-0.015921
-0.040158
-0.011775
0.0041702
-0.0034836
-0.012732
0.015332
-0.0073105
-0.049407
-0.053234
-0.020705
-0.032186
-0.028996
-0.010181
-0.00093234
-0.015602
-0.01911
-0.019429
-0.0034836
-0.014964
-0.0076295
0.0003433
0.015332
0.0051269
0.0016189
-0.0044404
0.081984
0.076244
0.080071
0.082303
0.056471
0.038612
0.080709
0.1346
0.12312
0.12886
0.077201
0.071141
0.060617
0.050412
0.028088
0.013419
0.0032135
-0.015283
-0.025488
-0.035694
-0.044942
-0.040158
-0.048131
0.0016189
0.008635
0.0054459
0.016608
0.019478
0.021391
0.033829
0.050093
0.043715
0.039569
0.011824
0.021391
0.015332
0.013738
0.0032135
-0.0018891
-0.023894
-0.055147
-0.045261
-0.054828
-0.056104
-0.053552
-0.051001
-0.024851
-0.0063538
-0.010181
-0.005716
0.0064026
0.0131
0.014375
0.019797
0.0032135
0.064444
0.063169
0.067314
0.075606
0.053601
0.011505
0.01597
0.0028946
-0.02804
-0.034099
-0.060569
-0.052277
-0.028678
-0.038564
-0.05419
-0.064714
-0.064714
-0.067585
-0.057379
-0.022299
-0.012094
-0.00093234
0.038931
0.047861
0.057747
0.047861
0.035742
0.022667
0.047861
0.049455
0.077838
0.069228
0.061255
0.041164
0.010548
0.0089539
0.040845
0.008635
-0.012413
2.4388e-05
-0.0060349
-0.034737
-0.032823
-0.023256
-0.042072
-0.021343
-0.0034836
0.0067215
0.045947
0.051369
0.040526
0.042121
0.048818
0.037975
0.047542
0.055515
0.060617
0.066995
0.059661
0.0131
0.011186
-0.0053971
-0.011456
-0.0069916
-0.027083
-0.036012
-0.034737
-0.035694
-0.029634
-0.027721
-0.01624
-0.0076295
0.0013
0.012143
0.035104
0.023624
0.01597
0.01597
0.078157
0.073693
0.11515
0.12217
0.11451
0.075606
0.05679
0.082622
0.075925
0.07752
0.081028
0.055196
0.034148
0.010867
-0.040796
-0.037926
-0.047493
-0.049407
-0.058017
-0.061206
-0.064714
-0.073963
-0.06312
-0.055147
-0.037288
-0.036331
-0.032186
-0.020386
-0.0053971
-0.0066727
-0.0060349
-0.014645
-0.015602
-0.0079484
-0.009224
-0.015602
-0.0085862
-0.028678
-0.037288
0.0054459
0.0022568
-0.0060349
-0.024532
-0.022299
-0.024213
-0.023894
-0.027402
-0.022618
-0.025488
-0.017835
-0.0047593
-0.0085862
-0.00061343
0.0003433
0.01023
0.029045
0.025856
0.025537
0.036699
0.029045
0.019159
0.029045
0.026175
0.019797
0.014375
0.0019378
-0.0041214
-0.009224
-0.014645
-0.022299
-0.020705
-0.0089051
-0.0069916
-0.013051
0.00098112
0.0016189
0.0038513
-0.00029452
0.0044891
0.0060837
0.008635
0.0060837
0.0028946
-0.00029452
0.0051269
0.01023
0.0057648
0.0054459
0.012462
0.014375
0.016289
0.024262
0.016608
0.019478
0.025218
0.018202
0.014375
0.014694
0.010548
0.0016189
0.011824
0.014694
0.012462
0.010548
0.014375
0.0092728
0.013738
0.017883
0.029045
0.02458
0.02171
0.026175
0.017246
0.0060837
0.012143
0.0079971
0.0003433
0.0051269
0.004808
0.0044891
0.00098112
0.00098112
0.0054459
0.0054459
0.016289
0.017883
0.013419
0.0092728
0.012462
0.008635
0.0064026
0.0032135
-0.00029452
-0.0031647
0.0016189
0.0041702
-0.00029452
0.0028946
0.0016189
-0.0018891
0.01023
0.019478
0.011824
0.0095917
0.012143
0.011186
0.008316
0.0028946
-0.0018891
-0.0050782
-0.0047593
0.0003433
0.0025757
-0.0034836
-0.0041214
0.0051269
0.0025757
0.0022568
0.016289
0.014694
0.010548
0.021072
0.013419
0.0019378
2.4388e-05
0.0051269
0.0013
0.0044891
0.0041702
0.0067215
0.008635
0.0092728
0.010548
0.0092728
0.020116
0.018202
0.020116
0.018521
0.022029
0.018521
0.01884
0.014694
0.0079971
0.0057648
0.011824
0.0073593
0.0064026
0.019159
0.017883
0.020754
0.025218
0.029045
0.020435
0.021391
0.032234
0.032234
0.025537
0.023624
0.017246
0.010867
0.010548
0.016608
0.020435
0.020754
0.016608
0.017883
0.02171
0.022986
0.031278
0.027132
0.027132
0.028726
0.023943
0.02458
0.022029
0.018202
0.011824
0.014375
0.017564
0.016608
0.016608
0.01884
0.024262
0.025537
0.030321
0.035104
0.031278
0.028726
0.032553
0.034148
0.032553
0.024899
0.019159
0.017883
0.026175
0.028726
0.023943
0.022029
0.028407
0.035423
0.030959
0.035742
0.041164
0.038294
0.035742
0.042439
0.044991
0.035104
0.028088
0.025218
0.025537
0.028726
0.032234
0.032872
0.031915
0.035104
0.036699
0.044034
0.04531
0.03638
0.037975
0.048499
0.046904
0.042439
0.039888
0.035104
0.029364
0.034148
0.034786
0.035104
0.035104
0.036061
0.042121
0.045947
0.046904
0.044034
0.043077
0.050093
0.050412
0.046585
0.038294
0.033191
0.035104
0.034467
0.037975
0.035742
0.035423
0.034467
0.032234
0.040207
0.044991
0.050093
0.046585
0.045629
0.050412
0.050412
0.049137
0.047861
0.042121
0.027451
0.035742
0.041802
0.038294
0.037975
0.041483
0.047861
0.043396
0.043396
0.05105
0.044034
0.048818
0.050412
0.044991
0.042121
0.041164
0.034467
0.028726
0.037975
0.043715
0.037018
0.033829
0.035742
0.03925
0.037975
0.046904
0.054239
0.049774
0.049455
0.049137
0.047861
0.044991
0.040526
0.035742
0.033191
0.047542
0.045629
0.03638
0.040526
0.042758
0.044672
0.047861
0.057747
0.049455
0.049455
0.050412
0.052963
0.048818
0.042121
0.03925
0.035423
0.03064
0.034148
0.037337
0.033829
0.03638
0.040845
0.03925
0.045629
0.049137
0.043715
0.042758
0.047223
0.043715
0.047861
0.037656
0.032872
0.031915
0.035423
0.036699
0.037018
0.031278
0.034467
0.038294
0.041164
0.049137
0.050412
0.047223
0.04531
0.049137
0.046585
0.042121
0.041164
0.033829
0.030321
0.03925
0.03925
0.034148
0.032872
0.03638
0.040207
0.039569
0.047542
0.043077
0.041164
0.044034
0.045947
0.031596
0.03064
0.032553
0.028088
0.022348
0.026175
0.02777
0.02171
0.023624
0.028726
0.031596
0.036699
0.039888
0.031915
0.032234
0.038931
0.036061
0.031915
0.028726
0.023624
0.01884
0.023624
0.025537
0.023624
0.020116
0.021391
0.02458
0.024262
0.031278
0.032234
0.026175
0.022986
0.030002
0.029683
0.023305
0.014694
0.0060837
0.0038513
0.015013
0.012143
0.0095917
0.012781
0.0095917
0.011505
0.017883
0.028726
0.02171
0.020754
0.022986
0.022348
0.01597
0.011505
0.013419
0.0060837
0.0016189
0.0076782
0.011186
0.0067215
0.0057648
0.0076782
0.0032135
0.010867
0.020435
0.013738
0.013738
0.017564
0.013738
0.0057648
0.004808
0.0032135
-0.0031647
0.0013
0.0032135
0.0003433
-0.00061343
-0.00093234
0.0060837
0.0079971
0.012781
0.016289
0.012781
0.012143
0.0079971
0.01023
0.010867
0.0060837
-0.0038025
-0.0060349
0.0025757
0.0028946
-0.0044404
-0.0031647
0.0003433
0.0044891
0.0070404
0.0057648
0.0032135
0.0016189
0.0092728
0.008316
0.0016189
-0.0038025
-0.0076295
-0.012413
-0.012094
-0.0079484
-0.0015702
-0.0089051
-0.0085862
-0.0050782
-0.0105
0.0038513
0.01023
0.0060837
0.00098112
0.0044891
0.0044891
0.0038513
-0.0031647
-0.012413
-0.01624
-0.0085862
0.00066221
2.4388e-05
-0.0079484
-0.0085862
-0.0028458
-0.0025269
0.0073593
0.012462
0.008635
0.0044891
0.0067215
0.0057648
0.0041702
0.0013
-0.0031647
-0.0053971
0.0019378
0.00098112
-0.0028458
-0.00093234
-0.00029452
0.004808
0.0089539
0.011824
0.0099106
0.011824
0.013738
0.011824
0.0095917
0.0076782
0.0025757
-0.0038025
-0.0047593
0.0016189
0.0054459
-0.00029452
0.0019378
0.0051269
0.0044891
0.0095917
0.017883
0.012143
0.01023
0.014694
0.014694
0.012462
0.0073593
0.0019378
-0.0015702
0.0051269
0.0073593
0.0076782
0.0070404
0.0041702
0.0073593
0.011505
0.015332
0.021391
0.021072
0.016289
0.017883
0.015013
0.012462
0.008316
0.0016189
-0.0012513
0.0070404
0.0051269
0.0019378
0.0054459
0.0057648
0.0092728
0.0092728
0.014694
0.014694
0.012781
0.01597
0.015332
0.012781
0.008635
0.0064026
-0.00029452
-0.0015702
0.0038513
0.0076782
0.0032135
0.0067215
0.0073593
0.01023
0.017246
0.022986
0.01597
0.019797
0.019797
0.014694
0.015332
0.0079971
0.0067215
0.0057648
0.011505
0.0028946
0.0051269
0.0003433
0.0016189
0.0079971
0.013419
0.015332
0.019797
0.015013
0.012781
0.016289
0.010867
0.0131
0.0092728
0.004808
0.0003433
0.0073593
0.0095917
0.0057648
0.0057648
0.0089539
0.0131
0.016608
0.022667
0.020116
0.017883
0.020754
0.021391
0.017564
0.013738
0.010548
0.0051269
-0.00061343
0.0054459
0.010548
0.0051269
0.0060837
0.0092728
0.0070404
0.012462
0.020754
0.0131
0.014694
0.020116
0.017246
0.0131
0.0095917
0.0041702
-0.00093234
0.0044891
0.0070404
0.0079971
0.0067215
0.0067215
0.011505
0.011824
0.017246
0.023305
0.019478
0.017246
0.017883
0.014375
0.012781
0.011824
0.0073593
-0.00061343
0.010548
0.013419
0.0060837
0.0025757
0.0060837
0.010867
0.016608
0.025218
0.01884
0.016608
0.018521
0.018521
0.017564
0.014694
0.012143
0.0054459
0.0035324
0.0079971
0.0076782
0.008635
0.010548
0.012143
0.015651
0.021391
0.028407
0.024262
0.022029
0.024899
0.020116
0.018202
0.014375
0.019478
0.0099106
0.0051269
0.010548
0.013419
0.0092728
0.0095917
0.013738
0.013419
0.017246
0.023305
0.020754
0.018202
0.01884
0.016608
0.01597
0.015013
0.0067215
0.0025757
0.0131
0.011824
0.0099106
0.0092728
0.010867
0.01597
0.019159
0.028407
0.022667
0.022348
0.022348
0.022986
0.023305
0.018202
0.015013
0.0095917
0.0054459
0.012143
0.01597
0.008635
0.012462
0.016608
0.01597
0.02171
0.028726
0.022029
0.016927
0.023624
0.024262
0.019478
0.017246
0.0095917
0.0073593
0.012462
0.014056
0.011186
0.0092728
0.010867
0.01597
0.017246
0.022986
0.028088
0.024899
0.022348
0.026494
0.022986
0.019797
0.018202
0.011186
0.0070404
0.022029
0.019478
0.014056
0.014375
0.012143
0.015332
0.016289
0.02458
0.025218
0.025218
0.023624
0.022348
0.020435
0.015013
0.008316
-0.00029452
0.0016189
0.0089539
0.013419
0.0073593
0.0076782
0.010867
0.012781
0.012781
0.022348
0.022348
0.02171
0.019478
0.017883
0.017564
0.013738
0.0095917
0.0035324
0.0073593
0.012781
0.013738
0.0092728
0.008316
0.010867
0.017883
0.022029
0.024262
0.025856
0.021072
0.025218
0.023943
0.013419
0.015013
0.010867
0.008316
0.011824
0.015013
0.012143
0.0089539
0.011824
0.015651
0.018202
0.02458
0.020754
0.02171
0.023305
0.021391
0.019159
0.017246
0.013419
0.0089539
0.0054459
0.010548
0.015332
0.0089539
0.0092728
0.021391
0.022667
0.022986
0.030959
0.02458
0.024899
0.029045
0.028407
0.02458
0.021072
0.016608
0.0095917
0.011186
0.0099106
0.012143
0.0079971
0.011824
0.012143
0.01884
0.038294
0.038931
0.027451
0.021072
0.032553
0.03064
0.026813
0.025537
0.022986
0.013419
0.016289
0.01884
0.0089539
0.012462
0.0028946
0.0032135
0.0079971
0.012143
0.0067215
0.0067215
0.0051269
0.0032135
-0.0018891
-0.0012513
-0.0018891
-0.0073105
-0.0076295
0.0003433
-0.00061343
-0.0012513
0.00098112
0.0028946
0.0051269
0.008635
0.015332
0.0067215
0.013738
0.01597
0.0131
0.015013
0.0092728
0.00066221
-0.00061343
0.0028946
0.0038513
0.0073593
0.00098112
-0.0018891
0.01023
0.015651
0.012462
0.021391
0.020435
0.016608
0.01884
0.01597
0.01597
0.0064026
0.0041702
0.0016189
0.01023
0.008316
0.0057648
0.0041702
0.0064026
0.012462
0.013419
0.019159
0.018202
0.017564
0.016289
0.018521
0.01597
0.011186
0.0089539
0.0044891
0.0013
0.0079971
0.011186
0.0076782
0.0095917
0.012462
0.011824
0.01597
0.023943
0.016608
0.017564
0.022029
0.019159
0.017246
0.015332
0.0079971
0.00098112
0.0044891
0.0076782
0.0064026
0.0051269
0.0089539
0.012462
0.013419
0.025537
0.037656
0.027451
0.026813
0.029045
0.028726
0.02777
0.025856
0.019159
0.016289
0.025218
0.021072
0.010548
0.0131
0.016289
0.014056
0.015651
0.02171
0.017564
0.013419
0.010548
0.013738
0.011824
0.0051269
-0.00029452
-0.0018891
-0.0025269
0.0035324
0.0054459
-0.00061343
0.00066221
0.0044891
0.0057648
0.010867
0.018202
0.010867
0.010867
0.0131
0.01023
0.012143
0.0076782
0.0041702
-0.0015702
0.0025757
0.0019378
0.0013
0.0038513
0.0070404
0.0095917
0.0092728
0.018202
0.023943
0.017883
0.018521
0.020754
0.013738
0.016289
0.018521
0.010548
-0.0034836
0.0095917
0.016289
0.013419
0.0099106
0.01023
0.015651
0.01884
0.023305
0.018521
0.021072
0.021072
0.022029
0.018202
0.01597
0.013738
0.008635
0.0013
0.0064026
0.012143
0.010548
0.011186
0.015651
0.020435
0.016608
0.017564
0.020435
0.023624
0.025218
0.025856
0.022348
0.017246
0.013738
0.0070404
0.0099106
0.014056
0.016289
0.012143
0.016289
0.017564
0.017883
0.025856
0.032234
0.024899
0.020435
0.027451
0.022029
0.014694
0.014375
0.010867
0.0064026
0.017883
0.01597
0.0076782
0.0051269
0.010548
0.016608
0.01884
0.026813
0.025218
0.022348
0.021391
0.021072
0.020116
0.017246
0.014694
0.0070404
0.004808
0.011505
0.014375
0.0060837
0.0095917
0.014694
0.017564
0.033829
0.041483
0.035742
0.03638
0.040845
0.038612
0.048499
0.044353
0.032234
0.027451
0.029683
0.030959
0.034786
0.023943
0.016927
0.031278
0.023305
0.020435
0.017564
0.0131
0.0070404
0.010548
0.0054459
0.0019378
0.0013
-0.0047593
-0.013051
-0.00093234
0.0003433
-0.0034836
-0.005716
-0.0038025
0.0044891
0.011505
0.015332
0.015013
0.014375
0.012462
0.014375
0.011824
0.01023
0.008635
0.0016189
-0.002208
0.0064026
0.01023
0.0044891
0.0057648
0.010867
0.013738
0.01884
0.024899
0.01884
0.021391
0.026494
0.023624
0.020116
0.015013
0.015013
0.010548
0.014694
0.017246
0.017883
0.017246
0.032872
0.031278
0.034467
0.046585
0.048818
0.042758
0.040207
0.050093
0.050412
0.048499
0.038294
0.028726
0.023943
0.028726
0.01884
0.029045
0.020435
0.0099106
0.0016189
0.0022568
0.025537
0.017883
0.0089539
0.008635
0.0064026
0.0044891
0.0041702
0.0022568
-0.0044404
-0.0066727
0.00098112
0.0070404
0.0032135
0.004808
0.0070404
0.010548
0.017246
0.022029
0.014375
0.017246
0.022348
0.020754
0.019478
0.020116
0.013738
0.012143
0.02777
0.034467
0.042439
0.044353
0.037337
0.035104
0.043396
0.052326
0.062531
0.05392
0.044672
0.049774
0.037337
0.034786
0.030959
0.011824
0.00098112
0.014056
0.0089539
-0.0018891
-0.005716
2.4388e-05
0.0057648
0.0099106
0.016927
0.010867
0.0079971
0.016927
0.018202
0.01597
0.015332
0.012781
0.0060837
0.0092728
0.016927
0.016289
0.0079971
0.0099106
0.017883
0.02171
0.025856
0.028726
0.018521
0.027132
0.03064
0.026175
0.020116
0.010867
0.010867
0.0057648
0.0067215
0.0060837
0.011505
0.0028946
0.012781
0.012143
0.013738
0.017883
0.027451
0.020116
0.014375
0.023624
0.023943
0.019797
0.01884
0.0131
0.0095917
0.021391
0.021391
0.0092728
0.0051269
0.012781
0.023624
0.026175
0.029683
0.02777
0.025856
0.025856
0.024899
0.024262
0.028407
0.032234
0.021391
0.020754
0.03064
0.035104
0.018202
0.014694
0.021072
0.024899
0.032234
0.03925
0.02777
0.021391
0.01884
0.0131
0.0092728
0.008316
-0.00029452
-0.0095429
-0.0079484
-0.0053971
0.0013
-0.0041214
-0.0034836
0.008635
0.0095917
0.014056
0.01884
0.016289
0.016289
0.022667
0.019159
0.020435
0.016927
0.013738
0.0064026
0.016927
0.017246
0.015651
0.015651
0.017883
0.01884
0.023305
0.029683
0.029045
0.025537
0.02777
0.028088
0.026813
0.023624
0.020116
0.010867
0.0099106
0.026494
0.028726
0.022029
0.021072
0.027132
0.030321
0.041164
0.043715
0.03925
0.044991
0.050412
0.043396
0.046904
0.043077
0.039569
0.02777
0.026175
0.034467
0.033191
0.023943
0.017883
0.019478
0.021391
0.019797
0.024262
0.020435
0.0092728
0.013738
0.0073593
0.0028946
-0.00061343
-0.0050782
-0.0095429
-0.002208
0.0057648
0.0060837
0.0019378
0.0044891
0.010867
0.022029
0.046904
0.042121
0.035104
0.037975
0.042439
0.041164
0.035104
0.041164
0.038612
0.038294
0.045629
0.054239
0.034786
0.015651
0.0025757
0.019159
0.026494
0.02458
0.017883
0.012143
0.0016189
-0.0034836
-0.014645
-0.018472
-0.027083
-0.026126
-0.020386
-0.025807
-0.019429
-0.012413
-0.0098618
-0.0044404
-0.00029452
0.0044891
0.014375
0.021391
0.019478
0.025856
0.021391
0.022029
0.023305
0.01597
0.0076782
0.029364
0.018521
0.015013
0.015332
0.01597
0.0057648
0.008635
0.023943
0.014375
0.01023
0.019159
0.0099106
0.00098112
-0.002208
-0.0060349
-0.013051
-0.015921
-0.0018891
-0.0012513
-0.0069916
-0.00061343
0.0051269
0.0089539
0.012781
0.022029
0.015332
0.020754
0.02777
0.028407
0.019159
0.029683
0.039569
0.027132
0.025856
0.026813
0.02777
0.028407
0.028088
0.03351
0.03064
0.042121
0.044353
0.038612
0.030002
0.021072
0.019159
0.017883
0.0099106
-0.00093234
-0.00093234
0.008635
0.0025757
-0.010819
0.0070404
0.008316
-0.0047593
-0.00029452
0.016608
0.012143
0.012143
0.019159
0.025856
0.023305
0.041164
0.045947
0.021072
0.022986
0.034786
0.038931
0.029364
0.031596
0.036699
0.029045
0.03925
0.047223
0.028407
0.015332
0.0022568
-0.00029452
0.004808
-0.0060349
-0.0060349
-0.016559
-0.013689
-0.014964
-0.020067
-0.022299
-0.020386
-0.0050782
0.0060837
-0.0018891
0.0003433
-0.00061343
-0.00093234
-0.0066727
-0.018791
-0.021024
-0.016559
-0.021024
-0.030591
-0.025807
-0.017835
-0.031867
-0.034099
-0.022618
-0.015921
-0.010181
-0.0028458
0.0060837
0.0022568
0.0070404
0.011505
0.013419
0.0092728
0.0076782
0.0019378
0.00066221
0.0092728
0.012781
0.011505
0.008316
0.0028946
0.019797
0.02458
0.027451
0.021391
0.022986
0.012462
0.026813
0.019797
0.01597
0.0070404
0.0019378
0.0032135
0.0070404
-0.00061343
-0.0015702
0.0022568
0.0095917
0.012781
0.010867
0.018202
0.012143
0.0073593
0.0095917
0.008635
0.01023
0.0032135
-0.013689
-0.012094
0.017246
0.0054459
0.0054459
0.0095917
0.030002
0.04818
0.048818
0.040207
0.050093
0.039569
0.040526
0.047542
0.048499
0.052007
0.056153
0.063487
0.044034
0.046904
0.029364
0.0057648
0.010867
-0.0012513
0.010548
0.0057648
0.018521
0.012462
-0.0053971
-0.01337
-0.0079484
-0.018791
-0.035694
-0.034418
-0.036331
-0.038245
-0.034418
-0.026764
-0.041115
-0.03665
-0.02804
-0.021343
-0.01337
-0.0079484
0.0025757
-0.0031647
0.0044891
0.0060837
-0.00093234
-0.015602
-0.022618
-0.021024
-0.0095429
-0.0038025
-0.010819
-0.0018891
-0.010181
-0.013051
0.0057648
-0.002208
0.018521
0.008635
0.017246
0.013419
-0.010819
-0.01337
-0.011775
-0.021024
-0.023575
-0.015921
-0.0050782
-0.017516
-0.038883
-0.037607
-0.044942
-0.019429
0.0013
-0.010181
-0.0044404
0.01023
-0.00061343
-0.0105
0.04818
0.066995
0.074012
0.073374
0.080071
0.072417
0.069547
0.08326
0.10112
0.090595
0.089957
0.10526
0.05679
0.015013
0.040845
0.037337
0.019159
-0.0073105
-0.018153
-0.019748
-0.0105
-0.021661
-0.037607
-0.032823
-0.041434
-0.018153
0.034148
0.022986
0.028088
0.023943
0.030002
0.026813
0.0099106
-0.0012513
0.028726
0.02171
-0.0079484
0.011186
-0.021024
-0.033461
-0.0025269
-0.015921
-0.035375
-0.028996
-0.026764
-0.039202
-0.03952
-0.028996
-0.036969
-0.047493
-0.039839
-0.052277
-0.06312
-0.065352
-0.060887
-0.053234
-0.054509
-0.045899
-0.042391
-0.050044
-0.041434
-0.035375
-0.026126
-0.025807
-0.0098618
-0.0085862
-0.012732
-0.0047593
0.0054459
-0.010181
0.0131
0.029364
0.019797
0.031278
0.041483
0.041164
0.052645
0.052963
0.084536
0.069547
0.069228
0.094422
0.08326
0.10303
0.099524
0.066677
0.052645
0.059661
0.062212
0.045629
0.02777
0.014694
0.0025757
0.02777
0.021391
-0.035375
-0.068541
-0.058336
-0.058017
-0.055147
-0.068222
-0.074601
-0.072049
-0.061525
-0.053871
-0.04271
-0.044304
-0.018472
-0.021024
-0.017197
0.0016189
2.4388e-05
-0.0095429
-0.0028458
-0.0015702
-0.0060349
-0.00093234
-0.0044404
-0.026445
-0.029953
-0.035694
-0.037288
-0.036331
-0.018791
-0.01624
-0.0053971
0.028088
0.04818
0.034786
0.044353
0.070503
0.052963
0.031915
0.022667
0.032234
0.029683
0.026813
0.015332
0.0003433
-0.015602
-0.021343
-0.026126
-0.033142
-0.029634
-0.016878
-0.051958
-0.056742
-0.03665
0.0028946
0.026175
0.016289
0.044672
0.043077
0.05105
0.034148
0.038931
0.037975
0.061255
0.075287
0.057747
0.041802
0.051369
0.031278
-0.0028458
0.0054459
0.01023
-0.020386
-0.062482
-0.05132
-0.056742
-0.062482
-0.058655
-0.041434
-0.05419
-0.036969
-0.0089051
0.012781
0.031596
0.045947
0.03064
0.034467
0.037018
0.032872
0.03925
0.052326
0.041164
0.0092728
0.004808
-0.012413
-0.024532
-0.032186
-0.036331
-0.043347
-0.050044
-0.049726
-0.058974
-0.01337
0.050731
0.061574
0.037337
0.041164
0.038294
0.037337
0.04531
0.067314
0.084854
0.094103
0.076244
0.03638
0.024899
0.044672
0.046904
0.0070404
-0.043028
-0.041753
-0.028996
-0.020067
-0.014008
-0.03665
-0.028359
0.034467
0.015013
0.028088
0.04531
0.035423
0.046585
0.047542
0.072736
0.072098
0.074968
0.05679
0.029364
-0.0041214
0.011824
0.012781
-0.013051
-0.049088
-0.060887
-0.094054
-0.11797
-0.099794
-0.073006
-0.070455
-0.048769
0.020116
-0.019748
-0.026126
0.018202
0.03925
0.023624
0.0079971
0.014694
0.0044891
0.0089539
0.017246
-0.01624
-0.013051
-0.0076295
-0.041434
-0.066309
-0.077152
-0.071411
-0.10649
-0.094054
-0.0864
-0.097562
-0.066947
-0.046218
0.0028946
0.0035324
0.0041702
0.016289
0.027132
0.029364
0.037018
0.037656
0.03638
0.047861
0.03351
0.031596
0.029045
0.028726
-0.015921
-0.046218
-0.047174
-0.034418
-0.042391
-0.051958
-0.030591
-0.0076295
0.015013
0.044353
0.063487
0.060298
0.045629
0.053601
0.074968
0.06859
0.07752
0.066677
0.05679
0.045947
0.0003433
-0.021343
-0.027721
-0.039839
-0.074601
-0.068541
-0.043028
-0.060569
-0.064077
-0.03665
-0.0015702
0.010867
0.012143
0.026494
0.0079971
0.041802
0.044034
0.028407
0.06285
0.056471
0.031278
0.0054459
-0.0105
0.0089539
0.010548
-0.0050782
-0.064395
-0.059612
-0.06025
-0.06025
-0.037926
-0.039839
-0.056742
-0.039839
-0.04845
-0.053234
-0.037607
-0.014008
-0.010181
0.0016189
0.023624
0.036699
0.05392
0.067952
0.05392
0.047542
0.020116
0.010548
0.029045
0.070503
0.08039
0.052645
0.059979
0.037975
-0.00061343
-0.018153
0.008635
0.0060837
0.014375
0.032234
0.012781
-0.019748
-0.033142
-0.026445
0.015651
0.020435
-0.01911
-0.043985
-0.027083
-0.010819
0.012781
0.018521
0.054239
0.031596
0.037337
0.041483
0.047542
0.048818
0.030002
0.03351
0.015013
0.008316
-0.014008
-0.073644
-0.041115
-0.021661
-0.041753
-0.073006
-0.066628
-0.056423
-0.067266
-0.072687
-0.034737
-0.019748
-0.026764
-0.0066727
0.025218
0.03925
0.055834
0.057428
0.065401
0.043077
0.044991
0.043715
0.022029
0.05105
0.084217
0.03638
0.011505
-0.023894
0.012143
0.057109
0.032872
0.0092728
-0.019748
-0.034737
-0.020067
-0.0069916
-0.016559
0.017883
0.014375
-0.024532
-0.013689
-0.040158
-0.06312
-0.06312
-0.014008
-0.038245
-0.056423
-0.067266
-0.096286
-0.09533
-0.074919
-0.054509
-0.032186
-0.038883
-0.041434
-0.062482
-0.043347
-0.03091
-0.002208
0.022986
0.049455
0.0076782
-0.016878
-0.017197
0.0070404
0.026813
0.026813
0.0054459
-0.028359
-0.031867
-0.0018891
0.014694
0.052963
0.066039
0.051688
0.088362
0.12823
0.13205
0.11802
0.11324
0.092827
0.066677
0.058066
0.055196
0.022348
0.012143
0.033829
-0.0095429
-0.055147
-0.10011
-0.1151
-0.1218
-0.13519
-0.12148
-0.087676
-0.081617
-0.072687
-0.03378
-0.031548
-0.028678
0.016608
0.0089539
-0.014327
-0.0018891
0.017883
0.042439
0.011824
0.01884
0.039569
0.013738
-0.0050782
-0.035694
0.018202
0.011824
-0.032186
-0.051958
-0.043985
-0.053552
-0.034737
-0.014964
0.02458
0.017564
-0.016878
-0.010181
0.0079971
0.016289
0.0038513
0.0092728
0.0044891
-0.03091
-0.025488
-0.029315
-0.027402
-0.05132
-0.053234
-0.064714
-0.06599
-0.030272
-0.025488
-0.013051
-0.002208
-0.00029452
0.031596
0.07146
0.062531
0.056471
0.05105
0.037975
0.0073593
-0.0041214
0.017246
0.0067215
0.032553
-0.015921
-0.034099
-0.046218
-0.055466
-0.062801
-0.022299
0.0041702
0.017883
0.041164
0.033829
0.029683
0.022029
0.073055
0.089319
0.10654
0.1075
0.089
0.046904
0.0131
0.041483
0.029683
0.0051269
0.0016189
0.02458
0.024899
-0.019748
-0.057379
-0.094054
-0.066947
-0.04271
-0.055147
-0.04271
-0.053871
-0.032186
-0.03091
-0.050363
-0.065352
-0.041115
-0.038564
-0.05132
-0.033142
-0.022618
-0.024851
-0.058017
-0.061525
-0.064395
-0.058017
-0.069179
-0.10011
-0.075876
-0.020705
-0.046536
0.0060837
0.024899
0.042758
0.052963
2.4388e-05
0.073374
0.081028
0.075925
0.044353
0.03064
-0.01911
-0.023894
-0.015283
-0.035375
-0.024213
-0.070136
-0.079384
-0.070774
-0.074919
-0.068222
-0.047812
-0.037607
-0.021024
2.4388e-05
0.03064
0.093784
0.066677
0.017883
0.066358
0.054558
0.042121
0.081346
0.063487
0.018202
-0.027402
2.4388e-05
0.0044891
0.020754
0.034148
0.017883
-0.005716
-0.032186
-0.035694
-0.036331
-0.041434
-0.044942
-0.03378
-0.041434
-0.06025
-0.059293
-0.031548
-0.041753
-0.031867
-0.033461
0.0079971
0.017883
0.03638
0.028407
0.026494
0.023305
-0.0066727
-0.011775
0.0051269
-0.014008
-0.0069916
-0.024532
-0.055785
-0.075238
-0.080979
-0.1336
-0.11255
-0.080341
-0.074282
-0.055466
-0.073006
-0.059612
-0.06025
-0.090227
-0.009224
0.019797
0.05392
0.063806
0.1413
0.14545
0.10718
0.064125
0.069547
0.10463
0.10622
0.1008
0.09793
0.040526
0.046585
0.034148
0.010867
-0.033142
-0.027721
-0.049088
-0.030591
-0.012413
-0.036012
0.052963
0.10718
0.078795
0.080071
0.080071
0.071779
0.056471
0.064444
0.082941
0.088044
0.040526
-0.012094
0.052007
0.019159
-0.059931
-0.094692
-0.1218
-0.12052
-0.11159
-0.086719
-0.074919
-0.078109
-0.041434
0.058066
0.077838
0.11483
0.10909
0.084536
0.075606
0.07433
0.062212
0.078157
0.063806
0.032872
0.037337
0.056471
-0.0012513
-0.037288
-0.087357
-0.087038
-0.12818
-0.15465
-0.1521
-0.13998
-0.12339
-0.0098618
0.03638
0.034786
0.030959
0.031596
0.026175
0.035104
0.049137
0.08326
0.088681
0.052963
0.0054459
0.023305
0.022348
0.0013
-0.047493
-0.086081
-0.13679
-0.16804
-0.13137
-0.079703
-0.064077
0.020116
0.096016
0.059661
0.063169
0.088362
0.074012
0.065082
0.072417
0.093784
0.096335
0.074649
0.07146
0.02458
-0.010819
-0.082573
-0.12276
-0.063439
-0.085762
-0.13392
-0.15752
-0.1454
-0.14476
-0.13998
-0.11415
-0.053552
-0.0060349
0.01884
0.033829
0.037975
0.11388
0.10431
0.13173
0.12472
0.043077
0.03638
0.040845
0.1295
0.14098
0.069228
0.030002
-0.024213
-0.027721
-0.046218
-0.08927
-0.10298
-0.12531
-0.12403
-0.13966
-0.11893
-0.10298
-0.069498
-0.062482
-0.086719
-0.063439
-0.05132
-0.041753
-0.04558
-0.058336
-0.054509
-0.074919
-0.061206
-0.043347
-0.064395
-0.028996
-0.064714
-0.034418
-0.03378
-0.039202
-0.036331
-0.045261
0.0016189
-0.032504
0.057747
0.053282
0.10813
0.12567
0.089957
0.10941
0.080071
0.077201
0.086768
0.12536
0.2105
0.21082
0.17351
0.10973
0.076563
0.022348
-0.017516
0.014375
0.066677
0.037975
0.03925
-0.080022
-0.13487
-0.12913
-0.12148
-0.15305
-0.10139
-0.062482
-0.09533
-0.10553
-0.11989
-0.092778
-0.063439
-0.061525
-0.045261
-0.055147
-0.03091
-0.012732
-0.031229
-0.018472
-0.016878
-0.016878
-0.066628
-0.065352
-0.046218
-0.036012
-0.034737
-0.059931
-0.056104
-0.074282
-0.062163
-0.023894
-0.0105
-0.04845
-0.053552
-0.024213
-0.034418
-0.034099
0.0067215
0.0079971
-0.010181
0.0022568
0.010867
0.045947
0.069866
0.077838
0.037337
-0.009224
-0.021024
-0.038564
-0.056742
-0.041753
-0.020386
-0.031867
-0.08927
-0.08927
-0.094373
-0.09246
-0.080979
0.0028946
0.16681
0.10686
0.081984
0.03638
0.075606
0.069866
0.052326
0.090595
0.11611
0.063487
-0.0105
-0.02517
2.4388e-05
-0.028678
-0.081298
-0.12339
-0.13456
-0.17857
-0.1808
-0.14476
-0.15784
-0.15305
-0.11797
-0.077152
-0.066947
-0.084168
-0.014008
0.060936
0.10176
0.052645
0.02777
0.023943
0.0073593
0.053282
0.089319
0.04818
0.045947
0.063806
-0.031548
0.012781
-0.051639
-0.10235
-0.15146
-0.10203
-0.11128
-0.12212
-0.11702
-0.094373
-0.082573
-0.021661
-0.0041214
0.034786
0.096016
0.13556
0.072736
0.035742
0.050412
0.062212
0.028726
0.037018
0.037337
0.028407
-0.011775
-0.072687
-0.092778
-0.064714
-0.10841
-0.15273
-0.16166
-0.13424
-0.087357
0.026494
0.18276
0.26344
0.19647
0.12025
0.091233
0.061574
0.071141
0.099843
0.078476
0.070503
0.091233
0.077201
0.044991
-0.054828
-0.14444
-0.22832
-0.28253
-0.23119
-0.22672
-0.22066
-0.15273
-0.169
-0.14221
-0.10585
-0.050363
-0.071093
-0.0015702
0.041164
0.018521
-0.017516
-0.058974
0.041483
0.012781
0.021072
0.012781
0.023305
-0.088633
-0.11829
-0.10968
-0.10777
-0.12307
-0.11861
-0.13296
-0.13105
-0.095011
-0.045261
-0.070136
-0.037926
-0.015602
0.0089539
-0.013689
-0.019748
0.056471
0.14927
0.15565
0.1193
0.057747
-0.031229
-0.051639
0.047861
0.098568
0.059979
0.011505
-0.062482
-0.097881
-0.075557
-0.095011
-0.094692
-0.11191
-0.059293
-0.073963
-0.10394
-0.070455
-0.046218
-0.028359
-0.015283
-0.058974
-0.074282
0.0003433
-0.028678
-0.045899
-0.073006
-0.059931
-0.075876
-0.082892
-0.083849
-0.13009
-0.18813
-0.17059
-0.13551
-0.10043
-0.032186
0.0013
-0.052596
-0.044304
0.014694
0.014056
0.059661
0.058704
0.11611
0.085173
0.10208
0.069866
0.031596
0.025537
-0.029634
-0.098838
-0.11861
-0.050363
-0.055466
-0.070774
-0.13519
-0.15337
-0.16708
-0.17601
-0.15337
-0.1556
-0.10107
-0.10266
-0.081617
-0.081298
-0.04558
-0.020067
0.064763
0.20732
0.25292
0.17351
0.091233
0.083579
0.096654
0.11706
0.11706
0.067633
0.043077
0.047223
0.026494
-0.031229
-0.11765
-0.191
-0.20567
-0.21524
-0.24139
-0.23501
-0.19706
-0.18749
-0.12116
-0.0034836
0.021391
0.042439
0.011824
-0.0076295
-0.0034836
0.024899
0.035742
0.063487
0.021072
0.018521
-0.0063538
0.023943
-0.034737
-0.094373
-0.10107
-0.14604
-0.16932
-0.13296
-0.11861
-0.15688
-0.15018
-0.14508
-0.12722
-0.12307
-0.14317
-0.11383
-0.044623
0.0089539
0.027451
0.10654
0.068271
0.069547
0.07146
0.059979
0.05105
0.058385
0.070185
0.0131
0.042439
0.089638
-0.014964
-0.055785
-0.05419
-0.086719
-0.11733
-0.15943
-0.1202
-0.10426
-0.077152
-0.061844
0.019159
0.050412
0.11451
0.2054
0.14545
0.07433
0.067314
0.14513
0.13939
0.036061
-0.019748
0.051369
0.074968
0.057428
-0.023256
-0.036969
-0.096605
-0.15497
-0.18431
-0.18431
-0.17761
-0.15815
-0.10617
-0.042072
0.20827
0.17096
0.038612
0.032234
0.061255
0.086768
0.083579
0.073693
-0.045261
-0.036331
0.072098
0.09793
0.030002
-0.07779
-0.17091
-0.22226
-0.22895
-0.24235
-0.2382
-0.20631
-0.19036
-0.18431
-0.17984
-0.15369
-0.0982
-0.02517
-0.029953
-0.082254
-0.057379
0.10303
0.083898
0.043715
0.030002
0.02171
0.054877
0.078795
-0.0044404
-0.025488
0.008635
0.013419
-0.013689
-0.032186
-0.059293
-0.08066
-0.11893
-0.14636
-0.10713
-0.11032
-0.1049
-0.09533
0.0038513
0.048499
0.016608
0.037656
0.050731
0.13843
0.25164
0.077838
0.022348
0.026175
0.13556
0.11037
0.11164
0.13205
0.047861
0.0060837
-0.0098618
-0.051001
-0.083211
-0.095968
-0.03091
0.10431
0.22422
0.06859
-0.026445
0.0079971
0.072736
0.050412
0.020754
-0.044942
0.00098112
0.0013
0.05679
-0.034418
-0.13934
-0.12435
-0.18845
-0.23501
-0.22321
-0.18399
-0.20312
-0.18654
-0.15497
-0.13774
-0.11574
-0.097881
-0.066628
-0.045261
-0.03091
-0.014327
2.4388e-05
-0.0012513
0.01597
0.070822
0.12855
0.06572
0.037975
0.052963
0.084217
0.08613
0.035104
0.004808
-0.011456
-0.026126
-0.017516
-0.021024
-0.04271
-0.065033
-0.013051
0.046904
0.082622
0.0099106
-0.023256
-0.0105
-0.021661
0.0060837
0.029683
0.0067215
-0.020705
-0.028996
0.028726
0.017883
0.034467
-0.073963
-0.11287
-0.095011
-0.090227
-0.09533
-0.11478
-0.088952
-0.092141
-0.063758
0.0022568
0.01884
-0.0076295
-0.045261
-0.030591
-0.0095429
0.050093
0.032234
-0.009224
-0.0034836
0.15055
0.099524
0.040207
-0.040477
0.026813
0.1295
0.13301
0.058066
-0.0028458
-0.027721
-0.053552
-0.075876
-0.034737
-0.052915
-0.10043
-0.12531
-0.10872
-0.10968
-0.094373
-0.073963
-0.057379
-0.002208
-0.02804
0.034148
0.03638
0.052645
0.030959
0.085173
0.081984
0.056153
0.008635
-0.026764
-0.026764
-0.020386
0.030002
-0.01624
-0.062801
-0.11446
-0.12307
-0.132
-0.12371
-0.12212
-0.10617
-0.071411
-0.0041214
-0.011456
0.10495
0.12504
0.030321
0.0076782
0.023624
0.01884
0.075606
0.024899
0.046266
-0.0073105
0.029045
0.058385
-0.031229
-0.14317
-0.16262
-0.098519
-0.10522
-0.13774
-0.14859
-0.15273
-0.11351
0.059661
0.11643
0.048499
-0.00061343
0.11196
0.19871
0.094103
0.035104
0.039569
-0.020386
0.1582
0.1464
0.062531
-0.0076295
-0.03378
-0.051001
-0.085443
-0.14795
-0.16581
-0.14954
-0.10458
-0.063439
-0.034737
-0.086719
-0.068541
-0.0076295
-0.0044404
0.035742
0.081665
0.075606
0.051688
0.046266
0.038612
0.018521
-0.049088
0.0092728
-0.071411
0.012143
0.038612
-0.028678
-0.06025
-0.10139
-0.13264
-0.12658
-0.14285
-0.1033
-0.074282
-0.094373
-0.056742
-0.066947
-0.043028
0.01597
0.0044891
0.12089
0.19265
0.075287
0.086449
0.097292
0.089638
0.15406
0.14226
0.045629
-0.011775
0.066995
0.059342
-0.04558
-0.039839
-0.056104
-0.068541
-0.12786
-0.13806
-0.10107
-0.076195
-0.019429
0.031278
0.064125
-0.00061343
0.0019378
0.069547
0.10048
0.091233
0.063806
0.010867
0.027132
0.098886
0.090595
-0.031548
-0.049726
-0.071411
-0.048769
-0.044304
-0.078427
-0.10713
-0.11893
-0.10298
-0.067903
-0.068541
-0.06025
0.034148
0.13747
-0.017835
-0.027721
-0.029315
-0.047493
-0.016878
0.010548
0.015013
0.030002
0.048818
-0.022618
-0.042072
-0.074601
-0.10777
-0.11478
-0.10266
-0.055785
-0.0069916
0.024899
-0.012094
-0.042391
-0.014327
-0.016559
0.012781
0.012143
0.027132
0.049774
0.032872
0.0092728
0.0028946
0.0025757
0.0057648
-0.028996
-0.033142
-0.014645
-0.019748
-0.019429
0.020435
0.049137
0.072098
0.057109
0.11547
0.070185
0.075606
0.15342
0.11356
0.082941
0.10495
0.16235
0.19743
0.20763
0.13779
0.148
0.13524
0.19009
0.092508
0.041802
0.049455
0.061893
0.017564
-0.094373
-0.081298
-0.11606
-0.11574
-0.14986
-0.16071
-0.18494
-0.13774
-0.21237
-0.23055
-0.20982
-0.17282
-0.12307
-0.097562
-0.065033
-0.018153
0.096973
0.17192
0.148
0.11069
0.086449
0.041164
0.072417
-0.017197
0.011824
0.0016189
0.068909
0.093465
0.070503
-0.026445
-0.064714
-0.14285
-0.14604
-0.12531
-0.10777
-0.09533
-0.088952
-0.078427
-0.073006
-0.062163
-0.050363
-0.038245
-0.020705
0.0076782
0.015332
0.018202
0.064444
0.091552
0.089319
0.032553
0.022029
0.048499
0.089319
0.031278
0.038612
0.057428
2.4388e-05
0.022348
0.029045
-0.019748
0.1008
0.1244
0.15151
0.19711
0.11037
0.061574
0.089638
0.059023
0.050093
0.081665
0.06859
0.11292
0.099524
-0.0089051
-0.054828
-0.055466
-0.071411
-0.096924
-0.034099
0.0019378
-0.053871
-0.055466
-0.0105
-0.036969
-0.0060349
0.03064
-0.014964
-0.029953
-0.10011
-0.05132
-0.066309
-0.091184
-0.079065
-0.029315
-0.1151
-0.13615
-0.12882
-0.12626
-0.12276
-0.11733
-0.10617
-0.054509
-0.051958
-0.076833
-0.048131
-0.032504
-0.059612
-0.023256
-0.0053971
-0.02198
-0.033461
-0.022618
0.11993
0.089957
-0.05419
-0.010819
0.063806
0.089638
0.034148
0.032872
0.027451
-0.022299
-0.0028458
0.0019378
-0.029315
-0.027083
-0.053234
-0.014327
0.0073593
-0.087357
-0.0063538
0.041164
-0.0047593
-0.0047593
0.071141
0.059023
0.025537
-0.0085862
-0.041434
0.014375
0.034467
0.0131
0.022029
-0.0028458
-0.030272
-0.099794
-0.063758
-0.058336
-0.059293
-0.10553
-0.10936
-0.11446
-0.099794
-0.092778
-0.081298
-0.0864
-0.095011
-0.076514
-0.060887
-0.088952
-0.056423
-0.038564
-0.0105
-0.023894
-0.015283
0.046266
0.022348
-0.017835
-0.012732
-0.011775
0.034467
0.049455
-0.017835
-0.050682
-0.005716
0.0067215
0.12823
0.096016
0.040207
0.072098
0.057747
0.11037
0.044353
0.05105
0.086449
0.12759
0.03638
0.04531
0.090595
0.066995
-0.018472
-0.024532
-0.082573
-0.077152
-0.035375
-0.049726
-0.055147
-0.069817
-0.13232
-0.085443
-0.082573
-0.088633
-0.13647
-0.096924
-0.054509
-0.02198
-0.074282
-0.067585
-0.10809
-0.091184
-0.061206
-0.085762
-0.069498
-0.029634
-0.029315
-0.072049
-0.074919
-0.087995
-0.06025
-0.050682
-0.074601
-0.060887
-0.0018891
-0.032504
-0.028996
0.0057648
0.033829
0.072417
0.062212
0.054239
0.089319
0.1547
0.1228
0.089638
0.038612
0.070185
0.11866
0.10208
0.0070404
0.00066221
0.020116
0.040526
0.034786
-0.039202
-0.066947
-0.047174
-0.024213
-0.0082673
-0.020386
-0.032823
0.019159
-0.010181
-0.06025
-0.051639
0.011505
-0.0085862
0.00066221
-0.0018891
0.0019378
-0.0031647
0.0003433
-0.021343
-0.028678
0.0025757
0.012143
0.01884
-0.045261
0.094422
0.044034
-0.028359
-0.077471
-0.079703
-0.0085862
-0.011137
-0.065033
-0.029315
-0.032504
-0.055147
-0.043666
-0.052277
-0.047174
-0.045261
-0.054509
-0.038564
-0.035375
-0.037607
-0.03952
-0.036012
-0.030591
0.0044891
0.078157
0.041802
0.068909
0.13205
0.097292
0.054877
-0.005716
0.04531
0.15183
0.13205
0.051688
0.066677
0.055196
0.031278
0.054239
0.037975
-0.03665
-0.0063538
-0.0098618
-0.061844
-0.024851
-0.074919
-0.042072
0.031278
0.034148
-0.030272
-0.033461
-0.021343
-0.036331
0.07752
0.0022568
-0.012413
-0.040477
0.023943
0.01597
0.0099106
0.015651
-0.002208
-0.03952
-0.0864
0.016608
0.04531
-0.023575
-0.056423
-0.06025
-0.057379
-0.076195
-0.10617
-0.085125
-0.059931
-0.035375
-0.068222
-0.038245
-0.018153
-0.03665
-0.044304
-0.041115
-0.005716
0.023305
0.0028946
0.029364
0.038612
0.0038513
0.00066221
0.012781
0.022986
-0.034418
-0.0015702
-0.0060349
0.024899
0.071779
0.045629
0.074968
0.025537
0.08613
0.056471
0.00066221
0.034467
0.032553
0.049455
0.01023
-0.012413
0.01884
-0.020386
-0.026445
-0.040158
-0.032186
-0.017516
-0.041434
-0.050044
-0.040796
-0.023256
0.011186
0.0079971
0.0070404
0.019159
-0.0050782
0.0054459
-0.0066727
-0.014964
-0.045899
-0.009224
0.10622
0.044034
0.008316
-0.029634
-0.025488
-0.012413
-0.0050782
-0.048769
-0.012732
0.028407
-0.024213
-0.034737
-0.057698
-0.074919
-0.078427
-0.066628
-0.069817
-0.072687
-0.084487
-0.074282
-0.054828
-0.012413
-0.021024
-0.02804
0.034786
0.024262
-0.00029452
-0.02198
0.0079971
-0.0069916
-0.024532
-0.02198
-0.017835
0.004808
-0.0085862
-0.059293
-0.043666
-0.042391
-0.054828
-0.051639
-0.076833
-0.054828
-0.043028
-0.032823
0.020116
0.10718
0.17287
0.075287
0.037656
0.057747
0.044991
0.043715
0.024899
0.11643
0.1346
0.018521
0.073374
0.052326
-0.045261
-0.063439
-0.062163
-0.075238
-0.0864
-0.10936
-0.10777
-0.11032
-0.098838
-0.11032
-0.07779
-0.074919
-0.060887
-0.042391
0.034786
0.054558
0.0095917
0.038612
0.092189
0.12886
0.058066
0.0073593
-0.04845
0.029045
0.03638
0.025856
-0.0073105
-0.01337
-0.0085862
-0.061206
-0.092141
-0.10171
-0.12371
-0.1202
-0.11159
-0.11351
-0.093097
-0.091503
-0.094692
-0.092778
-0.078427
-0.064077
-0.056742
-0.055466
0.0025757
0.046266
0.05392
0.066358
0.052007
0.034467
0.042439
0.042439
0.06285
0.072098
0.090276
0.081984
0.008316
-0.021024
-0.0082673
-0.0038025
0.0073593
-0.026126
0.022029
-0.0047593
0.011186
0.041802
0.14353
0.070822
0.067314
0.082303
0.14321
0.11101
0.008635
-0.0079484
0.030321
0.10048
0.063487
0.015651
-0.099157
-0.12467
-0.08927
-0.087357
-0.12148
-0.16198
-0.18239
-0.17761
-0.15943
-0.169
-0.15528
-0.14923
-0.14508
-0.12563
-0.099476
-0.081935
-0.076514
-0.060887
-0.037607
0.046904
0.029045
0.011505
0.011824
-0.02198
0.013738
0.0070404
0.02171
2.4388e-05
-0.020705
-0.012413
0.0016189
-0.049407
-0.054509
-0.056423
-0.056104
-0.059293
-0.049088
-0.044623
-0.035375
-0.016878
0.020754
0.052007
0.037975
0.03638
0.05679
0.14353
0.1059
0.077201
0.071141
0.11834
0.10654
0.068271
0.036699
0.027132
0.093784
0.087725
0.043396
0.0003433
-0.035375
-0.068222
-0.059293
-0.012094
0.084536
0.0003433
-0.02804
-0.035694
-0.0050782
0.012462
-0.016878
0.027451
0.14417
0.022667
-0.0031647
0.0038513
-0.035694
-0.039839
-0.023575
-0.067266
-0.09533
-0.072049
-0.073006
-0.099157
-0.061525
-0.041753
-0.083849
-0.10075
-0.10266
-0.039202
-0.070774
-0.081935
-0.069817
-0.031229
-0.044942
-0.090227
-0.067585
-0.048131
-0.011137
0.029045
-0.024213
-0.038883
-0.026126
-0.015921
0.028088
0.016608
-0.018153
-0.035375
-0.0038025
0.0076782
0.014056
-0.020067
-0.047493
-0.062482
-0.08066
-0.069498
-0.056742
-0.062163
-0.058655
-0.0105
-0.026445
0.05679
0.1649
0.18563
0.19296
0.21019
0.16203
0.17957
0.16076
0.1547
0.14545
0.16554
0.11675
0.05679
0.049455
0.049137
-0.020386
-0.086081
-0.13169
-0.1623
-0.18941
-0.19706
-0.18335
-0.18686
-0.1639
-0.14285
-0.13838
-0.11096
-0.093097
-0.081935
-0.084168
-0.078427
-0.098838
-0.058336
-0.031867
-0.056742
-0.047493
-0.053234
-0.059931
-0.065671
-0.080979
-0.082573
-0.08927
-0.10426
-0.097562
-0.086081
-0.079065
-0.075876
-0.033142
-0.009224
-0.025488
0.0067215
0.093465
0.047542
0.035742
0.012143
0.016608
0.052963
0.073055
0.03638
0.035742
0.0022568
-0.0038025
0.0131
-0.017835
-0.069498
-0.050363
-0.027721
-0.045261
-0.055785
-0.050682
-0.057698
-0.064395
-0.06025
-0.053234
-0.035056
-0.0089051
0.028726
0.13492
0.13397
0.16139
0.16267
0.207
0.20094
0.14003
0.17638
0.25164
0.19998
0.10941
0.10813
0.079114
0.07146
0.013419
-0.049407
-0.071411
-0.10585
-0.14572
-0.17219
-0.19164
-0.17506
-0.17984
-0.1572
-0.10362
-0.10171
-0.083211
-0.090546
-0.07779
-0.066947
-0.066947
-0.071411
-0.054509
-0.029634
-0.0073105
-0.024213
-0.066947
-0.065033
-0.054828
-0.080979
-0.08066
-0.061844
-0.053871
-0.070136
-0.094054
-0.069817
-0.039839
0.025218
0.030959
0.0073593
-0.0044404
0.0070404
0.035104
0.056471
0.067633
0.081984
-0.002208
-0.050044
0.10271
0.084536
-0.010181
-0.043347
-0.05132
-0.056423
-0.089589
-0.10203
-0.10235
-0.089908
-0.077471
-0.085762
-0.079384
-0.062482
-0.014645
0.012143
0.012781
0.03925
0.024899
0.0092728
0.0092728
0.020116
0.040207
0.066995
0.049774
0.018521
-0.0063538
0.030959
0.032234
0.013419
-0.032504
0.0057648
0.024262
-0.0073105
-0.010181
-0.015283
-0.0076295
-0.00093234
0.0095917
0.029045
0.013738
0.069866
0.055196
0.047542
0.0089539
-0.0066727
0.0089539
0.037975
0.035104
0.050412
-0.002208
-0.014327
-0.0076295
-0.058336
-0.037926
-0.04558
-0.037607
-0.051958
-0.089908
-0.086719
-0.071411
0.023305
-0.012732
-0.034737
-0.05132
-0.033461
-0.022299
-0.047493
-0.052277
-0.028996
-0.044623
-0.055466
-0.076833
-0.075876
-0.087995
-0.091503
-0.11893
-0.092778
-0.095968
-0.085125
-0.050044
-0.046218
-0.028678
-0.014645
0.0073593
0.03638
0.019797
0.0022568
-0.021661
-0.011456
0.008316
-0.04845
0.013738
0.018521
-0.011775
-0.038564
-0.043985
-0.039839
-0.060569
-0.060569
-0.025488
-0.02198
-0.02804
-0.019748
-0.00093234
0.02171
0.013419
0.062212
0.10526
0.080071
0.081984
0.10495
0.099524
0.18148
0.16394
0.12599
0.11164
0.10239
0.044353
0.041164
0.059979
-0.00093234
-0.012094
-0.042072
-0.067266
-0.087676
-0.10553
-0.1151
-0.11893
-0.088314
-0.038883
0.015332
0.0060837
0.0092728
0.025218
0.041802
0.022986
0.041483
0.058066
0.055515
0.014694
0.0028946
0.014056
0.025537
-0.023894
-0.073325
-0.062801
-0.072049
-0.091822
-0.094054
-0.078427
-0.047174
-0.046218
-0.047174
-0.0082673
0.026175
0.055834
0.029045
-0.015921
0.0099106
0.093465
0.1008
0.060298
0.064444
0.045947
0.0089539
0.034467
0.012462
-0.013051
-0.034099
-0.028678
-0.044623
-0.0864
-0.10936
-0.13392
-0.12052
-0.094054
-0.087676
-0.10809
-0.10649
-0.08353
-0.066947
-0.044942
-0.051639
-0.036012
-0.027402
-0.022618
-0.0047593
0.015651
0.032872
-0.00029452
-0.0105
-0.00061343
0.039569
0.026813
0.019797
0.056153
0.032553
0.016927
0.027451
0.02171
0.024899
0.061255
0.032872
0.028726
0.040207
0.050731
-0.0069916
-0.0063538
0.11738
0.1767
0.10941
0.10813
0.14481
0.1346
0.10686
0.15119
0.13556
0.10782
0.07752
0.080071
0.042439
-0.018472
-0.035056
-0.047174
-0.060887
-0.10426
-0.11542
-0.13998
-0.13137
-0.10011
-0.059293
-0.051001
-0.058017
-0.04845
-0.025488
0.018521
0.022986
0.0060837
-0.025807
-0.0060349
0.01023
0.032872
0.01597
-0.082254
-0.082573
-0.043666
-0.050044
-0.079384
-0.080979
-0.088952
-0.10968
-0.10011
-0.093735
-0.067585
-0.079065
-0.077152
-0.078109
-0.079703
-0.060887
-0.00061343
0.016608
0.012462
0.026175
0.017564
-0.0015702
-0.022937
-0.019748
0.0016189
0.036061
0.048818
0.015651
-0.019429
-0.040158
-0.054509
-0.051639
-0.044942
-0.030591
-0.01911
-0.034418
-0.018153
-0.012094
-0.017516
0.0076782
0.008316
0.0022568
0.0054459
-0.011456
0.0051269
0.029683
0.048499
0.037337
0.11738
0.077201
0.04818
0.05392
0.14226
0.17734
0.15214
0.1598
0.14864
0.11037
0.086768
0.13014
0.13237
0.067633
-0.047812
0.030321
0.021072
-0.023256
-0.055785
-0.11702
-0.1757
-0.17155
-0.13902
-0.11096
-0.10617
-0.15114
-0.16294
-0.15178
-0.12722
-0.12754
-0.1202
-0.10649
-0.063758
0.026175
0.01597
-0.02198
-0.023256
-0.027721
-0.019429
0.0044891
0.028726
0.046266
0.037337
0.03925
-0.0085862
-0.036331
-0.058017
-0.065033
-0.053871
-0.066947
-0.072049
-0.076514
-0.072687
-0.061844
-0.057061
-0.049407
-0.043028
-0.027721
-0.022937
-0.012732
-0.0073105
-0.0098618
0.022029
0.085811
0.14896
0.11866
0.12025
0.14991
0.16426
0.16777
0.14991
0.15948
0.18435
0.17861
0.18499
0.11037
0.090595
0.046904
0.00066221
-0.005716
-0.047493
-0.090865
-0.12722
-0.13296
-0.14572
-0.15624
-0.15528
-0.11478
-0.082254
-0.080022
-0.081935
-0.072687
-0.05419
-0.035375
0.015651
2.4388e-05
-0.0041214
-0.011775
-0.010819
-0.054828
-0.046218
-0.030272
-0.038245
-0.066309
-0.078427
-0.04271
-0.053552
-0.069179
-0.096286
-0.089589
-0.050044
-0.036012
-0.020386
2.4388e-05
0.008635
0.013738
0.00066221
0.031915
0.050093
0.065082
0.072417
0.07433
0.066039
0.047223
0.060936
-0.0015702
0.018521
0.049137
0.025537
-0.023575
-0.044942
-0.058336
-0.056423
-0.053552
-0.071411
-0.070774
-0.052277
-0.056104
-0.050682
-0.035694
-0.0050782
0.022029
0.08039
0.1346
0.14832
0.1228
0.1311
0.1295
0.1193
0.11005
0.12918
0.14768
0.11324
0.09793
0.062531
0.039888
0.0067215
-0.014327
-0.014964
-0.064714
-0.10649
-0.11702
-0.12148
-0.12595
-0.12116
-0.11861
-0.11893
-0.10872
-0.077152
-0.031548
0.0076782
0.010867
0.016608
0.016927
0.021391
0.010548
0.0057648
0.020754
0.03638
0.052326
0.030321
-0.0060349
-0.029634
-0.02517
-0.036012
-0.056742
-0.06312
-0.065671
-0.044623
-0.028678
0.0025757
0.012143
0.0028946
0.060936
0.10335
0.078157
0.066358
0.045629
0.031915
0.022986
0.04531
0.089957
0.083898
0.059023
-0.0073105
-0.0098618
-0.018791
-0.03091
-0.031548
-0.050363
-0.079065
-0.071411
-0.068222
-0.070774
-0.074919
-0.069179
-0.082573
-0.074601
-0.069179
-0.066628
-0.037288
-0.0089051
-0.0047593
-0.0015702
0.020435
0.0019378
0.0089539
0.044672
0.070822
0.065401
0.049455
0.026175
0.0025757
-0.005716
0.018202
0.034786
0.018521
0.013738
0.0016189
-0.018153
-0.01337
0.00066221
-0.0012513
-0.016559
-0.017516
-0.017197
-0.013689
0.014056
0.023305
0.0070404
0.013419
0.052007
0.068271
0.12759
0.19679
0.18148
0.16841
0.16586
0.13843
0.12249
0.13939
0.17351
0.17128
0.1244
0.071779
0.0079971
-0.002208
0.037337
0.037337
-0.01624
-0.047493
-0.0864
-0.10171
-0.086081
-0.057698
-0.058655
-0.048769
-0.041434
-0.099794
-0.068541
-0.078746
-0.062482
-0.072049
-0.073963
-0.064077
-0.10107
-0.084806
-0.078746
-0.076833
-0.063439
-0.051639
-0.047493
-0.051001
-0.053552
-0.051958
-0.042391
-0.036012
-0.030591
-0.048131
-0.043985
-0.0063538
0.016289
0.06572
0.072736
0.062212
0.065082
0.088681
0.086768
0.082941
0.084536
0.08326
0.10239
0.082303
0.046266
0.043396
0.044353
0.012143
-0.002208
-0.015283
-0.026445
-0.032186
-0.042391
-0.040477
-0.027402
-0.020705
-0.029953
-0.027402
-0.017516
-0.013689
-0.017835
-0.028359
-0.023894
-0.009224
0.015013
0.058066
0.083579
0.11101
0.11037
0.14545
0.12599
0.15246
0.1413
0.10654
0.098568
0.13397
0.11037
0.12472
0.16171
0.049137
0.013738
-0.005716
-0.034737
-0.058017
-0.050682
-0.042072
-0.028359
-0.022937
-0.018153
-0.01624
-0.002208
-0.0076295
-0.012094
-0.0073105
-0.0034836
0.0131
0.01023
-0.009224
-0.02198
-0.0041214
-0.0079484
-0.020386
-0.022937
-0.02804
-0.058336
-0.058655
-0.072687
-0.052277
-0.050363
-0.060887
-0.070774
-0.086081
-0.081617
-0.077152
-0.064714
-0.045261
-0.027402
-0.010181
-0.0069916
0.013419
0.0051269
0.0054459
0.020116
0.035742
0.032553
0.040845
0.049774
0.032234
0.0016189
-0.016559
-0.005716
0.012462
0.0064026
-0.0044404
-0.017197
-0.012413
-0.011775
-0.0095429
0.0028946
0.0044891
0.0038513
0.0041702
0.0092728
0.021072
0.041802
0.052007
0.080071
0.10144
0.10048
0.10973
0.1059
0.10622
0.10144
0.10877
0.11164
0.10112
0.09793
0.063169
0.057747
0.056471
0.02171
-0.016878
-0.055466
-0.059612
-0.067903
-0.071093
-0.081298
-0.091184
-0.08066
-0.066947
-0.064077
-0.055466
-0.046536
-0.049407
-0.041115
-0.030272
-0.028996
-0.031548
-0.029315
-0.022937
-0.025488
-0.015921
-0.019429
-0.02198
-0.0105
0.0019378
0.0079971
0.018202
0.054877
0.043077
0.048818
0.065401
0.081346
0.070822
0.057428
0.060617
0.046904
0.048818
0.059661
0.078157
0.052326
0.01884
0.0099106
2.4388e-05
0.019159
0.011824
-0.0089051
-0.019429
-0.021024
-0.034737
-0.032504
-0.048769
-0.049088
-0.04271
-0.033461
-0.037926
-0.027721
0.048818
0.1346
0.13524
0.099843
0.09793
0.096016
0.094103
0.11005
0.13046
0.11579
0.1126
0.058066
0.028407
0.046904
0.024899
-0.015921
-0.054828
-0.088952
-0.1167
-0.12244
-0.10522
-0.092778
-0.094373
-0.098838
-0.094692
-0.089589
-0.097881
-0.086719
-0.068541
-0.075876
-0.075557
-0.056742
-0.051001
-0.053871
-0.049407
-0.041753
-0.034418
-0.023256
-0.0085862
-0.014645
-0.012732
-0.0047593
-0.0044404
-0.005716
-0.0028458
-0.0060349
-0.009224
-0.010819
-0.0047593
-0.0038025
0.0041702
0.008635
0.01023
0.010548
0.014375
0.020116
0.023305
0.021072
0.026175
0.020435
0.020116
0.018202
0.011824
0.0064026
0.016927
0.015651
0.013738
0.0131
0.015332
0.019478
0.021391
0.027451
0.028407
0.028407
0.027451
0.025218
0.022986
0.024262
0.017246
0.0067215
0.0044891
0.015651
0.01884
0.01023
0.0095917
0.012143
0.0131
0.018202
0.02171
0.013419
0.021072
0.022348
0.014375
0.015651
0.0092728
0.0051269
0.0016189
0.0003433
0.0032135
0.0035324
0.0016189
0.0060837
0.019797
0.012781
0.016608
0.027132
0.023305
0.019478
0.027451
0.028726
0.022348
0.035742
0.022667
0.01597
0.023624
0.020754
0.024899
0.031915
0.029045
0.030959
0.020435
0.015332
0.035423
0.027451
0.014694
0.0089539
-0.0015702
0.0028946
-0.023256
-0.034418
-0.027721
-0.020705
-0.027402
-0.040477
-0.039202
-0.038883
-0.034099
-0.031548
-0.022618
-0.022618
-0.026445
-0.020705
-0.018791
-0.023256
-0.023894
-0.022618
-0.029315
-0.021343
-0.01624
-0.012413
-0.014645
-0.014645
-0.0053971
-0.0050782
0.0016189
0.013738
0.012143
0.0070404
0.0073593
0.0073593
0.0099106
0.0057648
-0.00029452
-0.0044404
0.0016189
0.0032135
-0.002208
-0.005716
0.0054459
0.0089539
0.012781
0.01884
0.015332
0.0095917
0.017246
0.021072
0.012143
0.0099106
0.010548
0.0076782
0.0013
0.010548
0.01597
0.012781
0.016289
0.010548
0.015013
0.022986
0.027451
0.024899
0.025537
0.028726
0.023305
0.020754
0.01597
0.010867
0.0054459
0.0038513
0.0051269
0.011505
0.0073593
0.008316
0.0131
0.011505
0.016289
0.023305
0.01884
0.018521
0.023943
0.018202
0.015332
0.011824
0.0089539
0.0022568
0.010548
0.011186
0.0060837
0.0051269
0.0051269
0.0099106
0.015013
0.019478
0.021391
0.014694
0.014694
0.019478
0.014056
0.011186
0.0070404
0.0028946
-0.0018891
0.0022568
0.0041702
0.0003433
0.0054459
0.008635
0.0076782
0.010867
0.024899
0.013738
0.013738
0.016927
0.019159
0.016608
0.0022568
-0.0050782
0.00098112
0.0051269
0.0067215
0.0032135
0.0041702
0.0019378
0.0013
0.004808
0.010548
0.017883
0.013419
0.011824
0.017246
0.012143
0.0092728
0.0064026
0.0016189
-0.0028458
0.0038513
0.0067215
0.0070404
0.0038513
0.0044891
0.0095917
0.013738
0.017883
0.021072
0.01884
0.016927
0.02171
0.016608
0.012143
0.011186
0.0032135
-0.00029452
0.0016189
0.0057648
0.008635
0.01023
0.010548
0.0099106
0.015013
0.021391
0.017246
0.018202
0.022029
0.022029
0.019797
0.016927
0.012143
0.0057648
0.008316
0.012462
0.013738
0.014375
0.013738
0.018202
0.018521
0.026813
0.033191
0.027451
0.020116
0.028088
0.029364
0.02171
0.020116
0.021391
0.013738
0.019478
0.022029
0.017883
0.016289
0.020754
0.027132
0.02777
0.035742
0.037337
0.032553
0.031915
0.034467
0.030321
0.028726
0.025537
0.019159
0.015651
0.023943
0.027132
0.022029
0.024899
0.025856
0.030002
0.035104
0.042121
0.034467
0.031596
0.034467
0.037656
0.038612
0.032872
0.025856
0.020754
0.01884
0.025218
0.024899
0.019478
0.022986
0.031278
0.029364
0.033829
0.038612
0.032553
0.031596
0.035104
0.031278
0.029683
0.026813
0.019797
0.013738
0.023943
0.023624
0.02171
0.020116
0.020435
0.027132
0.029045
0.034467
0.03638
0.033191
0.032872
0.035104
0.032234
0.029364
0.025856
0.017883
0.0131
0.020754
0.025537
0.020754
0.016927
0.01884
0.022348
0.028726
0.036061
0.027132
0.025537
0.030002
0.032234
0.027451
0.024262
0.021072
0.015332
0.015013
0.020116
0.022986
0.01884
0.019797
0.022986
0.023305
0.032234
0.038612
0.030002
0.030002
0.032872
0.030002
0.028407
0.023943
0.01884
0.0131
0.021391
0.022348
0.019478
0.016608
0.01884
0.023305
0.026494
0.03064
0.032553
0.03064
0.029683
0.031596
0.028407
0.028088
0.021391
0.015651
0.014375
0.022986
0.025856
0.020116
0.020116
0.016289
0.023624
0.031915
0.03638
0.027132
0.025856
0.031596
0.031596
0.028088
0.021391
0.014694
0.0070404
0.01023
0.017883
0.019478
0.012781
0.012781
0.017246
0.019478
0.025537
0.031596
0.02458
0.024899
0.03064
0.029045
0.022986
0.017246
0.014694
0.012143
0.018521
0.016289
0.015332
0.015013
0.017564
0.022029
0.023305
0.030959
0.031915
0.027451
0.026494
0.029683
0.028407
0.023943
0.019478
0.010548
0.0076782
0.017246
0.020754
0.015651
0.015013
0.018521
0.021072
0.02458
0.033829
0.027132
0.024262
0.025218
0.023305
0.023943
0.020754
0.015332
0.008635
0.0092728
0.012781
0.016289
0.012462
0.014375
0.016608
0.017564
0.023943
0.031278
0.026494
0.029683
0.029683
0.027132
0.022029
0.022348
0.01884
0.0131
0.017564
0.01884
0.014056
0.013419
0.018521
0.022667
0.026494
0.029364
0.027132
0.023624
0.027451
0.03064
0.027451
0.022986
0.018202
0.011186
0.008316
0.017246
0.020435
0.015651
0.01597
0.019159
0.022986
0.026175
0.034148
0.029045
0.02777
0.031915
0.030002
0.028726
0.024899
0.020754
0.014375
0.015013
0.01884
0.020754
0.017883
0.021391
0.022986
0.022986
0.028726
0.035742
0.029683
0.029045
0.034467
0.028726
0.025218
0.023943
0.018202
0.012143
0.020116
0.021072
0.018202
0.016927
0.019478
0.023943
0.024899
0.032234
0.035104
0.030002
0.030959
0.033191
0.028726
0.026175
0.02458
0.017883
0.013419
0.021072
0.022348
0.017883
0.017883
0.01884
0.024899
0.026494
0.034786
0.030321
0.03064
0.030959
0.02458
0.026175
0.024899
0.019159
0.010548
0.0131
0.017883
0.017883
0.013738
0.015332
0.019478
0.020116
0.024899
0.032553
0.027451
0.026175
0.03064
0.029045
0.022667
0.016927
0.010548
0.0099106
0.01597
0.016927
0.014694
0.012143
0.0131
0.014056
0.019478
0.025218
0.025856
0.022986
0.023624
0.025856
0.022667
0.015651
0.0131
0.008635
0.0095917
0.0099106
0.013738
0.015651
0.0092728
0.008635
0.012781
0.020435
0.028088
0.018521
0.019797
0.023305
0.021391
0.015332
0.013419
0.0095917
0.0032135
0.0025757
0.0076782
0.011186
0.0064026
0.0099106
0.011824
0.012143
0.019797
0.025218
0.01884
0.017883
0.023305
0.021072
0.016289
0.012781
0.0057648
2.4388e-05
0.0076782
0.0095917
0.0073593
0.0038513
0.0054459
0.012143
0.013419
0.019797
0.020435
0.018521
0.016608
0.017246
0.013738
0.015332
0.010867
0.0038513
0.0003433
0.0095917
0.01023
0.0054459
0.0054459
0.0079971
0.013738
0.016927
0.023305
0.019797
0.017246
0.020116
0.019478
0.017564
0.013738
0.0076782
0.0038513
0.0019378
0.0076782
0.0092728
0.0035324
0.0079971
0.012462
0.0095917
0.01597
0.022986
0.013738
0.013419
0.021072
0.017883
0.013419
0.0070404
0.0019378
-0.0025269
0.0054459
0.0064026
0.0057648
0.0013
0.0041702
0.0095917
0.014056
0.017246
0.020116
0.016608
0.015651
0.019478
0.016289
0.012143
0.0099106
0.0038513
-0.00093234
0.0079971
0.008635
0.0041702
0.0044891
0.0073593
0.010867
0.015013
0.021391
0.01597
0.015332
0.017564
0.017564
0.013419
0.0131
0.0076782
0.0003433
0.0016189
0.0038513
0.0060837
0.00098112
0.0022568
0.01023
0.012143
0.015013
0.022029
0.012781
0.014375
0.020435
0.019159
0.014694
0.0095917
0.0076782
0.0022568
0.0095917
0.0089539
0.0060837
0.004808
0.01023
0.011824
0.014056
0.021391
0.023943
0.018202
0.01597
0.017883
0.01597
0.011505
0.0079971
0.0013
-0.0031647
0.0060837
0.0070404
0.0035324
0.0019378
0.0051269
0.01023
0.012781
0.020754
0.01597
0.012781
0.014694
0.016608
0.014375
0.011824
0.0067215
-0.00061343
-0.0015702
0.00066221
0.0035324
0.0022568
0.0041702
0.008635
0.0067215
0.010867
0.020754
0.014375
0.0131
0.019478
0.016289
0.012462
0.0051269
0.00098112
-0.0031647
0.0019378
0.0044891
0.0025757
0.0016189
0.0025757
0.0041702
0.0060837
0.013419
0.016608
0.011505
0.008316
0.013419
0.008635
0.0076782
0.0041702
-0.0031647
-0.0076295
0.0022568
0.0022568
-0.0028458
-0.0034836
0.00098112
0.0060837
0.0092728
0.017564
0.010867
0.0092728
0.013738
0.012462
0.0099106
0.0054459
0.0035324
-0.0031647
-0.0031647
0.0028946
0.0054459
0.0013
0.0041702
0.008635
0.008635
0.01597
0.024262
0.016289
0.013419
0.017564
0.018202
0.014694
0.011186
0.0025757
2.4388e-05
0.0054459
0.0073593
0.0013
-0.002208
0.0013
0.0057648
0.0089539
0.014375
0.017246
0.010867
0.0092728
0.0131
0.0089539
0.0041702
0.0022568
-0.0034836
-0.0076295
0.0016189
0.0035324
-0.0025269
-0.0025269
0.0019378
0.0054459
0.008635
0.017246
0.0131
0.011824
0.0131
0.015651
0.012462
0.0070404
0.0035324
-0.0028458
-0.0012513
0.0038513
0.0051269
0.00098112
0.0041702
0.0079971
0.0067215
0.011505
0.021072
0.015332
0.0131
0.017883
0.015013
0.0131
0.0095917
0.0032135
0.0028946
0.0099106
0.0089539
0.0044891
0.0064026
0.0131
0.019478
0.017246
0.022029
0.025218
0.025218
0.02171
0.025218
0.022986
0.014375
0.0044891
0.0054459
0.00098112
0.0054459
0.0057648
-0.00061343
0.0025757
0.0032135
0.0067215
0.0099106
0.017564
0.011824
0.010548
0.014375
0.015332
0.0131
0.0092728
0.0067215
0.0028946
2.4388e-05
0.0051269
0.008635
0.0022568
0.0079971
0.0095917
0.012462
0.023305
0.025537
0.017564
0.016608
0.022029
0.018202
0.014056
0.0076782
0.004808
-0.00061343
0.0057648
0.0060837
0.0060837
-0.00029452
0.0041702
0.0067215
0.0073593
0.014375
0.017564
0.016927
0.011824
0.015651
0.011505
0.0073593
0.0025757
-0.0028458
-0.0047593
0.0038513
0.0038513
-0.00061343
-0.00093234
0.0038513
0.0079971
0.011824
0.017883
0.0131
0.0131
0.014056
0.014375
0.012462
0.011186
0.0044891
-0.00093234
-0.0012513
0.0044891
0.008635
0.0067215
0.0067215
0.0095917
0.010867
0.016608
0.025218
0.017564
0.018521
0.022348
0.01884
0.014375
0.011186
0.004808
-0.0015702
0.0060837
0.0099106
0.004808
0.0019378
0.0057648
0.010867
0.011824
0.018521
0.022348
0.015332
0.020435
0.029683
0.02458
0.01884
0.01597
0.008635
0.0003433
0.0095917
0.014694
0.0092728
0.010548
0.014375
0.020754
0.019159
0.021072
0.015651
0.013738
0.016927
0.019797
0.018202
0.013738
0.0099106
0.0035324
0.0041702
0.008316
0.0079971
0.0099106
0.015651
0.01884
0.01884
0.023943
0.031278
0.019797
0.025537
0.029683
0.026813
0.02171
0.017883
0.010548
0.0054459
0.012143
0.012781
0.0089539
0.004808
0.012143
0.015651
0.016289
0.022348
0.02458
0.019478
0.017246
0.022667
0.019797
0.015651
0.0131
0.0051269
0.0016189
0.011186
0.015332
0.0095917
0.012143
0.018202
0.017883
0.025537
0.035104
0.033829
0.032234
0.035742
0.034786
0.035104
0.031596
0.022029
0.0079971
0.014375
0.024262
0.023624
0.016927
0.020754
0.016289
0.015013
0.018521
0.02777
0.019797
0.017246
0.020754
0.020754
0.01884
0.01023
0.0019378
-0.005716
0.0028946
0.0041702
0.00098112
0.0003433
0.00098112
0.0051269
0.0057648
0.012781
0.016289
0.010548
0.0095917
0.014694
0.012143
0.016927
0.015332
0.008316
0.0057648
0.010867
0.01023
0.0016189
0.0054459
0.011505
0.01884
0.022986
0.032872
0.02171
0.017246
0.020435
0.017883
0.014375
0.010867
0.0099106
0.0025757
0.0041702
0.0099106
0.0131
0.008635
0.017564
0.01884
0.022667
0.031596
0.039888
0.028726
0.02458
0.028088
0.028726
0.028088
0.020435
0.015013
0.008635
0.01597
0.015651
0.0095917
0.0032135
0.0076782
0.0089539
0.013738
0.023305
0.02458
0.020435
0.016927
0.021072
0.019159
0.015013
0.013419
0.0054459
-0.0031647
0.0095917
0.015332
0.0064026
0.012143
0.017883
0.017883
0.023305
0.034467
0.033829
0.030959
0.033829
0.03925
0.035742
0.029364
0.027132
0.019159
0.01884
0.020435
0.025218
0.01884
0.016289
0.017883
0.017564
0.020435
0.023305
0.011824
0.015332
0.023305
0.021391
0.019159
0.0131
0.0067215
-0.00061343
0.0051269
0.0054459
0.0022568
0.0022568
0.0073593
0.011824
0.017564
0.020754
0.01884
0.013419
0.0092728
0.0079971
0.010867
0.011186
0.0054459
-0.0015702
-0.0060349
0.0044891
0.0044891
2.4388e-05
0.00098112
0.0022568
0.0051269
0.011186
0.021391
0.016289
0.016289
0.020116
0.023624
0.019797
0.016927
0.013419
-0.00093234
-0.002208
0.015651
0.019797
0.013738
0.013419
0.017246
0.019797
0.024899
0.032872
0.022348
0.023305
0.030321
0.027451
0.02777
0.023624
0.017246
0.015013
0.022986
0.024262
0.02171
0.019159
0.02458
0.028726
0.028726
0.034786
0.037975
0.031596
0.02777
0.032234
0.028726
0.022986
0.023305
0.014375
0.0073593
0.019478
0.022029
0.017246
0.011186
0.014694
0.022348
0.02777
0.032872
0.030002
0.033829
0.036699
0.040207
0.055196
0.096016
0.086768
0.082622
0.082941
0.082941
0.076563
0.067952
0.076882
0.084536
0.098568
0.11037
0.10877
0.068271
0.03638
0.0095917
-0.0089051
-0.012094
-0.0028458
-0.023894
-0.044942
-0.04845
-0.047812
-0.05419
-0.062163
-0.060887
-0.053552
-0.049088
-0.03665
-0.030591
-0.033142
-0.034099
-0.026764
-0.026126
-0.026445
-0.02804
-0.030591
-0.033461
-0.020386
-0.016559
-0.019748
-0.017197
-0.011775
0.0041702
0.008635
0.014375
0.01597
0.013419
0.015651
0.021391
0.019159
0.018202
0.017883
0.012781
0.021391
0.035104
0.04531
0.057109
0.066039
0.068909
0.06285
0.072417
0.077838
0.073693
0.072736
0.075925
0.080071
0.066677
0.059661
0.029364
-0.00061343
-0.0034836
0.013738
0.0095917
-0.0098618
-0.024851
-0.022618
-0.022299
-0.018791
-0.014964
-0.014645
-0.013689
0.0032135
0.0025757
0.00098112
0.0003433
-0.0041214
-0.0085862
-0.00093234
0.0060837
0.0016189
-0.0050782
0.014375
0.027132
0.016608
0.022986
0.017883
0.010548
0.013419
0.023305
0.016289
0.011505
0.010867
0.013738
0.027451
0.034786
0.042758
0.055196
0.051369
0.058066
0.059023
0.058385
0.048499
0.036061
0.041164
0.052326
0.052326
0.034148
0.0089539
-0.0063538
-0.0079484
0.0022568
-0.02198
-0.029315
-0.023575
-0.023575
-0.014964
-0.0089051
2.4388e-05
0.0051269
0.0028946
0.0064026
0.013738
0.0070404
0.0070404
0.011186
0.020754
0.037656
0.056153
0.047223
0.040207
0.044672
0.037656
0.03638
0.041483
0.052326
0.056153
0.058704
0.058385
0.020754
-0.0105
0.00066221
0.011186
-0.014008
-0.027721
-0.026445
-0.018791
-0.018472
-0.0105
0.0019378
0.011186
0.0025757
0.0060837
0.03351
0.046266
0.098568
0.096973
0.07433
0.059023
0.062531
0.059661
0.047223
0.042758
0.03925
0.044034
0.066995
0.061255
0.0025757
-0.019429
-0.0028458
-0.020067
-0.024851
-0.0105
-0.021661
-0.029953
-0.035694
-0.032504
-0.043028
-0.039839
-0.032186
-0.035375
-0.034737
-0.028996
-0.029953
-0.027083
-0.017835
-0.025488
-0.028359
-0.026764
-0.02804
-0.030591
-0.037288
-0.034099
-0.037288
-0.033142
-0.02517
-0.017516
-0.01337
2.4388e-05
0.010548
0.019478
0.029045
0.024899
0.025218
0.025218
0.027451
0.029683
0.029045
0.016927
0.010548
0.0028946
0.0028946
-0.0038025
-0.0031647
-0.0031647
-0.0073105
0.0016189
0.00098112
0.0060837
0.008635
0.00066221
0.0003433
0.011505
0.01884
0.010867
0.0054459
-0.0076295
-0.0041214
0.0019378
-0.0041214
0.0003433
-0.009224
-0.0079484
-0.00029452
-0.002208
0.0032135
-0.0050782
-0.0095429
0.0060837
0.014694
0.0051269
0.0044891
-0.0085862
-0.016559
0.0003433
0.016927
0.008316
0.0064026
0.013419
0.019797
0.025856
0.031596
0.034786
0.026494
0.023305
0.026494
0.027451
0.021072
0.016927
0.013419
2.4388e-05
0.011505
0.015013
0.018521
0.012462
0.014694
0.022348
0.02458
0.03638
0.045947
0.043715
0.041802
0.047542
0.055515
0.058385
0.054558
0.042758
0.038294
0.067314
0.057747
0.036699
0.043715
0.049137
0.057109
0.05392
0.04818
0.044034
0.051369
0.046266
0.03638
0.022667
0.029045
0.018521
0.0073593
0.018202
0.017564
0.02777
0.02458
0.036699
0.029683
0.02777
0.034786
0.053601
0.046585
0.052007
0.055515
0.033829
0.026813
0.030959
0.012462
-0.0050782
-0.0073105
-0.0063538
-0.014327
-0.031229
-0.051001
-0.038564
-0.038245
-0.029634
-0.032186
-0.057061
-0.069817
-0.065352
-0.059612
-0.058974
-0.070774
-0.073963
-0.075876
-0.058655
-0.058336
-0.047493
-0.041753
-0.053234
-0.0028458
-0.00093234
0.012781
0.013419
0.017883
0.013419
0.014056
0.032553
0.028726
0.011824
0.011186
0.022986
0.046585
0.028726
0.01597
0.011186
0.012143
0.011505
-0.002208
-0.012094
-0.022937
-0.017835
0.019797
0.029045
0.037975
0.042758
0.070185
0.056471
0.033829
0.051369
0.037975
0.013738
0.0067215
0.042758
0.050412
0.041802
0.059979
0.014375
-0.024851
-0.044304
-0.065352
-0.079065
-0.087357
-0.087995
-0.1033
-0.094054
-0.087357
-0.091822
-0.086081
-0.063758
-0.057379
-0.01911
-0.0079484
0.016289
0.031278
0.050412
0.058385
0.041483
0.031915
0.045629
0.05392
0.046904
0.044034
0.020435
0.012462
-0.005716
-0.031548
-0.012732
-0.0098618
-0.022618
-0.061206
-0.077152
-0.067266
-0.065033
-0.083211
-0.081298
-0.077471
-0.088633
-0.070774
-0.065352
-0.052915
-0.063439
-0.066947
-0.087676
-0.082254
-0.057061
-0.043985
-0.032504
-0.02517
-0.027083
-0.024213
-0.046855
-0.047812
-0.033142
-0.009224
0.034148
0.047223
0.076882
0.10622
0.095378
0.11643
0.13524
0.13014
0.13046
0.12249
0.11866
0.10303
0.10845
0.082941
0.046266
0.054877
0.029045
-0.011775
-0.038883
-0.06312
-0.043347
-0.044942
-0.058017
-0.040796
-0.024851
-0.043985
-0.028678
-0.014327
0.018202
0.0079971
0.01884
0.042439
0.03351
0.036699
0.022348
-0.005716
0.0003433
-0.0044404
-0.0031647
0.039569
0.023943
-0.00093234
-0.014645
-0.033461
-0.042391
-0.043028
-0.051639
-0.047493
-0.036331
-0.047493
-0.037288
-0.023256
-0.020067
-0.029634
-0.018153
-0.0079484
-0.0105
-0.011456
-0.011137
-0.011775
-0.017197
-0.023575
-0.022299
-0.038245
-0.033142
-0.035056
-0.034099
-0.049726
-0.052596
-0.040477
-0.022618
-0.038883
-0.028359
0.008316
0.031596
0.0079971
0.0095917
0.0035324
0.008635
0.020116
0.0013
-0.026445
-0.014645
-0.015921
-0.045261
-0.066309
-0.062482
-0.026445
-0.041434
-0.045899
-0.03091
-0.048769
-0.036331
-0.046536
-0.020705
-0.01337
-0.020705
0.00098112
0.0022568
-0.00061343
0.021072
0.031278
0.042121
0.048818
0.044991
0.060298
0.063487
0.056471
0.046266
0.059023
0.068909
0.069866
0.06859
0.067952
0.040526
0.021391
0.016289
0.030002
0.031278
0.035104
0.058385
0.097611
0.11451
0.14481
0.14194
0.12631
0.11802
0.12249
0.10877
0.10463
0.12408
0.10303
0.096016
0.072098
0.051369
-0.0085862
-0.044304
-0.038883
-0.03665
-0.064714
-0.061206
-0.085125
-0.093416
-0.085762
-0.063758
-0.075876
-0.06025
-0.026126
0.024899
0.018521
0.02458
0.018521
0.051688
0.037656
0.052007
0.082622
0.082941
0.086449
0.072736
0.010867
-0.005716
0.0003433
0.01597
-0.0095429
-0.050044
-0.061525
-0.072368
-0.085443
-0.11064
-0.10266
-0.082254
-0.057379
-0.014645
0.0041702
-0.020386
-0.012413
0.010867
0.017883
0.0131
0.0060837
0.019159
0.021072
-0.005716
-0.01911
-0.021024
-0.0098618
-0.031229
-0.028359
-0.030272
-0.038883
-0.0076295
0.0131
0.0035324
0.032553
0.063487
0.070185
0.066677
0.078795
0.076882
0.10367
0.10144
0.081346
0.068271
0.026175
0.03351
0.05679
-0.012094
-0.033142
-0.018153
-0.031867
-0.070136
-0.074919
-0.11159
-0.11255
-0.078109
-0.065033
-0.039839
-0.013051
0.034467
0.0051269
0.0041702
0.0076782
0.063806
0.084854
0.092508
0.096654
0.080071
0.043077
0.019478
0.021072
0.030959
2.4388e-05
-0.035375
-0.053234
-0.064714
-0.087357
-0.10298
-0.085443
-0.084168
-0.060569
-0.04845
-0.033461
0.00066221
-0.00093234
0.042121
0.036699
0.061893
0.063487
0.075925
0.037656
0.043396
0.088681
0.090276
0.086768
0.028407
-0.011137
-0.024851
-0.035375
-0.056742
-0.069498
-0.078109
-0.084806
-0.08927
-0.11415
-0.13487
-0.13966
-0.10522
-0.11383
-0.10362
-0.081298
-0.052915
0.0041702
0.069228
0.12727
0.096335
0.060617
0.058704
0.039569
0.044034
0.072417
0.085811
0.042439
0.043396
0.017564
0.019159
-0.01337
-0.053871
-0.073006
-0.062163
-0.071411
-0.083211
-0.066309
-0.069817
-0.058655
-0.032823
-0.034099
-0.016559
-0.027083
-0.014645
0.0019378
0.044034
0.062531
0.096335
0.08326
0.067952
0.063487
0.069228
0.08039
0.062212
0.072736
0.033829
0.0022568
0.021072
0.0060837
-0.045899
-0.067585
-0.090227
-0.084806
-0.11733
-0.10968
-0.06886
-0.012094
0.0131
0.041164
0.038612
-0.0085862
-0.0025269
0.008316
0.011505
0.027132
0.011186
0.008635
0.010867
-0.040796
-0.096286
-0.10968
-0.082254
-0.10203
-0.11542
-0.12084
-0.11606
-0.11478
-0.095011
-0.043985
0.034148
0.066677
0.048499
0.036699
0.035742
0.040526
0.03064
0.047223
0.07433
0.041483
0.045629
0.0099106
0.036699
0.036699
-0.041753
-0.10203
-0.070774
-0.036969
-0.062163
-0.084806
-0.11287
-0.058655
-0.0079484
0.02777
0.042439
0.039888
0.10271
0.17606
0.18404
0.14545
0.16107
0.13014
0.078157
0.070503
0.024262
0.059661
0.10909
0.013738
-0.071093
-0.09533
-0.11446
-0.12722
-0.16166
-0.17825
-0.1808
-0.15688
-0.13105
-0.10809
-0.078109
-0.027083
-0.0015702
0.1193
0.11643
0.056153
0.033829
0.0099106
0.0095917
0.042121
0.059661
0.044353
0.010867
-0.011775
-0.050363
-0.040158
-0.069179
-0.10681
-0.16039
-0.14986
-0.15592
-0.15114
-0.12913
-0.060887
-0.031867
0.0089539
0.070503
0.06572
0.051688
0.046585
0.050731
0.040526
0.059342
0.11738
0.13652
0.11643
0.048818
0.034148
0.02777
-0.076195
-0.028678
-0.047174
-0.090865
-0.10745
-0.13264
-0.14923
-0.096605
-0.074601
-0.086081
-0.067266
-0.065352
-0.078427
-0.038883
0.040526
0.066677
0.042121
0.037975
0.0067215
0.0070404
-0.00061343
0.018202
0.040207
0.046904
0.0131
-0.031867
-0.028359
-0.082892
-0.11032
-0.13009
-0.10298
-0.12435
-0.1438
-0.15273
-0.1556
-0.13137
-0.099476
-0.065671
-0.078109
-0.034099
0.03064
0.13939
0.14162
0.14768
0.12727
0.10335
0.11388
0.084536
0.049774
0.087087
0.091233
0.080709
0.021072
0.047542
-0.068541
-0.11446
-0.096924
-0.10203
-0.1403
-0.1438
-0.13711
-0.10745
-0.094054
-0.084168
-0.082573
-0.074601
-0.0044404
0.084854
0.20317
0.15757
0.07752
0.055196
0.072736
0.066995
0.069547
0.069547
0.10239
0.025856
-0.020067
-0.029315
-0.028678
-0.058336
-0.15401
-0.18144
-0.20727
-0.2044
-0.19929
-0.16772
-0.13169
-0.13232
-0.12371
-0.05132
0.019159
0.019478
0.025856
0.058704
0.062531
0.058385
0.056153
0.057747
0.041483
0.029683
0.023624
0.012462
0.032234
0.029045
-0.02198
-0.08927
-0.085125
-0.087995
-0.097243
-0.090546
-0.082892
-0.072368
-0.056742
-0.056104
-0.043347
0.046585
0.081984
0.10718
0.10877
0.10526
0.12886
0.1362
0.11292
0.12982
0.096654
0.091233
0.10909
0.075925
0.021072
-0.093097
-0.046855
-0.086081
-0.14954
-0.18112
-0.15178
-0.18654
-0.20535
-0.19515
-0.17251
-0.14253
-0.051001
-0.022618
-0.052277
-0.022618
-0.028996
0.061574
0.092508
0.082941
0.040845
0.037337
0.01597
0.044353
0.10558
0.031278
-0.020067
-0.03091
-0.032504
-0.0053971
0.052007
-0.03091
-0.097562
-0.11223
-0.093097
-0.10649
-0.089589
-0.10745
-0.1387
-0.11957
-0.078746
-0.090227
-0.084487
-0.10681
-0.11351
-0.095968
-0.078427
-0.053234
-0.036012
0.0095917
0.022986
0.13588
0.22294
0.20126
0.084536
0.11643
0.17255
0.10303
0.087406
0.066677
0.09793
0.031278
0.019159
0.052645
-0.0063538
-0.075238
-0.1403
-0.17187
-0.1859
-0.19196
-0.17952
-0.16326
-0.12658
-0.076195
0.03638
0.097292
0.073374
0.037018
0.037337
0.056471
0.073374
0.043715
0.030959
0.069866
0.0032135
0.019478
0.042121
-0.033461
-0.083849
-0.14125
-0.169
-0.17027
-0.13998
-0.13711
-0.10968
-0.060569
0.12567
0.1311
0.1295
0.087087
0.12057
0.16012
0.090276
0.091233
0.10303
0.11834
0.090276
0.14481
0.016927
-0.0015702
-0.090546
-0.073325
-0.13009
-0.18686
-0.18112
-0.16549
-0.18718
-0.20248
-0.18718
-0.16421
-0.085443
-0.078109
-0.10745
-0.087995
-0.087676
-0.059293
-0.014645
-0.029953
-0.055466
-0.058974
-0.017197
0.0022568
-0.014327
-0.023256
-0.051639
-0.043985
-0.087357
-0.088314
-0.073006
-0.042072
-0.024213
0.03925
0.072736
0.20891
0.23283
0.21848
0.12791
0.10718
0.075925
0.08039
0.10941
0.089319
0.0003433
0.0016189
0.11675
0.035742
-0.095011
-0.18973
-0.20854
-0.2146
-0.21237
-0.19292
-0.16421
-0.1336
-0.055147
-0.014645
0.035742
0.17
0.13747
0.10431
0.087725
0.051688
0.076882
0.081028
0.022029
0.020116
0.04531
0.037656
0.027451
-0.022618
-0.10139
-0.16453
-0.17601
-0.18941
-0.13743
-0.16581
-0.17059
-0.16294
-0.15401
-0.10681
0.034467
0.20795
0.33073
0.14066
0.020754
0.032234
0.026813
0.067314
0.035104
-0.0085862
-0.048131
-0.026445
0.14162
0.0041702
-0.14093
-0.23724
-0.27615
-0.27232
-0.24171
-0.21014
-0.18494
-0.16326
-0.075238
0.024899
0.013738
0.044034
-0.01337
-0.0105
0.025218
-0.0018891
-0.015283
-0.065352
-0.011456
0.044034
0.028726
-0.01624
-0.076195
-0.11893
-0.11128
-0.097562
-0.097243
-0.10043
-0.072368
0.015013
0.046585
0.11388
0.065082
0.0044891
0.052326
0.099524
0.06859
0.01597
0.04818
0.065401
0.06572
0.085173
0.067952
-0.017197
-0.05132
-0.028678
-0.039202
-0.018153
0.03925
0.061255
0.11643
0.080071
0.046266
0.0095917
0.026175
0.049455
0.057109
-0.01624
0.04531
0.094103
0.032234
-0.041753
-0.070455
-0.11542
-0.20248
-0.17059
-0.12595
-0.15273
-0.13009
-0.12307
-0.12148
-0.07779
-0.098838
-0.091184
-0.03665
-0.036969
-0.016878
0.020754
0.016289
0.01597
0.027451
-0.038245
-0.024851
0.0019378
-0.063758
-0.037926
-0.012094
-0.034418
-0.078746
-0.081935
-0.085443
-0.088633
-0.064714
-0.074601
-0.069817
-0.050363
-0.012094
-0.028678
-0.028359
0.056153
0.08326
0.11993
0.15948
0.16586
0.1075
0.074649
0.065401
0.051688
0.039888
0.099205
0.037975
-0.079065
0.062531
0.0057648
-0.095968
-0.16007
-0.17633
-0.18207
-0.18399
-0.1741
-0.12307
-0.066628
-0.042072
-0.021343
-0.053871
0.070503
0.057747
0.14832
0.089638
0.035742
0.008635
0.046585
0.039569
0.044672
0.057428
0.028407
0.0064026
0.0089539
-0.036969
-0.092141
-0.12435
-0.087676
-0.057698
-0.053552
-0.043347
-0.042391
0.082303
0.21561
0.1547
0.034467
-0.019748
-0.0034836
0.042758
0.016608
-0.059293
-0.032504
0.013738
0.050731
-0.0073105
-0.055466
-0.15114
-0.20376
-0.1977
-0.18271
-0.18239
-0.16007
-0.14285
-0.14093
-0.12403
-0.094054
-0.051001
0.017883
0.0079971
0.0057648
0.071779
0.022986
0.051369
0.064125
0.03925
0.012143
-0.0095429
0.10335
0.085173
0.0016189
-0.029634
-0.02198
-0.052277
-0.055785
-0.09533
-0.10522
0.09506
0.06572
0.14991
0.19584
0.12791
0.044353
0.090914
0.073055
0.075925
0.042758
-0.017516
0.02171
0.11164
0.099843
-0.05419
-0.10585
-0.15528
-0.1977
-0.18144
-0.18335
-0.17984
-0.16485
-0.16453
-0.16326
-0.10139
-0.0095429
0.056471
0.12982
0.059979
-0.02198
-0.027083
0.044034
0.064125
0.024262
-0.061206
0.023943
0.16968
0.078795
-0.013689
-0.07779
-0.1202
-0.1269
-0.14285
-0.14636
-0.11542
-0.086719
0.010548
0.086768
0.023305
-0.065352
-0.055147
0.027451
0.03351
0.032234
-0.057379
0.0070404
0.07752
0.1126
0.059979
-0.047174
-0.1269
-0.13264
-0.064714
0.021391
-0.021024
-0.053871
-0.068541
-0.059612
-0.010819
0.031915
0.078476
0.04531
0.079433
0.043715
0.13684
0.12759
0.05679
0.055834
0.020116
0.017883
0.098886
0.07433
-0.074601
0.021072
0.019478
-0.014964
-0.02517
-0.01911
0.020754
-0.0069916
-0.024851
-0.026445
0.040207
-0.020067
-0.061844
-0.02517
-0.043985
-0.0047593
0.031915
-0.0050782
0.063487
-0.00093234
-0.04845
-0.022299
0.039888
0.021391
-0.0098618
0.012143
0.083579
0.13875
0.14896
-0.02198
-0.076833
-0.047812
-0.029315
0.024899
0.015651
-0.03665
-0.053234
-0.046855
-0.096286
-0.14412
-0.13615
-0.11829
-0.10585
-0.11925
-0.071411
-0.043347
-0.032823
0.056153
0.12727
0.14162
0.1008
0.066995
0.093146
0.096016
0.081984
0.057747
0.047223
0.086768
-0.011775
0.077201
0.037975
-0.041115
-0.11638
-0.12945
-0.12339
-0.11223
-0.069179
-0.070774
-0.034099
-0.037288
-0.028678
-0.0028458
0.037656
0.032234
0.018202
-0.0018891
-0.040796
-0.075238
-0.0079484
-0.005716
0.020116
0.013419
-0.071411
-0.093097
-0.091184
-0.065352
-0.062163
-0.038883
-0.043347
-0.058974
-0.04845
-0.022299
-0.011137
-0.0012513
0.016289
0.030002
0.085811
0.081984
0.055834
0.13078
0.041483
0.0035324
0.037018
0.049137
0.1244
0.11388
-0.0044404
-0.0034836
0.12408
0.12631
0.076882
-0.018472
-0.041434
-0.016878
-0.015602
0.053601
0.14417
0.1059
0.063487
0.043715
0.045629
0.074968
0.070185
-0.034099
0.11101
0.12727
0.022029
-0.071093
-0.087676
-0.081935
-0.058336
-0.079384
-0.10968
-0.0034836
-0.026445
-0.083211
-0.13456
-0.1218
-0.092778
-0.093416
-0.069817
-0.074282
-0.049088
-0.036331
-0.031867
-0.022937
-0.013689
0.060617
0.19424
0.13078
0.1311
0.11579
0.06285
0.020754
0.079114
0.055515
0.10622
0.059023
0.067952
0.088362
-0.014008
-0.0982
-0.12595
-0.10777
-0.11415
-0.1151
-0.11542
-0.11638
-0.095649
-0.085125
-0.06312
-0.053552
-0.068541
-0.037926
-0.016559
0.004808
0.05392
0.028726
-0.027721
-0.0079484
0.053601
0.055196
0.0131
0.032872
0.14098
0.081346
0.07752
0.10495
0.0060837
0.030959
0.045947
0.011824
0.026494
0.0131
0.10718
0.098249
0.047223
0.075287
0.042121
0.17255
0.10558
0.049137
0.016289
0.086768
0.057747
0.081028
0.011824
-0.081298
-0.084806
-0.12212
-0.10713
-0.087357
-0.12467
-0.19132
-0.22959
-0.19738
-0.19036
-0.18494
-0.15305
-0.1269
-0.085443
-0.072368
-0.065033
-0.041115
-0.016559
0.020116
0.052326
0.033829
0.011824
0.015013
0.031278
0.017564
0.0076782
0.028088
0.050093
0.066358
0.045629
0.0057648
0.0044891
0.008635
-0.0095429
-0.029315
0.0019378
-0.028996
-0.015921
-0.018472
-0.0028458
-0.0095429
0.10239
0.14385
0.043396
0.0079971
0.044034
0.049137
0.045947
0.049137
0.020754
0.01023
0.070185
0.014056
0.019159
-0.020067
-0.089908
-0.057061
-0.06025
-0.068222
-0.073963
-0.03952
-0.045899
-0.0095429
0.0013
-0.010181
-0.010819
0.052963
0.053601
0.054877
0.032872
0.050412
0.18978
0.17989
0.13205
0.081028
0.047861
0.093146
0.06859
0.03638
0.025537
0.073055
0.091552
0.026813
-0.042391
-0.095968
-0.11383
-0.11702
-0.11861
-0.13456
-0.14125
-0.093097
-0.096924
-0.10649
-0.10777
-0.064395
-0.0041214
2.4388e-05
-0.0085862
-0.005716
-0.0018891
-0.048131
-0.043028
-0.050682
-0.072368
-0.11128
-0.021024
0.03638
-0.026764
-0.093735
-0.11861
-0.11223
-0.091503
-0.091184
-0.067903
-0.058017
-0.028678
-0.032504
0.0032135
-0.014964
-0.028359
-0.018791
-0.036969
-0.0018891
0.004808
0.040526
0.036699
0.038931
0.03925
0.0073593
0.014375
0.046585
0.037018
0.034786
0.05679
0.14321
0.073374
0.023943
0.07146
0.047542
0.11228
0.075925
0.061255
0.094741
0.094422
0.17096
0.12153
0.015651
0.033829
0.08613
0.084217
0.043715
0.031915
-0.0082673
-0.036012
-0.061206
-0.02804
-0.093735
-0.06886
-0.096286
-0.055466
-0.0031647
-0.047493
-0.046536
-0.018472
-0.022618
-0.03665
-0.049407
-0.064395
-0.028359
-0.0079484
-0.019748
-0.03091
-0.058017
-0.065352
-0.072368
-0.076514
-0.091184
-0.089908
-0.029953
-0.030272
-0.021343
-0.03665
-0.062163
-0.043985
-0.05419
-0.033142
-0.020705
-0.031867
-0.052915
-0.068222
-0.020705
-0.009224
-0.019748
-0.02198
0.011186
0.11451
0.044034
-0.0038025
0.014056
0.048818
0.073374
0.10048
0.06285
