0.043077
0.038612
0.034467
0.031278
0.019797
0.017883
0.029045
0.028726
0.020754
0.027132
0.029364
0.036699
0.043396
0.044034
0.031596
0.033191
0.035423
0.034148
0.03638
0.026175
0.023305
0.011824
0.011824
0.024262
0.028726
0.020754
0.024262
0.03064
0.032234
0.032553
0.037337
0.059342
0.050093
0.029045
0.022029
0.031596
0.019478
0.0044891
0.0092728
0.03638
0.028088
0.01023
0.01023
0.011824
0.015651
0.020754
0.029364
0.026494
0.020116
0.018521
0.017246
0.011824
0.0073593
-0.009224
-0.022937
-0.018472
-0.0034836
0.0076782
-0.0012513
-0.0085862
-0.009224
-0.010819
0.0038513
0.011505
0.0095917
0.017564
0.016289
0.008635
0.0054459
-0.00061343
0.00098112
-0.0082673
-0.0044404
0.0013
0.0016189
-0.0031647
-0.00061343
0.0038513
0.0041702
0.0089539
0.014694
0.0025757
0.0016189
0.0044891
0.0032135
-0.0034836
-0.0085862
-0.014964
-0.01911
-0.012413
-0.01911
-0.014645
-0.013689
-0.014327
-0.0098618
-0.0050782
-0.005716
-0.00093234
-0.0034836
-0.0095429
-0.009224
-0.015921
-0.020705
-0.021024
-0.024532
-0.01911
0.0054459
0.022029
0.0022568
-0.0076295
-0.0069916
-0.030272
-0.0041214
0.032553
0.025856
0.010867
0.0028946
0.0028946
-0.00093234
-0.011137
-0.023256
-0.030272
-0.027083
-0.015283
-0.0105
-0.012094
-0.0066727
-0.00029452
0.0079971
0.012781
0.021072
0.010867
0.008316
0.01884
0.016289
0.013738
0.013738
0.0032135
-0.0031647
0.010867
0.020754
0.015651
0.01597
0.018521
0.020435
0.02777
0.035423
0.040526
0.036061
0.032553
0.034467
0.028088
0.022986
0.022667
0.012143
0.0070404
0.020754
0.022029
0.014694
0.014375
0.018202
0.022348
0.02458
0.036699
0.026494
0.023624
0.028407
0.023305
0.017246
0.017246
0.0057648
0.0003433
0.0041702
0.01023
0.014694
0.0051269
0.0073593
0.013738
0.015013
0.023624
0.031596
0.018202
0.01884
0.026813
0.018521
0.01597
0.011824
0.0041702
-0.0031647
0.0095917
0.0131
0.008316
0.008316
0.012143
0.016608
0.017246
0.027132
0.028407
0.021391
0.019797
0.022348
0.017883
0.015332
0.0079971
-0.002208
2.4388e-05
0.012781
0.012143
0.0057648
0.0051269
0.0079971
0.014375
0.016289
0.020754
0.016608
0.011186
0.0092728
0.0099106
0.0057648
-0.002208
-0.0105
-0.020067
-0.021343
-0.014008
-0.012732
-0.020705
-0.016878
-0.014008
-0.011137
-0.0069916
0.0013
-0.013689
-0.016559
-0.0073105
-0.0085862
-0.01337
-0.022937
-0.031229
-0.034737
-0.025488
-0.021024
-0.023894
-0.025807
-0.021024
-0.016559
-0.015602
-0.0082673
-0.0018891
-0.0089051
-0.0095429
-0.0079484
-0.015602
-0.017835
-0.021661
-0.025807
-0.028359
-0.017197
-0.015921
-0.02198
-0.023894
-0.019748
-0.014327
-0.005716
0.0051269
-0.0041214
-0.011456
-0.011775
-0.0079484
-0.013051
-0.019429
-0.024213
-0.034099
-0.036012
-0.026445
-0.022937
-0.030591
-0.027721
-0.024851
-0.023256
-0.017835
-0.0047593
-0.010819
-0.0076295
-0.00093234
-0.0025269
-0.026445
-0.024532
-0.026445
-0.035056
-0.015602
-0.012094
-0.021661
-0.042391
-0.031867
-0.016878
-0.021343
-0.018791
-0.018472
-0.02804
-0.03091
-0.02517
-0.030272
-0.034418
-0.039202
-0.045261
-0.051001
-0.037288
-0.034737
-0.041753
-0.040796
-0.035375
-0.03091
-0.026764
-0.01624
-0.021343
-0.023256
-0.020705
-0.022299
-0.024213
-0.028996
-0.031548
-0.038564
-0.039202
-0.029315
-0.024851
-0.030591
-0.025488
-0.021343
-0.019429
-0.012094
-0.002208
-0.012413
-0.013689
-0.0079484
-0.0076295
-0.010181
-0.015283
-0.019748
-0.025488
-0.01911
-0.012094
-0.011775
-0.013051
-0.0098618
-0.0041214
-0.0018891
0.0032135
0.012143
0.0035324
0.0016189
0.0054459
0.0016189
-0.0012513
-0.0044404
-0.012413
-0.015921
-0.002208
0.0003433
-0.0041214
-0.0034836
0.00066221
0.0067215
0.012781
0.02171
0.020435
0.019797
0.026813
0.030002
0.019797
0.0054459
0.010867
-0.009224
-0.013051
0.016927
0.022667
0.0064026
0.0054459
0.0054459
0.0057648
0.011824
0.019797
0.0054459
0.0054459
0.011186
0.0073593
0.0051269
-0.0012513
-0.0082673
-0.013689
-0.0063538
-0.0012513
-0.00061343
-0.002208
0.0019378
0.008316
0.010548
0.019478
0.025856
0.017246
0.015013
0.022986
0.01884
0.015332
0.011824
0.0064026
0.0044891
0.01884
0.020116
0.013738
0.014375
0.017564
0.024899
0.030002
0.037337
0.032872
0.027132
0.026813
0.024899
0.021072
0.015332
0.01023
0.00098112
0.00066221
0.011505
0.0131
0.0089539
0.012781
0.019159
0.027132
0.023943
0.028726
0.022029
0.0044891
0.0070404
0.020435
0.02171
0.010548
-0.0079484
-0.022937
-0.017835
-0.012413
-0.012413
-0.017835
-0.016559
-0.011775
-0.0098618
-0.0018891
0.0016189
-0.009224
-0.011137
-0.0044404
-0.009224
-0.013051
-0.017197
-0.025807
-0.028996
-0.009224
-0.009224
-0.014008
-0.012732
-0.0063538
-0.023575
-0.018153
0.0044891
0.0054459
2.4388e-05
-0.0063538
-0.0085862
-0.018791
-0.022299
-0.024213
-0.031867
-0.036331
-0.022618
-0.020705
-0.03091
-0.030591
-0.024851
-0.020705
-0.00093234
0.011186
-0.0034836
-0.0044404
0.0060837
0.00098112
-0.032504
-0.028359
-0.012413
-0.027083
-0.022937
-0.011137
-0.015921
-0.01624
-0.012094
-0.027721
-0.023575
-0.0089051
-0.011137
-0.018791
0.0003433
0.012143
0.008316
-0.0085862
-0.021343
-0.035694
-0.055147
-0.021024
-0.0044404
-0.014964
-0.021024
-0.020067
-0.023894
-0.020705
-0.016559
-0.021024
-0.023575
-0.026445
-0.025488
-0.029634
-0.035375
-0.03952
-0.046536
-0.051639
-0.038564
-0.035375
-0.045261
-0.043028
-0.03952
-0.036012
-0.033142
-0.024213
-0.038883
-0.039202
-0.040477
-0.040477
-0.025807
-0.032504
-0.043028
-0.053234
-0.061525
-0.064395
-0.041434
-0.037926
-0.041115
-0.04558
-0.044942
-0.033142
-0.027721
-0.045899
-0.058336
-0.055785
-0.048769
-0.061525
-0.086719
-0.095011
-0.059612
-0.043028
-0.071093
-0.087357
-0.081298
-0.068222
-0.044304
-0.035694
-0.015283
-0.0098618
0.004808
0.054558
0.10367
0.079114
0.075287
0.079114
0.05679
0.057428
0.09187
0.1075
0.10654
0.093784
0.073055
0.040526
0.023305
0.0092728
-0.021343
-0.050044
-0.062482
-0.073006
-0.088952
-0.11446
-0.13232
-0.14412
-0.1403
-0.132
-0.12913
-0.13169
-0.12339
-0.11638
-0.11064
-0.096924
-0.085125
-0.094054
-0.090227
-0.071093
-0.064077
-0.055466
-0.045899
-0.029634
-0.0044404
0.02171
0.019478
0.011186
0.008635
0.021072
0.038931
0.050412
0.073374
0.081028
0.069866
0.043077
0.03064
-0.0085862
-0.012094
-0.012732
-0.028359
-0.02517
-0.011775
-0.027721
-0.036012
-0.030591
-0.017516
0.0054459
0.031915
0.044353
0.081028
0.26472
0.28067
0.25866
0.25515
0.22294
0.20158
0.17638
0.19839
0.24431
0.28226
0.26408
0.24271
0.13843
0.042439
0.041802
0.070822
-0.0076295
-0.026764
-0.00029452
-0.042391
-0.062163
-0.049088
-0.062482
-0.068222
-0.051958
-0.062163
-0.075557
-0.067903
-0.020067
-0.037607
-0.06025
-0.045899
-0.045899
-0.058655
-0.057379
-0.076195
-0.078109
-0.084487
-0.084487
-0.095011
-0.083211
-0.06025
-0.03091
0.017246
-0.0095429
-0.020067
0.01884
0.13524
0.3167
0.25037
0.35146
0.46212
0.45128
0.41142
0.39707
0.39133
0.36103
0.3757
0.40408
0.27748
0.20445
0.21178
0.16235
0.060936
-0.10458
-0.12052
-0.21269
-0.27264
-0.30103
-0.34695
-0.33643
-0.31761
-0.31857
-0.32399
-0.29816
-0.2803
-0.25925
-0.22194
-0.20886
-0.17474
-0.10043
-0.059612
-0.044623
-0.043985
2.4388e-05
0.0003433
-0.0063538
0.0057648
0.01597
0.014056
0.028726
0.040526
0.024899
0.0003433
-0.01911
0.017246
0.015651
0.058704
0.096335
0.12376
0.10654
0.11675
0.17447
0.17989
0.18786
0.22773
0.20859
0.21816
0.30012
0.31606
0.23984
0.21178
0.18946
0.14832
0.11388
0.087087
0.075606
0.050412
0.032553
-0.014964
-0.097881
-0.11191
-0.094054
-0.13711
-0.16772
-0.16262
-0.11765
-0.14125
-0.14699
-0.10681
-0.099794
-0.09246
-0.057379
-0.050682
-0.061206
-0.068222
-0.066628
-0.052277
-0.045261
-0.033461
-0.055466
-0.037926
-0.026126
-0.02198
-0.025807
-0.014327
0.0131
0.010867
0.04531
0.059661
0.075287
0.10718
0.10973
0.058704
0.069228
0.093784
0.081665
0.069228
0.077201
0.064763
0.052007
0.063806
0.043396
0.0095917
0.028407
0.021072
-0.034418
-0.046855
-0.01911
-0.029953
-0.038245
-0.04845
-0.054509
-0.073963
-0.050682
-0.049088
-0.04558
0.01597
0.10367
0.12791
0.11005
0.11388
0.14353
0.16968
0.17766
0.20732
0.21369
0.23251
0.19647
0.1716
0.10718
0.10782
0.14162
0.08326
0.032553
-0.03665
-0.046855
-0.011137
-0.060887
-0.072049
-0.071411
-0.076833
-0.080979
-0.082254
-0.079384
-0.075238
-0.074282
-0.05132
-0.017835
-0.034099
-0.056423
-0.0082673
-0.0012513
0.028088
0.052326
0.065082
0.04531
0.036061
-0.0028458
0.038612
0.080071
0.060617
0.049137
0.047861
0.055834
0.056471
0.071779
0.059979
0.057109
0.043715
0.069228
0.18021
0.19073
0.17064
0.16363
0.18754
0.15438
0.1244
0.12504
0.14098
0.13939
0.16044
0.15214
0.10335
0.055196
0.019478
0.011186
-0.021024
-0.027402
-0.02804
-0.064077
-0.093735
-0.091822
-0.10745
-0.1218
-0.1218
-0.13328
-0.13328
-0.12212
-0.11702
-0.11064
-0.10139
-0.089908
-0.086719
-0.073644
-0.061206
-0.070774
-0.065352
-0.050682
-0.040477
-0.042391
-0.04271
-0.027721
-0.026445
-0.022618
-0.0105
-0.034418
-0.047493
-0.025488
-0.0034836
-0.016559
-0.011456
0.0099106
-0.013689
-0.027721
-0.029634
-0.040477
-0.046536
-0.048769
-0.058336
-0.062482
-0.049407
-0.043347
-0.052277
-0.051001
-0.040158
-0.028996
-0.02517
-0.0038025
0.0025757
-0.020705
-0.018791
-0.009224
-0.027721
-0.026126
-0.005716
-0.022937
-0.023894
-0.018153
-0.017197
-0.014964
-0.0012513
-0.0050782
-0.011137
-0.0079484
2.4388e-05
-0.0105
-0.0047593
-0.0044404
-0.0089051
-0.021343
-0.032186
-0.033142
-0.035694
-0.043985
-0.043985
-0.047493
-0.054509
-0.049726
-0.041434
-0.041753
-0.032186
-0.024213
-0.031548
-0.030272
-0.021343
-0.022618
-0.026764
-0.030272
-0.031229
-0.033142
-0.020386
-0.014645
-0.020705
-0.03091
-0.015283
-0.0044404
2.4388e-05
0.0070404
0.0032135
-0.0025269
-0.00061343
0.0025757
-0.0034836
-0.005716
-0.011137
-0.015921
-0.019748
-0.0063538
-0.0038025
-0.0095429
0.00066221
0.012462
0.018202
0.026494
0.031915
0.017246
0.012781
0.029364
0.027132
0.024899
0.031278
0.043396
0.080071
0.11866
0.15278
0.19647
0.20094
0.21306
0.26281
0.26695
0.25707
0.2829
0.31224
0.29565
0.26982
0.21816
0.17415
0.10048
0.071779
0.037018
-0.0050782
-0.051639
-0.094054
-0.12882
-0.16772
-0.19228
-0.2162
-0.21365
-0.21237
-0.20759
-0.1977
-0.18112
-0.17282
-0.16326
-0.15369
-0.14699
-0.13711
-0.11223
-0.1033
-0.094373
-0.080022
-0.067266
-0.052915
-0.03952
-0.021661
-0.023575
-0.01911
-0.0076295
-0.0034836
-0.00061343
-0.00029452
-0.0018891
-0.0044404
0.0038513
0.015013
0.021072
0.018521
0.02458
0.033191
0.037018
0.044353
0.052007
0.041483
0.039569
0.046266
0.037975
0.033829
0.02777
0.019159
0.016289
0.022667
0.022986
0.01597
0.014375
0.017883
0.026494
0.032872
0.037656
0.037656
0.028407
0.032234
0.038294
0.054558
0.09506
0.13747
0.18308
0.16426
0.16426
0.14959
0.12472
0.12025
0.12855
0.12886
0.15087
0.18627
0.15151
0.077838
0.0051269
-0.035056
-0.021024
-0.034418
-0.058017
-0.080022
-0.10011
-0.10075
-0.099157
-0.099476
-0.090227
-0.073963
-0.072049
-0.052915
-0.031229
-0.02198
-0.01337
0.014694
0.0076782
-0.010181
-0.036969
-0.00093234
0.033191
0.046266
0.058066
0.069228
0.059023
0.07752
0.076882
0.072417
0.078157
0.082941
0.072736
0.064125
0.064444
0.040207
-0.0038025
0.074649
0.049137
0.046266
0.069866
0.06285
0.042758
0.048499
0.027451
0.014375
0.025856
0.075287
0.075925
0.050412
0.026813
-0.0031647
-0.037288
-0.053234
-0.076833
-0.11255
-0.11893
-0.11
-0.10809
-0.15847
-0.18112
-0.13998
-0.11159
-0.10235
-0.098838
-0.12658
-0.11064
-0.045899
-0.025807
-0.034418
-0.03091
-0.060569
-0.062801
-0.046855
-0.038245
-0.021024
-0.029953
-0.018153
0.022986
-0.020705
-0.06025
-0.044304
-0.02804
-0.022937
-0.020067
-0.029953
-0.026764
-0.026126
-0.014327
-0.019429
0.013419
0.01023
0.0073593
0.017246
0.022029
0.038294
0.052645
0.049455
0.038294
0.031596
0.050412
0.03925
0.0079971
-0.0079484
-0.017516
-0.0047593
-0.014964
-0.024213
-0.017516
-0.031548
-0.046218
-0.045899
-0.049407
-0.005716
0.015013
0.0051269
-0.017516
-0.012094
-0.014964
-0.018791
0.015013
0.034467
0.03638
0.06572
0.071141
0.066039
0.0057648
-0.002208
0.050731
0.048499
0.059979
0.063487
0.039888
0.022986
0.050093
0.064125
0.045947
0.018521
-0.025488
-0.025807
-0.021024
-0.015602
-0.0076295
-0.022618
-0.074919
-0.043347
-0.064714
-0.041434
-0.080022
-0.097562
-0.0982
-0.12467
-0.13009
-0.13711
-0.14572
-0.13743
-0.11957
-0.11542
-0.12212
-0.11351
-0.10522
-0.092141
-0.084487
-0.067585
-0.054828
-0.062163
-0.046855
-0.031229
-0.029315
-0.01624
-0.011456
-0.0034836
-0.0031647
0.022667
0.029045
0.02458
0.023943
0.03351
0.066995
0.12663
0.12567
0.11324
0.11037
0.087725
0.10686
0.10144
0.080709
0.093784
0.09506
0.075606
0.066358
0.022667
-0.0079484
0.013738
-0.020705
-0.0105
-0.0044404
-0.036012
-0.069498
-0.078109
-0.071093
-0.067903
-0.079703
-0.091184
-0.10011
-0.10617
-0.084168
-0.063439
-0.061525
-0.063758
-0.055466
-0.043028
-0.038564
-0.019429
-0.0044404
-0.011775
-0.0079484
0.0016189
0.00098112
0.0038513
0.0025757
-0.0041214
-0.0060349
0.0051269
0.013419
0.014056
0.0067215
0.010867
0.022029
0.023305
0.030002
0.035742
0.026494
0.029364
0.03351
0.034148
0.026175
0.020754
0.011186
0.0095917
0.023305
0.023943
0.022986
0.031596
0.03064
0.03351
0.036061
0.043396
0.038294
0.033829
0.03638
0.036699
0.030002
0.026494
0.021072
0.011186
0.011186
0.022667
0.023305
0.016289
0.020435
0.023624
0.030002
0.040526
0.046904
0.031278
0.031278
0.032553
0.028726
0.035104
0.02458
0.017246
0.010867
0.024899
0.026813
0.019797
0.0089539
0.015651
0.034148
0.022348
0.023624
0.02777
0.018521
0.01884
0.020754
0.01023
0.0013
-0.0069916
-0.015602
-0.020386
-0.0063538
-0.010819
-0.016878
-0.018791
-0.014327
-0.0098618
-0.0050782
0.0016189
-0.0047593
-0.01337
-0.011775
-0.012732
-0.016559
-0.02198
-0.027402
-0.036331
-0.038564
-0.024851
-0.025807
-0.042391
-0.035694
-0.035056
-0.036331
-0.020705
-0.011775
-0.032186
-0.041753
-0.032823
-0.038564
-0.043985
-0.052915
-0.06025
-0.067903
-0.062801
-0.055147
-0.05419
-0.06025
-0.058336
-0.053234
-0.050363
-0.039202
-0.036969
-0.048131
-0.045261
-0.03952
-0.037926
-0.041434
-0.04845
-0.069179
-0.062801
-0.042072
-0.062163
-0.081617
-0.072687
-0.050363
-0.058974
-0.061525
-0.052915
-0.065033
-0.061206
-0.043347
-0.058336
-0.083211
-0.0864
-0.10011
-0.083849
-0.069498
-0.066947
-0.056423
-0.069498
-0.070774
-0.069498
-0.058974
-0.053234
-0.03952
-0.047493
-0.040477
-0.039839
-0.043347
-0.048769
-0.053234
-0.055785
-0.057379
-0.050363
-0.044304
-0.04558
-0.049407
-0.043985
-0.037607
-0.037926
-0.024213
-0.019429
-0.034099
-0.033461
-0.026126
-0.03091
-0.033142
-0.038245
-0.045261
-0.047812
-0.035375
-0.025488
-0.022937
-0.029634
-0.029953
-0.014645
-0.014008
-0.015921
-0.018791
-0.011456
-0.014327
-0.017197
-0.021343
-0.027083
-0.036969
-0.053234
-0.055466
-0.039839
-0.037607
-0.046855
-0.042072
-0.037926
-0.032504
-0.023575
-0.015921
-0.026764
-0.024851
-0.018472
-0.018472
-0.021343
-0.02517
-0.030591
-0.035375
-0.032186
-0.021343
-0.020386
-0.01911
-0.010819
0.00066221
0.0054459
0.019478
0.023624
0.012462
-0.0050782
0.0019378
0.017246
0.015013
0.0079971
-0.0031647
-0.011775
-0.015283
-0.015283
-0.0041214
-0.0066727
-0.0079484
-0.0073105
-0.0105
-0.0012513
0.0041702
-0.00093234
-0.0028458
-0.00093234
-0.0069916
-0.009224
-0.010819
-0.022618
-0.023894
-0.0050782
-0.0047593
-0.016559
-0.011456
-0.0044404
0.0016189
0.0057648
0.017246
0.0095917
0.0099106
0.021391
0.024899
0.018202
0.0099106
-0.005716
-0.023894
-0.0095429
0.01884
0.019159
2.4388e-05
0.0051269
0.010548
0.0060837
0.016289
0.021391
0.0051269
0.0054459
0.0131
0.0092728
0.0032135
-0.0028458
-0.0076295
-0.010819
-0.0018891
0.01023
0.0038513
-0.00061343
0.0070404
0.01597
0.017246
0.031915
0.032234
0.023305
0.022667
0.029364
0.024899
0.019478
0.016608
0.0060837
0.0038513
0.020116
0.020754
0.013738
0.014694
0.017883
0.022986
0.030002
0.041164
0.032234
0.029364
0.027451
0.022348
0.022029
0.017883
0.018521
0.018202
0.026494
0.037656
0.04531
0.0073593
0.0051269
0.0095917
0.038294
0.045629
0.037337
0.010867
0.0054459
0.012462
0.0025757
-0.0085862
-0.023894
-0.038564
-0.047493
-0.03952
-0.036331
-0.041434
-0.043985
-0.040477
-0.033461
-0.031229
-0.022618
-0.020386
-0.031229
-0.031548
-0.023894
-0.030591
-0.035375
-0.038883
-0.047493
-0.048131
-0.032504
-0.028996
-0.037288
-0.03378
-0.02804
-0.019748
-0.012413
-0.0018891
-0.0105
-0.012094
-0.0079484
-0.0066727
-0.0095429
-0.01337
-0.017516
-0.024213
-0.021024
-0.009224
-0.0044404
-0.011137
-0.0041214
0.0025757
0.0079971
0.018521
0.026494
0.012143
0.014375
0.023943
0.02171
0.017564
0.012462
0.0079971
0.0019378
0.016927
0.027451
0.030959
0.027132
0.029045
0.037656
0.034467
0.042439
0.051688
0.048499
0.046266
0.053601
0.04531
0.038294
0.029364
0.014375
0.017246
0.035742
0.034148
0.02777
0.027451
0.033829
0.040526
0.046585
0.055196
0.046904
0.042439
0.044991
0.047542
0.040207
0.037018
0.036699
0.028088
0.020754
0.031596
0.039569
0.024899
0.035423
0.037337
0.044034
0.050731
0.055515
0.036061
0.037337
0.046585
0.040526
0.035742
0.028407
0.021391
0.014375
0.02171
0.028407
0.032553
0.028088
0.031278
0.037337
0.038931
0.050093
0.054877
0.044353
0.044353
0.053601
0.05105
0.042439
0.034148
0.031915
0.035104
0.050093
0.046585
0.03351
0.037337
0.047223
0.056153
0.049455
0.062212
0.04818
0.040845
0.049137
0.044353
0.034467
0.025537
0.021072
0.0095917
0.0089539
0.020116
0.021072
0.011824
0.016289
0.019159
0.023305
0.031596
0.038931
0.020754
0.021391
0.029045
0.023305
0.022029
0.010867
2.4388e-05
0.0051269
0.013738
0.013419
0.0060837
-0.0038025
0.0051269
0.021072
0.026175
0.030959
0.026813
0.011505
0.012462
0.02458
0.015013
0.0092728
0.0028946
-0.0034836
-0.0076295
0.008635
0.0099106
0.0032135
0.004808
0.0095917
0.016289
0.022348
0.032234
0.026494
0.020754
0.022667
0.023943
0.018521
0.014056
0.0070404
-0.0015702
-0.0012513
0.010548
0.0131
0.0054459
0.008316
0.014056
0.017883
0.02458
0.034786
0.016289
0.019159
0.026494
0.022667
0.017564
0.01023
0.0099106
0.012143
0.022667
0.026175
0.019159
-0.011456
0.0064026
0.041483
0.042121
0.050093
0.046266
0.027132
0.028088
0.031278
0.023624
0.023305
0.022986
0.0041702
0.0013
0.019797
0.020435
0.013738
0.011824
0.017564
0.025218
0.028726
0.040207
0.03638
0.029683
0.031915
0.03351
0.027451
0.025537
0.01884
0.01023
0.01023
0.023943
0.025537
0.017564
0.023305
0.028088
0.033191
0.03925
0.046904
0.032872
0.031915
0.038612
0.033829
0.026494
0.026813
0.020754
0.011505
0.014375
0.015332
0.015332
0.019159
0.024899
0.027451
0.026494
0.03638
0.041802
0.030002
0.028407
0.036699
0.028088
0.017883
0.017883
0.010548
0.0060837
0.020754
0.022986
0.020435
0.022029
0.026175
0.031278
0.035423
0.031915
0.023943
0.033829
0.040207
0.03638
0.026813
0.017246
0.010548
-0.00029452
-0.0015702
0.014056
0.011824
0.0025757
0.0051269
0.0099106
0.016289
0.023943
0.032872
0.018202
0.016608
0.022029
0.020116
0.017246
0.01023
0.0032135
-0.0041214
0.0019378
0.01023
0.015013
0.0092728
0.013738
0.018521
0.01884
0.020435
0.032553
0.025218
0.025856
0.029364
0.022348
0.01884
0.0099106
-0.0044404
-0.0063538
0.013419
0.014375
0.0070404
0.0054459
0.011505
0.016608
0.019478
0.027132
0.027451
0.020435
0.020116
0.022986
0.016289
0.010548
0.0054459
-0.0047593
-0.0066727
0.008635
0.01023
2.4388e-05
0.0025757
0.0076782
0.012781
0.022029
0.032872
0.022029
0.026175
0.037975
0.026175
0.012143
0.0099106
-0.0063538
-0.0069916
0.0054459
0.013738
0.013738
0.0022568
-0.00061343
0.0025757
0.0028946
0.013419
0.019797
0.0022568
0.0019378
0.011505
0.0054459
0.0003433
-0.0050782
-0.014008
-0.018791
-0.0041214
-0.00093234
-0.0060349
-0.0079484
-0.0031647
0.0035324
0.0073593
0.018202
0.015332
0.0076782
0.0060837
0.01023
0.0035324
-0.0015702
-0.0063538
-0.015921
-0.018791
-0.0038025
-0.0028458
-0.012094
-0.0098618
-0.0047593
0.0016189
0.0060837
0.015332
0.0038513
0.00098112
0.004808
0.0038513
-0.0018891
-0.0076295
-0.014645
-0.022299
-0.017835
-0.0076295
-0.0063538
-0.014008
-0.0095429
-0.0028458
0.0013
0.010548
0.015013
-0.0031647
2.4388e-05
0.0079971
0.0041702
-0.00029452
-0.009224
-0.01911
-0.019429
-0.0050782
-0.0031647
-0.0085862
-0.017197
-0.0076295
-0.009224
-0.0053971
0.01597
0.013738
0.00066221
-0.0076295
-0.0041214
-0.0063538
-0.012413
-0.019748
-0.028996
-0.030591
-0.015283
-0.013689
-0.022618
-0.019748
-0.017197
-0.0089051
0.0003433
0.012462
0.0003433
-0.010181
-0.0085862
-0.002208
-0.0047593
-0.0095429
-0.01624
-0.026126
-0.023575
-0.012732
-0.010819
-0.017197
-0.014645
-0.0079484
-0.0034836
0.004808
0.014056
-0.0018891
-0.0031647
0.0067215
0.0019378
-0.0028458
-0.0079484
-0.015921
-0.022937
-0.011456
-0.0073105
-0.0095429
-0.012094
-0.0069916
-0.0015702
0.0003433
0.011824
0.012143
0.0028946
0.0013
0.0076782
0.0025757
-0.0034836
-0.013689
-0.021024
-0.02198
-0.0047593
-0.0069916
-0.013689
-0.013689
-0.009224
-0.0012513
0.0028946
0.012143
0.0022568
-0.0015702
0.00098112
0.00066221
-0.0050782
-0.010819
-0.014964
-0.026764
-0.023894
-0.014645
-0.011775
-0.020386
-0.016878
-0.011137
-0.0089051
-0.0018891
0.0095917
-0.005716
-0.0063538
0.0013
-0.0047593
-0.01337
-0.019748
-0.023894
-0.029634
-0.02517
-0.019748
-0.019748
-0.022937
-0.020386
-0.014964
-0.014964
-0.0050782
-0.0044404
-0.014327
-0.015602
-0.0098618
-0.015921
-0.021024
-0.026764
-0.035056
-0.039202
-0.022299
-0.021661
-0.028996
-0.02804
-0.023256
-0.016559
-0.010181
-0.00093234
-0.010181
-0.013689
-0.011775
-0.010181
-0.015283
-0.020386
-0.02517
-0.034737
-0.032823
-0.020386
-0.017197
-0.026126
-0.021024
-0.014964
-0.010819
-0.0041214
0.0038513
-0.0089051
-0.0076295
-0.00061343
-0.0028458
-0.010181
-0.016878
-0.023894
-0.028678
-0.018472
-0.012413
-0.012094
-0.015921
-0.012413
-0.0047593
-0.0028458
0.0079971
0.010548
-0.00093234
0.0003433
0.0067215
0.00098112
-0.0028458
-0.0079484
-0.015283
-0.017835
-0.00029452
0.0003433
-0.0041214
-0.0082673
-0.0050782
0.0032135
0.011824
0.02458
0.017883
0.012143
0.010548
0.01023
0.0057648
-0.00093234
-0.0044404
-0.012413
-0.012413
0.0003433
0.0013
-0.0063538
-0.00093234
0.0032135
0.0067215
0.012143
0.02171
0.0089539
0.01023
0.015651
0.011824
0.0054459
-0.0028458
-0.009224
-0.015283
-0.0076295
2.4388e-05
-0.002208
-0.0069916
-0.00061343
0.0051269
0.0025757
0.014694
0.019797
0.0051269
0.0057648
0.013738
0.0057648
-0.00029452
-0.0060349
-0.014327
-0.01624
0.00098112
0.0016189
-0.0060349
-0.0085862
-0.012094
-0.00061343
0.0131
0.022348
0.013738
0.0054459
0.0054459
0.0054459
-0.00093234
-0.0063538
-0.010819
-0.019748
-0.019429
-0.0066727
-0.0047593
-0.013051
-0.011456
-0.0069916
-0.0031647
0.0060837
0.016289
0.0016189
0.00066221
0.0073593
0.0060837
-0.0012513
-0.0073105
-0.010819
-0.026126
-0.025488
-0.0028458
-0.0044404
-0.015921
-0.012094
-0.0060349
-0.0025269
0.0051269
0.008635
-0.0044404
-0.0063538
0.0016189
-0.0044404
-0.0085862
-0.013689
-0.023256
-0.02804
-0.013051
-0.013051
-0.016878
-0.017835
-0.012413
-0.0066727
-0.0015702
0.008316
0.0025757
-0.0031647
-0.0012513
0.00098112
-0.005716
-0.0098618
-0.014327
-0.02517
-0.026764
-0.012094
-0.0098618
-0.017516
-0.015283
-0.011456
-0.0044404
0.0019378
0.010867
-0.0028458
-0.0069916
0.0013
-0.00029452
-0.0050782
-0.013051
-0.019748
-0.027083
-0.022618
-0.013051
-0.010819
-0.015921
-0.012094
-0.0085862
-0.0076295
0.0051269
0.012143
-0.0012513
-0.002208
0.0057648
-0.0012513
-0.0050782
-0.011137
-0.017835
-0.022937
-0.0066727
-0.0082673
-0.013051
-0.012094
-0.0063538
-0.00029452
0.0028946
0.0131
0.011505
0.0057648
0.0079971
0.010867
0.0032135
-0.00029452
-0.005716
-0.015921
-0.020386
0.0003433
0.0035324
-0.011775
-0.0063538
-0.0015702
0.0044891
0.012462
0.01884
0.0051269
0.0019378
0.0070404
0.0057648
0.0016189
-0.0038025
-0.010181
-0.017835
-0.014008
-0.0050782
-0.0047593
-0.0095429
-0.0047593
0.0003433
0.0019378
0.012781
0.019478
0.0032135
0.0054459
0.011505
0.0070404
0.0013
-0.0047593
-0.01337
-0.017516
-0.0050782
-0.0015702
-0.005716
-0.0073105
-0.0044404
0.0022568
0.0076782
0.016927
0.016608
0.0060837
0.0057648
0.0079971
0.004808
0.0003433
-0.005716
-0.01624
-0.017197
-0.0025269
-0.0038025
-0.010819
-0.009224
-0.0031647
0.0022568
0.0079971
0.016289
0.0038513
0.0019378
0.0079971
0.0044891
0.0016189
-0.0044404
-0.012094
-0.02198
-0.017516
-0.0082673
-0.005716
-0.013051
-0.0082673
-0.0015702
2.4388e-05
0.0095917
0.017564
0.0038513
0.0035324
0.0131
0.0067215
0.0016189
-0.0034836
-0.011775
-0.014964
-0.0028458
-0.0028458
-0.0047593
-0.0060349
-0.0015702
0.0044891
0.0057648
0.014694
0.013419
0.0044891
0.0022568
0.0076782
2.4388e-05
-0.0047593
-0.010819
-0.02198
-0.024851
-0.0089051
-0.009224
-0.017516
-0.015921
-0.010181
-0.0041214
-0.00061343
0.0099106
-0.002208
-0.0079484
-0.0012513
-0.0047593
-0.009224
-0.015921
-0.021343
-0.028996
-0.027721
-0.020067
-0.017197
-0.025488
-0.021343
-0.015602
-0.013051
-0.0053971
0.0022568
-0.012094
-0.012413
-0.0060349
-0.009224
-0.01337
-0.020386
-0.027083
-0.032504
-0.018791
-0.015921
-0.017197
-0.01911
-0.014645
-0.0085862
-0.0060349
0.0051269
0.0067215
-0.0018891
-0.002208
2.4388e-05
-0.0031647
-0.0079484
-0.014327
-0.023894
-0.025807
-0.0098618
-0.0105
-0.018791
-0.018153
-0.013689
-0.0060349
-0.00029452
0.0095917
-0.00029452
-0.0050782
-0.0012513
-0.00061343
-0.0066727
-0.012094
-0.014327
-0.025807
-0.021661
-0.011775
-0.0082673
-0.014964
-0.009224
-0.0034836
-0.00029452
0.011186
0.019478
0.0060837
0.008316
0.017564
0.012781
0.011186
0.0070404
2.4388e-05
-0.0038025
0.0060837
0.013738
0.015013
0.010548
0.016289
0.027132
0.032234
0.043077
0.044991
0.034786
0.029683
0.03925
0.040526
0.037656
0.030959
0.020754
0.017246
0.033829
0.034148
0.028407
0.028726
0.034786
0.041483
0.047542
0.057109
0.048818
0.045629
0.048818
0.049774
0.044991
0.037975
0.033191
0.024899
0.026813
0.035423
0.037018
0.028407
0.031915
0.037656
0.038612
0.045947
0.053601
0.042439
0.041164
0.045947
0.049774
0.052326
0.059979
0.05679
0.080709
0.15533
0.14321
0.12153
0.11515
0.11834
0.11419
0.12025
0.1244
0.13843
0.12217
0.11738
0.1059
0.05105
0.022348
-0.0060349
-0.028359
-0.046855
-0.044942
-0.032823
-0.056104
-0.061206
-0.065033
-0.058974
-0.054509
-0.044304
-0.045899
-0.04845
-0.044623
-0.039839
-0.041753
-0.045261
-0.045261
-0.048769
-0.044623
-0.03378
-0.032823
-0.036012
-0.026764
-0.016878
-0.012732
-0.0085862
0.0032135
-0.0079484
-0.0063538
0.0003433
-0.0038025
-0.005716
-0.009224
-0.01624
-0.023894
-0.01337
-0.0050782
-0.0066727
-0.010819
-0.0041214
0.0003433
0.0025757
0.01597
0.017246
0.0067215
0.0060837
0.013419
0.0089539
0.0070404
-0.0012513
-0.012094
-0.01624
0.0003433
0.0019378
-0.0066727
-0.0069916
-0.005716
0.0022568
0.0060837
0.014375
0.016608
0.0057648
2.4388e-05
0.0092728
0.0051269
0.021072
0.028407
0.018202
0.029045
0.058704
0.081346
0.057428
0.059979
0.072417
0.087725
0.11005
0.12855
0.11164
0.14034
0.13939
0.11196
0.085811
0.051369
0.038612
0.035742
0.051369
0.014694
0.0067215
-0.023894
-0.018153
-0.021661
-0.050044
-0.058336
-0.072687
-0.087676
-0.082573
-0.084168
-0.10011
-0.094692
-0.10043
-0.11096
-0.11319
-0.093416
-0.08927
-0.09246
-0.08927
-0.080022
-0.064714
-0.055785
-0.040158
-0.038245
-0.044942
-0.025807
-0.022937
-0.029634
-0.02517
-0.02517
-0.036331
-0.036331
-0.014327
-0.0050782
-0.01624
-0.01624
-0.0018891
-0.0041214
0.0003433
0.0041702
-0.0066727
-0.017835
-0.012413
-0.0073105
-0.014008
-0.021024
-0.026126
-0.036012
-0.031229
-0.022618
-0.033142
-0.029634
-0.018791
0.0028946
0.02777
0.028088
0.028726
0.015651
0.0131
0.02171
0.017564
0.014375
0.019159
0.0057648
-0.0041214
0.023943
0.022029
0.012781
0.0076782
0.01597
0.0054459
0.0057648
0.023305
0.010867
-0.005716
-0.010181
0.016608
0.011824
-0.0085862
-0.026126
-0.012413
-0.021661
-0.011456
-0.03091
-0.032823
-0.016878
-0.0041214
-0.0038025
-0.0034836
0.017564
0.0016189
-0.0041214
-0.0025269
-0.015921
-0.030591
-0.045261
-0.045899
-0.044304
-0.052915
-0.054509
-0.058017
-0.069817
-0.061525
-0.056423
-0.055147
-0.046855
-0.041115
-0.049088
-0.044304
-0.034099
-0.035375
-0.037288
-0.037607
-0.044623
-0.04845
-0.034418
-0.029315
-0.02517
-0.033142
-0.027721
-0.021024
-0.017835
-0.012413
-0.0079484
-0.0073105
-0.0031647
-0.0069916
-0.012732
-0.013689
-0.012094
-0.013051
-0.022299
-0.011456
-0.00029452
-0.0053971
-0.0041214
0.0013
0.0054459
0.01023
0.020435
0.0051269
0.0028946
0.0060837
-0.00093234
-0.0098618
-0.014008
-0.014645
-0.0073105
0.020116
0.014694
0.01597
0.028088
0.050731
0.047223
0.085492
0.11069
0.13397
0.095378
0.088362
0.090914
0.076244
0.063806
0.091552
0.067633
0.028088
0.031915
-0.00061343
-0.046855
-0.053552
-0.052915
-0.051001
-0.073963
-0.077152
-0.080979
-0.092141
-0.099157
-0.10266
-0.10171
-0.10394
-0.10553
-0.11478
-0.11159
-0.092141
-0.082892
-0.074919
-0.056742
-0.03665
-0.026445
-0.0044404
0.012143
0.016927
0.012781
0.037337
0.048499
0.052007
0.05105
0.034786
0.025537
0.019159
0.026813
0.020754
-0.0031647
-0.0089051
-0.0085862
-0.036012
-0.028359
-0.021661
-0.063439
-0.063439
-0.019429
0.01597
0.023305
0.016927
0.075287
0.11483
0.12759
0.099524
0.10016
0.097611
0.1008
0.093784
0.11866
0.12536
0.080071
0.056471
0.00098112
-0.048131
-0.11797
-0.12307
-0.14093
-0.16294
-0.16485
-0.16262
-0.13328
-0.11702
-0.12658
-0.11733
-0.10968
-0.093735
-0.052915
-0.06312
-0.058336
-0.06025
-0.047493
-0.060887
-0.0864
-0.11383
-0.10841
-0.091822
-0.083849
-0.11287
-0.12977
-0.11829
-0.073963
-0.054828
-0.032186
-0.031548
-0.0041214
-0.014327
0.0003433
0.032234
0.033191
0.031915
0.019159
0.016608
0.011824
0.004808
0.041164
0.051369
0.035104
0.02777
0.00066221
0.044353
0.031278
0.008635
-0.0085862
0.0070404
0.023943
0.064763
0.07433
0.14258
0.18499
0.18946
0.13716
0.096654
0.1075
0.12249
0.10622
0.096335
0.08613
0.098249
0.081346
0.058704
-0.029953
-0.11733
-0.10362
-0.11191
-0.16294
-0.19387
-0.19292
-0.19068
-0.17888
-0.19515
-0.20025
-0.14572
-0.10458
-0.11223
-0.13934
-0.1269
-0.096605
-0.097881
-0.079065
-0.088952
-0.10458
-0.065671
-0.047174
-0.042391
-0.059293
-0.058017
-0.032823
-0.014327
0.030959
0.089
0.11005
0.079114
0.073374
0.10016
0.098249
0.093146
0.14098
0.13492
0.12344
0.16554
0.13014
0.083898
0.10973
0.14034
0.15725
0.14194
0.13492
0.064444
0.037656
0.021072
0.051688
0.020435
-0.012413
0.00098112
-0.059293
-0.067585
-0.041753
-0.096924
-0.1269
-0.10713
-0.069817
-0.069817
-0.043028
-0.010819
-0.015283
-0.036331
0.008635
0.030321
0.037018
0.0067215
0.028726
0.039569
0.041802
0.011186
-0.024851
-0.03378
-0.038245
-0.046855
-0.10235
-0.10266
-0.11765
-0.10872
-0.10553
-0.10522
-0.12499
-0.10745
-0.10777
-0.098519
-0.051958
-0.043347
-0.042072
-0.026445
-0.0069916
0.017883
0.056153
0.066358
0.14832
0.11643
0.087406
0.097611
0.09506
0.071779
0.050412
0.0131
-0.0063538
0.048818
0.087725
0.12376
0.061574
0.085811
0.15119
0.10335
0.077201
0.069228
0.082303
0.077838
0.094741
0.10495
0.09793
0.08326
0.036061
-0.047174
-0.028678
-0.047174
-0.052277
-0.078427
-0.11893
-0.11096
-0.13009
-0.13137
-0.12084
-0.13519
-0.13041
-0.081617
-0.072687
-0.050682
-0.060887
-0.073006
-0.067266
-0.03665
2.4388e-05
0.042121
0.025218
0.11356
0.096973
0.15023
0.22262
0.19647
0.12344
0.089319
0.087725
0.060936
0.045629
0.05679
0.022348
0.020116
2.4388e-05
-0.044304
-0.11925
-0.097562
-0.047174
-0.06312
-0.045261
-0.018153
-0.045899
-0.024851
0.0079971
0.041164
0.047861
0.10782
0.095697
0.066358
0.058385
0.083579
0.10399
0.11005
0.062212
0.022986
-0.026445
-0.055466
0.0076782
-0.0063538
0.011186
0.045629
0.030321
-0.024213
0.01023
0.092508
0.066358
0.11005
0.16363
0.23442
0.24909
0.19902
0.17766
0.20572
0.20381
0.20827
0.17224
0.13333
0.1126
0.0038513
-0.11032
-0.098519
-0.095968
-0.10809
-0.12148
-0.17761
-0.19866
-0.24968
-0.26595
-0.22194
-0.12786
-0.059612
-0.039202
-0.041434
-0.066309
-0.058017
0.019159
0.0013
0.030959
-0.0034836
0.0041702
-0.01624
-0.021343
-0.060569
-0.068222
-0.050044
-0.062163
-0.078427
-0.085762
-0.085125
-0.084806
-0.11383
-0.13679
-0.11478
-0.06025
-0.0066727
0.056153
0.12727
0.18372
0.26344
0.22741
0.17351
0.20317
0.19615
0.24208
0.24048
0.31351
0.31957
0.2526
0.29374
0.19424
0.095378
0.062531
0.05105
0.022348
-0.021343
-0.015283
0.030321
0.050093
0.054877
0.13365
0.011824
0.0089539
-0.016559
0.0038513
-0.088314
-0.038564
0.07433
0.20732
0.085173
0.029045
0.063169
-0.043347
-0.096286
-0.12084
-0.10553
-0.093416
-0.041115
-0.064714
-0.22513
-0.27934
-0.19547
-0.1454
-0.14859
-0.21779
-0.26148
-0.23469
-0.15656
-0.068541
0.031278
0.12057
0.094422
0.23442
0.39611
0.41397
0.37474
0.39802
0.34062
0.31989
0.30139
0.2577
0.31415
0.36135
0.31893
0.2829
0.14736
-0.011137
-0.041434
-0.078746
-0.041753
-0.053871
-0.080341
-0.08066
-0.086081
-0.09533
-0.13041
-0.26021
-0.10649
0.03064
-0.057379
-0.15273
-0.22544
-0.18367
-0.15401
-0.063439
-0.1202
-0.088633
-0.048769
-0.005716
0.014375
0.011186
0.049137
0.13524
0.048818
0.023305
0.022667
0.040526
0.0019378
-0.00029452
0.014694
-0.017197
-0.04271
-0.058655
-0.081935
0.015332
-0.064395
-0.11191
-0.16294
-0.11032
-0.085443
-0.071093
-0.082254
-0.022618
-0.010819
0.029364
0.14066
0.17798
0.099524
0.13779
0.11802
0.069866
0.054877
0.079114
0.13939
0.11834
0.033191
-0.06025
-0.06312
-0.079703
-0.11255
-0.12339
-0.18494
-0.20599
-0.23374
-0.21492
-0.25574
-0.18112
0.039888
0.19807
0.22645
0.14704
0.10176
0.099205
0.052007
0.1362
0.23984
0.24622
0.18435
0.01597
0.074012
0.06859
-0.013689
-0.12212
-0.14763
-0.19355
-0.23565
-0.25
-0.26595
-0.21907
-0.19802
-0.18144
-0.049088
-0.059612
0.01884
0.083579
0.032872
0.053282
0.17064
0.32149
0.30682
0.36581
0.30809
0.22549
0.14066
0.19041
0.16107
0.18627
0.10016
0.012781
0.15948
0.28545
0.09793
0.042439
-0.055466
-0.056423
-0.058655
-0.033142
-0.038564
0.086768
0.10845
-0.0028458
-0.1151
-0.088952
-0.058336
-0.10713
-0.18686
-0.14604
-0.11159
-0.10458
-0.15624
-0.16677
-0.16932
-0.21333
-0.17538
-0.095011
-0.043028
-0.087038
-0.13487
0.020116
0.26536
0.19169
0.099843
0.13875
0.079114
0.11962
0.1413
0.16044
0.20476
0.11834
0.016608
0.1008
0.089957
0.02777
-0.050682
-0.19611
-0.18813
-0.15943
-0.23948
-0.2905
-0.20312
-0.081935
-0.070455
-0.061525
-0.036331
0.060617
0.288
0.37474
0.27811
0.32595
0.26918
0.16968
0.10909
0.20668
0.19552
0.21912
0.14226
0.1244
0.0041702
-0.036331
-0.16039
-0.12371
-0.10649
-0.090546
-0.11128
-0.13328
-0.1521
-0.18239
-0.15656
-0.14572
-0.13711
-0.20918
-0.091184
-0.10745
-0.09533
-0.11191
-0.11064
-0.13169
0.069866
0.16171
0.038294
0.030002
0.071141
0.069228
0.12472
0.19233
0.31734
0.21019
0.062531
0.16331
0.40504
0.28258
0.10909
0.07752
0.052963
0.04531
-0.023575
-0.012413
0.044991
-0.062801
-0.11064
0.064763
0.12631
0.066995
-0.10809
-0.15146
-0.13328
-0.17346
-0.16517
-0.21524
-0.21652
-0.30836
-0.21109
-0.17888
-0.20472
-0.15465
-0.23565
-0.30326
-0.22257
-0.17091
-0.13073
-0.10617
0.14927
0.28481
0.13333
0.19998
0.16586
0.1531
0.27524
0.31702
0.36422
0.36135
0.13142
0.1598
0.22964
0.26791
0.30012
0.090276
-0.090227
-0.14923
-0.11733
-0.13073
-0.10458
-0.092141
-0.15847
-0.18845
-0.075876
-0.049407
-0.12595
-0.16453
-0.18239
-0.0079484
-0.0063538
0.015332
0.16076
0.11292
0.036699
-0.068541
0.046585
0.071779
0.12918
0.080709
0.040207
-0.050682
-0.05132
0.20158
0.10112
-0.064714
-0.16039
-0.18845
-0.19068
-0.1741
-0.12754
-0.14253
-0.31442
-0.21811
-0.086719
-0.12786
-0.22608
-0.24586
-0.26053
-0.087995
-0.076514
-0.15943
-0.043666
0.053282
0.093146
0.041483
0.229
0.16554
0.15501
0.15693
0.15533
0.054239
0.1413
0.21082
0.096973
-0.010819
0.099524
-0.079703
0.088044
0.0073593
-0.14061
-0.20248
-0.21301
-0.20376
-0.20121
-0.20376
-0.14444
-0.23756
-0.096924
-0.035056
-0.022299
-0.051639
-0.11446
-0.081617
-0.071411
-0.12307
-0.048769
0.026813
-0.035056
0.012143
0.048818
0.059661
0.11419
0.11515
0.15055
0.1126
-0.059612
-0.0038025
0.20987
0.24654
0.22677
0.042121
-0.13137
0.095697
0.17383
0.015013
-0.13774
-0.17825
-0.11159
-0.12339
-0.088314
-0.073006
-0.11128
-0.15305
-0.18048
-0.16198
-0.13328
-0.10394
0.00066221
0.13939
-0.010181
0.064763
0.12249
-0.023894
-0.056742
-0.051639
-0.051958
-0.0982
-0.092141
-0.050044
-0.12244
-0.20089
-0.071411
-0.039202
-0.021343
-0.17442
-0.15401
-0.048769
0.24527
0.25547
0.014694
0.0079971
0.030002
0.087087
0.14545
0.083579
0.13747
0.13205
0.068909
0.0076782
0.07433
0.0044891
-0.20472
-0.18207
-0.2095
-0.29178
-0.19834
-0.12116
-0.13169
-0.13456
-0.10617
-0.15847
-0.10872
0.080709
-0.12467
-0.23087
-0.11702
-0.11064
-0.072368
-0.079703
-0.11829
-0.18431
-0.30868
-0.17059
-0.12212
-0.12754
-0.25287
-0.2095
-0.18909
-0.19324
-0.15082
-0.076833
-0.041434
-0.018153
0.069228
0.21274
0.28991
0.18818
0.020754
0.055196
0.042439
0.2105
0.13939
0.26217
0.094741
0.050412
0.11037
0.052963
0.076244
0.047542
0.058704
-0.044623
-0.046218
-0.009224
0.17032
0.059661
0.14417
0.083898
-0.023575
0.034148
-0.050363
-0.060569
0.071141
0.2223
0.087725
-0.01624
0.064763
0.041164
-0.084806
-0.1403
-0.06312
0.1311
-0.038245
-0.12212
-0.18303
-0.1859
-0.13998
-0.18239
-0.18813
-0.16772
-0.14636
-0.17123
-0.23246
-0.24745
-0.18048
0.029045
0.16363
0.011824
-0.070455
-0.020386
-0.053871
0.049455
0.10622
0.0131
0.043396
-0.030591
-0.096286
0.011186
-0.044942
-0.14731
-0.22736
-0.20695
-0.20886
-0.2382
-0.25893
-0.20185
-0.1757
0.012462
-0.0085862
0.1598
0.0022568
0.055515
0.031278
0.17734
0.37921
0.34477
0.18659
0.16618
0.13556
0.17319
0.14481
0.04818
-0.045899
-0.037926
-0.21492
-0.13424
-0.11893
-0.17601
-0.1741
-0.26786
-0.21652
-0.1741
0.083579
0.17383
0.028726
-0.002208
0.069228
0.21338
0.22135
0.030959
-0.10681
0.064125
0.15788
0.12344
-0.15528
-0.19866
-0.19993
-0.1336
-0.18144
-0.29784
-0.30964
-0.31952
-0.30517
-0.27998
-0.27615
-0.24873
-0.20854
-0.038883
0.0131
-0.11191
0.17702
0.15852
0.15788
-0.0018891
-0.02198
0.14864
0.23028
0.035104
0.034786
0.035104
0.089638
0.081028
-0.087676
-0.11415
-0.039202
-0.10171
-0.17857
-0.16453
-0.15273
-0.092141
-0.067903
-0.058017
0.10016
0.021072
-0.04271
0.09793
0.28736
0.15183
0.28322
0.23825
0.34859
0.31734
0.2341
0.13556
0.063806
0.0070404
0.10877
0.089
-0.0095429
0.049774
-0.077152
-0.15815
-0.24203
-0.29146
-0.32335
-0.26882
-0.14986
-0.21365
-0.17123
-0.25957
-0.11797
-0.069817
-0.35269
-0.19674
0.023943
0.022986
-0.016878
-0.1151
-0.09533
-0.061844
-0.08927
-0.12722
-0.1438
-0.12148
-0.11542
-0.094054
-0.094692
0.1598
0.745
0.60563
0.26536
0.13524
0.14896
0.058704
-0.097562
0.061574
0.15119
0.41684
0.33201
0.19169
-0.021343
-0.29178
-0.35811
-0.34727
-0.30517
-0.24586
-0.11861
-0.17761
-0.023575
0.062212
0.13173
-0.022618
-0.037926
0.023943
0.023624
-0.069498
-0.010181
0.10303
0.090914
0.051369
-0.012732
-0.14444
-0.23278
-0.18494
-0.16485
-0.1977
-0.16677
-0.15273
-0.16326
-0.16517
-0.12499
-0.019429
0.24271
0.19743
0.074012
0.26695
0.16713
0.037656
-0.11191
0.028726
0.14736
0.14098
0.17606
0.11388
0.017564
-0.074282
-0.14285
-0.16581
-0.21173
-0.25925
-0.20312
-0.21173
-0.20344
-0.17155
-0.11319
-0.058017
-0.078746
-0.021343
-0.0073105
0.042758
0.048818
-0.0105
0.012781
0.15438
0.16554
0.10367
0.043396
0.043077
0.29597
0.25994
0.25643
0.10144
0.1075
0.065082
0.083898
0.044991
0.017564
0.042439
0.088681
0.065401
-0.031229
-0.11191
-0.09246
-0.14125
-0.22321
-0.16007
-0.10777
-0.087995
-0.079703
0.042121
0.022986
-0.0018891
0.0038513
0.008635
0.04818
-0.024532
-0.014008
-0.019748
-0.0025269
0.015651
-0.0018891
-0.056742
-0.13169
-0.15752
-0.13328
-0.056104
-0.072049
-0.12116
-0.16007
-0.13519
-0.046536
-0.064395
0.013738
0.078476
0.091233
0.046585
0.008316
0.029364
0.030321
0.066995
0.11419
0.13779
0.062212
0.044353
0.13971
0.092189
0.092827
0.061893
0.10718
0.058385
0.11579
0.069547
0.058704
0.074649
0.053601
0.03351
-0.059293
-0.060569
0.0051269
0.090914
0.062212
0.17511
0.17542
-0.020386
-0.08353
-0.015921
0.063169
-0.012413
-0.044942
0.061574
0.0092728
-0.07779
-0.079703
-0.15082
-0.055785
-0.072368
-0.16103
-0.18112
-0.18718
-0.16517
-0.15465
-0.12722
-0.13456
-0.12467
-0.10553
-0.09533
-0.093735
-0.090227
-0.08927
0.00098112
0.0035324
-0.018791
-0.022937
0.00098112
0.088362
0.0057648
0.069547
0.14481
0.13556
0.087725
0.063169
0.052645
-0.0015702
0.0022568
0.11962
0.10271
0.020116
0.067633
0.11866
0.029364
0.098249
0.077838
-0.031867
0.092508
0.29916
0.16394
-0.016559
-0.009224
0.093146
0.083898
0.044034
0.03064
-0.0031647
0.045629
0.064125
-0.009224
-0.039202
-0.024213
-0.015602
-0.073006
-0.051001
-0.072049
-0.11128
-0.05419
-0.069817
-0.086719
-0.10681
-0.079703
-0.11829
-0.15592
-0.12499
-0.099157
-0.058974
-0.055147
-0.081617
-0.021024
0.0016189
-0.0098618
0.017246
0.15119
0.10495
0.1311
0.0060837
0.040207
0.08613
0.019478
0.019797
-0.023256
0.0013
0.10144
0.085811
0.05105
0.017883
-0.0044404
0.029045
-0.082573
0.028088
0.096973
0.1582
0.063806
0.0038513
-0.035694
-0.028678
-0.073963
-0.041115
0.019478
-0.028678
-0.059612
-0.023256
-0.089908
-0.092778
-0.016559
-0.027402
0.0028946
0.033829
-0.02198
-0.045261
-0.080979
-0.01624
-0.020067
0.053601
0.16745
0.17861
0.047542
0.008635
-0.00093234
-0.038564
-0.11064
0.047542
0.075287
0.039569
-0.039202
-0.048131
-0.051001
-0.066947
-0.069498
0.022348
0.0076782
-0.093097
-0.052915
-0.043985
-0.019748
-0.10298
-0.058974
0.028088
2.4388e-05
0.0057648
-0.018791
-0.057698
-0.097881
-0.085443
-0.076833
-0.052277
-0.060887
-0.02804
-0.011137
0.052645
0.023943
0.15661
0.082303
0.092827
0.061255
-0.0038025
0.070503
0.090595
0.10271
0.078795
0.03925
0.048499
0.014056
0.026175
0.11388
0.031596
-0.032823
0.03925
0.041483
0.062531
-0.065671
0.0044891
0.024262
-0.033142
-0.082892
-0.04271
-0.03952
0.01597
-0.10553
-0.14986
-0.14827
-0.12276
-0.11478
-0.0982
0.060298
-0.0028458
-0.028678
0.015332
0.011505
0.0070404
-0.052915
0.015651
0.034467
2.4388e-05
-0.027721
-0.030272
-0.038245
-0.07779
-0.089908
-0.11096
-0.1033
-0.072368
-0.064714
-0.058974
-0.064714
-0.050363
-0.02804
-0.01624
0.075925
0.1008
0.075925
0.10813
0.16841
0.086768
0.05105
0.075287
0.026813
0.017246
0.08039
0.14353
0.074649
-0.0073105
-0.031548
-0.073644
-0.097243
-0.1202
-0.13519
-0.13902
-0.13073
-0.12052
-0.08927
-0.095011
-0.091503
-0.057698
-0.051639
-0.043028
-0.022299
-0.068222
-0.011456
-0.026445
-0.02198
0.028088
0.059023
0.049774
0.065401
0.055196
0.12823
0.15406
0.17287
0.15246
0.18021
0.041802
0.0041702
0.19265
0.21274
0.069547
-0.017835
0.046266
0.028407
-0.040158
-0.07173
-0.12786
-0.16198
-0.16007
-0.15241
-0.1403
-0.14093
-0.12339
-0.058974
-0.095968
-0.093735
-0.044942
-0.039839
-0.03378
-0.061206
0.084854
0.17798
-0.020067
-0.041753
-0.018791
0.040845
0.055196
-0.0047593
0.07146
0.061255
0.015332
-0.011137
-0.039202
0.044991
0.17606
0.09506
-0.0105
-0.036969
-0.031548
-0.055466
-0.07173
-0.0044404
-0.032504
0.1413
0.11483
0.020754
0.008635
-0.067266
-0.062801
-0.11478
-0.053552
0.022986
-0.0044404
-0.039202
-0.056742
-0.086719
-0.091822
-0.088633
-0.091503
-0.10107
-0.11128
-0.058336
0.0044891
0.069866
0.05679
0.066039
0.059342
0.16458
0.17255
0.059661
0.17415
0.12982
0.1665
0.09506
-0.020386
-0.070455
0.042121
0.094741
-0.019748
-0.097881
-0.096286
-0.10872
-0.011456
-0.11096
-0.076514
0.093465
-0.014327
-0.091822
-0.098838
-0.10522
-0.027721
-0.021024
0.017246
0.050731
0.0051269
-0.058336
-0.047174
-0.072687
-0.11255
-0.10681
-0.031229
-0.063439
-0.016559
0.094741
0.050412
0.04531
-0.038883
0.029683
0.17638
0.077838
0.04818
0.064444
0.16012
0.10782
-0.028359
-0.10458
0.015013
0.054558
-0.053234
-0.096286
-0.10011
-0.13073
-0.16581
-0.18941
-0.18877
-0.16039
-0.14125
-0.0044404
0.27716
0.28162
0.050412
0.0092728
0.071779
0.13237
0.070503
-0.063758
0.0060837
0.15916
0.16554
0.11962
-0.061844
-0.15146
-0.14891
-0.19132
-0.23278
-0.20153
0.0099106
-0.0073105
-0.094692
-0.11861
-0.080341
-0.051001
-0.034099
-0.030272
-0.031867
0.022986
-0.0089051
-0.022299
0.013419
0.0051269
0.042758
0.058385
-0.033461
-0.01624
0.11196
0.14609
0.25228
0.26281
0.21912
0.1649
0.10431
0.10558
0.12567
0.090276
0.076563
0.23538
0.096335
0.016927
-0.029953
-0.061525
-0.10075
-0.1218
-0.16868
-0.16294
-0.13806
-0.14253
-0.14636
-0.20982
-0.1572
-0.11383
-0.052915
-0.16581
-0.039839
-0.087357
-0.10809
0.05105
0.10463
0.030959
-0.042391
0.016608
0.090595
0.099843
0.035423
-0.059293
-0.021343
-0.015283
0.063487
0.088681
0.0035324
-0.072687
-0.097562
-0.069179
-0.074601
-0.063439
-0.024532
0.067633
0.055515
0.089638
0.04818
0.056153
0.089
0.041802
0.035104
0.034148
0.07752
0.11037
0.148
0.15852
0.11675
0.02171
0.060936
0.087087
0.16044
0.1311
-0.0015702
0.074649
0.0057648
0.01884
-0.0028458
-0.043028
-0.0982
-0.10394
-0.033142
-0.033142
-0.080979
-0.053871
-0.036969
-0.14189
-0.1438
-0.13137
-0.13328
-0.1336
-0.081617
-0.10266
-0.24649
-0.12595
-0.11191
-0.049407
-0.043985
-0.11638
-0.12595
-0.12084
-0.11383
-0.084806
-0.043347
-0.024532
0.015332
0.02458
0.053282
0.022029
-0.029953
0.081665
0.19328
0.12089
0.041802
0.088044
0.083579
0.065082
0.11675
0.077838
0.12759
0.12599
0.17606
0.10526
0.10813
0.052963
0.025537
0.059023
0.099205
0.021391
-0.046855
-0.043985
-0.00029452
-0.050363
-0.057379
-0.036012
0.030002
0.034148
0.028088
-0.068541
-0.13105
-0.10872
-0.068541
-0.12212
-0.031867
-0.056742
-0.093416
-0.1336
-0.070455
-0.074919
-0.091184
-0.14125
-0.16677
-0.089589
-0.062801
-0.074282
0.096335
0.17192
0.148
0.06859
0.096654
0.10718
0.10431
0.070822
0.01597
0.037018
0.12249
0.15342
0.18308
0.070503
0.012143
-0.043028
-0.078427
-0.082254
-0.024532
-0.04558
0.02458
0.08613
0.0057648
-0.047812
-0.011137
0.070185
0.057109
-0.002208
0.021391
0.075925
0.059661
0.0067215
-0.0041214
-0.078109
0.01884
-0.005716
-0.093416
-0.089908
-0.10107
-0.11223
-0.11925
-0.11
-0.11638
-0.0982
-0.097881
-0.16708
-0.13647
-0.064714
-0.036331
-0.010181
-0.0095429
-0.077471
-0.048131
-0.018791
0.0073593
-0.043028
-0.031229
-0.052596
-0.0098618
0.061893
0.20859
0.16522
0.058704
0.0060837
0.14226
0.19711
0.28449
0.20668
0.15374
0.080709
0.10558
0.13971
0.1767
0.1244
0.057747
2.4388e-05
0.070185
0.023305
-0.029315
-0.050682
-0.084806
-0.16421
-0.026126
0.017246
-0.075876
-0.080979
-0.10649
-0.15879
-0.085443
-0.10362
-0.024851
0.026494
0.019478
-0.0073105
-0.041753
-0.056104
-0.028996
0.072098
0.040526
-0.014327
0.020754
0.021072
0.029045
0.030321
-0.014964
-0.074919
-0.10585
-0.084806
-0.028359
0.11388
0.10048
0.022986
0.03925
0.053601
0.087406
0.059023
0.011505
0.066358
0.07146
0.024262
0.010867
0.040526
-0.0041214
-0.11223
-0.15082
-0.19228
-0.16198
-0.15624
-0.15273
-0.1572
0.054877
0.11132
0.08613
0.17096
0.13811
0.067314
0.11037
0.22645
0.22103
0.18882
0.13588
0.098249
0.026494
0.046266
0.044353
-0.031867
-0.11893
-0.14954
-0.17665
-0.20025
-0.21014
-0.22895
-0.2516
-0.17984
-0.15847
-0.11032
-0.087357
-0.082254
-0.081935
0.027132
0.029683
0.04531
0.052326
0.010867
0.045629
0.032234
0.089
0.068271
0.046266
-0.029315
-0.023894
-0.0089051
-0.064077
-0.16645
-0.17793
-0.17506
-0.11383
-0.10745
-0.023894
0.03064
-0.043347
-0.065352
-0.053871
0.068271
0.069228
0.066995
0.13971
0.20189
0.15023
0.087087
0.16203
0.049137
0.02777
0.049137
0.06285
0.0057648
-0.067266
-0.06599
-0.062163
-0.12786
-0.1151
-0.1269
-0.14795
-0.14699
-0.17601
-0.12212
-0.090865
-0.12818
-0.132
-0.07779
-0.041753
-0.037288
-0.0864
-0.046855
0.031596
0.024899
-0.015921
0.038931
-0.048131
-0.037288
0.011505
-0.02804
-0.10394
-0.18175
-0.12595
-0.056104
-0.08066
-0.11765
-0.13647
-0.12467
-0.10904
-0.044304
0.084217
0.092189
0.16937
0.2003
0.12599
0.052645
0.11005
0.207
0.27237
0.23379
0.18085
0.11419
0.042758
0.079752
0.13269
0.0079971
-0.15178
-0.13392
-0.069817
-0.094054
-0.16581
-0.17538
-0.19834
-0.21014
-0.1505
-0.085762
-0.0982
-0.087357
-0.027402
0.027451
0.01597
0.019797
0.06859
0.087725
0.041483
0.010548
0.040207
0.017883
0.0067215
-0.037926
-0.050682
-0.084487
-0.20982
-0.17123
-0.13328
-0.18271
-0.22672
-0.22098
-0.21524
-0.19642
-0.12818
-0.093416
-0.052915
0.097611
0.18117
0.16873
0.11324
0.13365
0.10718
0.11069
0.11324
0.16139
0.21401
0.081346
0.0095917
0.037018
0.00098112
-0.070136
-0.132
-0.20631
-0.22576
-0.26244
-0.25383
-0.25638
-0.2551
-0.1556
-0.081617
-0.044304
-0.015921
0.052326
0.011505
0.0060837
0.066358
0.094422
0.092189
0.07146
0.029683
0.1008
0.11037
0.052963
-0.038245
-0.10394
-0.18239
-0.17857
-0.11797
-0.086719
0.038612
0.067952
0.088362
0.060936
0.012781
-0.00029452
0.012781
0.082941
0.11675
0.094422
0.046266
0.054239
-0.066309
0.011186
-0.088314
-0.15624
-0.19228
-0.22417
-0.23469
-0.24171
-0.12467
-0.15082
-0.17346
-0.18526
-0.16103
-0.072687
-0.012732
0.075287
0.066039
0.0089539
0.0073593
-0.0073105
0.045629
0.064125
0.085492
0.038612
0.014375
0.0067215
0.040845
0.032234
-0.005716
-0.0082673
0.035742
0.026494
-0.014645
-0.029315
-0.025488
-0.0015702
0.046266
0.043715
0.067314
0.017564
0.04531
0.076563
0.04818
0.063487
0.033829
-0.036331
-0.012094
0.040526
0.09793
0.096335
0.018521
-0.027402
-0.017516
-0.038883
-0.031229
0.01884
0.035742
0.022348
-0.025488
-0.053234
-0.046218
-0.10011
-0.10235
-0.084487
-0.083211
-0.13519
-0.10649
-0.091503
-0.087995
-0.065352
-0.035056
-0.032504
0.0064026
0.0022568
0.053601
0.12249
0.066358
0.039569
0.066995
0.084854
0.047223
0.029045
0.018521
-0.04271
-0.067585
-0.088314
-0.081298
-0.11191
-0.15018
-0.16007
-0.12467
-0.034099
-0.019748
-0.0012513
0.0032135
0.021072
0.044991
0.027132
-0.018472
0.019478
0.047861
0.0041702
-0.041434
-0.012732
-0.01337
-0.072687
-0.13774
-0.14699
-0.14253
-0.18718
-0.22002
-0.21109
-0.19196
-0.1623
-0.13105
-0.1454
-0.14476
-0.13743
-0.11574
-0.061525
-0.012413
0.032872
0.073374
0.11069
0.10431
0.11356
0.090595
0.094422
0.11898
0.14513
0.11356
0.057747
0.057109
0.0025757
-0.022618
0.00066221
-0.078427
-0.070136
-0.055466
0.01023
0.008316
0.0079971
-0.042072
-0.053234
-0.049407
-0.022299
0.080071
0.17861
0.24208
0.10782
2.4388e-05
0.034148
0.031915
0.027132
-0.00061343
0.0095917
-0.065671
-0.080341
-0.048131
-0.030272
-0.026764
-0.10426
-0.16071
-0.17219
-0.13009
-0.096605
-0.085443
-0.0864
-0.079703
-0.074919
-0.067903
-0.11191
-0.086081
-0.057698
-0.074919
-0.079384
-0.08353
-0.058655
-0.080022
-0.062801
-0.059612
-0.056742
-0.047493
-0.047493
-0.050682
-0.024851
0.0073593
0.01884
0.044034
0.03064
0.048499
0.063806
0.093465
0.11643
0.10016
0.07433
0.027451
0.044991
0.040207
0.055196
0.18085
0.15501
0.087725
0.068271
0.036061
0.078795
0.13971
0.15629
0.18148
0.1665
0.099843
0.075287
0.12312
0.11037
0.094422
0.087725
-0.0038025
-0.0047593
-0.076195
-0.14763
-0.1403
-0.14221
-0.1438
-0.1151
-0.13009
-0.16326
-0.2095
-0.20759
-0.21747
-0.20153
-0.17952
-0.17442
-0.13264
-0.12818
-0.14859
-0.12371
-0.097562
-0.097243
-0.0982
-0.08353
-0.061206
-0.028359
-0.021024
0.013419
0.008316
0.05105
0.060936
0.063487
0.080709
0.1346
0.11993
0.089638
0.10526
0.14034
0.13875
0.092508
0.060298
0.098886
0.070185
0.06859
0.057747
0.0028946
-0.053552
-0.071411
-0.063758
-0.082892
-0.11733
-0.12754
-0.099794
-0.065671
0.012462
0.019797
0.060617
0.088681
0.11866
0.083898
0.10367
0.14258
0.17542
0.13556
0.1059
0.096335
0.13365
0.087406
0.00098112
-0.048769
-0.055147
-0.088633
-0.10553
-0.10298
-0.13456
-0.12658
-0.10936
-0.054828
-0.053871
-0.043028
0.018202
0.032872
0.032234
0.029683
0.073055
0.085173
0.1413
0.14385
0.17032
0.13046
0.02458
0.030002
0.068909
0.035742
0.022029
-0.058017
-0.09246
-0.081617
-0.11702
-0.17187
-0.15975
-0.17442
-0.19355
-0.18175
-0.16007
-0.14667
-0.12052
-0.012413
0.054877
0.01597
0.028407
0.0095917
0.04531
0.042439
0.065401
0.086449
0.10813
0.12121
0.072736
0.010867
0.0131
0.01884
0.040526
-0.0025269
-0.0060349
0.0051269
0.015651
0.0067215
0.004808
0.0057648
-0.015283
0.0041702
-0.027721
-0.01337
0.031915
-0.016878
-0.037926
-0.056423
-0.049726
-0.035375
-0.051001
-0.062163
-0.070774
-0.058655
-0.011137
-0.022618
-0.011137
0.037975
0.032234
0.021391
-0.00061343
-0.024851
-0.020705
-0.0038025
0.027451
0.12695
0.12057
0.096654
0.061255
0.042439
0.044991
0.10048
0.10782
0.10813
0.095378
0.072417
0.026494
-0.015283
0.011824
-0.015921
0.033829
0.085492
0.08039
-0.0044404
-0.014327
0.0067215
2.4388e-05
0.011186
0.05679
0.066039
0.062531
0.069228
0.044991
0.010548
-0.0044404
0.004808
0.0054459
0.023624
0.019478
-0.0028458
-0.047493
-0.04271
-0.05419
-0.043985
-0.032823
-0.039839
-0.070136
-0.11606
-0.097881
-0.042391
-0.057698
-0.087357
-0.11319
-0.097562
-0.090546
-0.078427
-0.043347
0.008635
0.020116
0.022986
0.055196
0.08039
0.067633
0.060936
0.066677
0.06285
0.056471
0.071779
0.047861
0.049455
0.050412
0.021072
0.0044891
-0.0066727
-0.023256
-0.028678
-0.032186
-0.010181
0.0041702
-0.005716
-0.011775
0.0032135
0.018202
0.021072
0.039888
0.023624
0.076244
0.11451
0.1126
0.11866
0.14449
0.17893
0.14098
0.13142
0.13875
0.12886
0.089
0.073055
0.064444
0.084536
0.049137
0.0003433
-0.026764
-0.070136
-0.074919
-0.084806
-0.094054
-0.085762
-0.065033
-0.053871
-0.044942
-0.019748
0.0016189
0.03638
0.10239
0.12631
0.10654
0.078157
0.050412
0.050412
0.076244
0.092508
0.13205
0.11962
0.12057
0.095697
0.035104
0.02171
0.037656
0.020116
-0.0018891
-0.0073105
-0.032823
-0.033142
-0.026445
-0.029953
-0.040477
-0.01911
-0.029953
-0.042072
-0.015283
-0.0095429
0.0044891
0.021391
0.042439
0.031915
0.02458
0.047223
0.048818
0.039888
0.042758
0.053601
0.052007
0.026494
0.056153
0.064125
0.055515
0.064763
0.068909
0.061574
0.069547
0.072098
0.032553
0.011824
0.034786
0.029045
0.04531
0.05392
0.028726
0.015013
-0.0089051
0.015013
0.022986
0.038612
0.044034
0.039569
0.070185
0.099843
0.074968
0.061255
0.099524
0.11611
0.10782
0.079752
0.045629
0.055515
0.072098
0.061893
0.034467
0.03351
0.038294
0.020435
-0.0063538
-0.0105
0.025856
0.012143
-0.012732
-0.01337
-0.0041214
-0.0079484
-0.012094
0.0019378
-0.020705
-0.013689
-0.0012513
0.0003433
-0.0069916
0.0022568
0.014056
0.03638
0.050412
0.054239
0.051688
0.039569
0.037337
0.037018
0.05392
0.06285
0.046266
0.074968
0.089
0.11324
0.11451
0.085173
0.090595
0.10208
0.10909
0.12599
0.12567
0.094103
0.075925
0.079433
0.032234
0.0022568
0.015651
0.013738
-0.011137
-0.022937
-0.051639
-0.056742
-0.056423
-0.057061
-0.045261
-0.044942
-0.035694
-0.037288
-0.034737
-0.034737
-0.02804
-0.030272
-0.027402
-0.026126
-0.03091
-0.026445
-0.010181
-0.0060349
-0.0095429
-0.0038025
0.0028946
0.0067215
0.019797
0.03351
0.019159
0.018202
0.029683
0.029364
0.027451
0.018202
0.0076782
0.008635
0.016608
0.02458
0.02171
0.020754
0.024262
0.02777
0.028407
0.039888
0.048818
0.03638
0.034786
0.03638
0.032553
0.030002
0.023624
0.019159
0.015013
0.028407
0.030959
0.02777
0.032234
0.030002
0.033191
0.040207
0.052645
0.048499
0.042439
0.040526
0.041483
0.035742
0.031278
0.026813
0.013419
0.015013
0.028726
0.025537
0.016608
0.023305
0.028407
0.031278
0.036699
0.040207
0.020754
0.024899
0.036061
0.035104
0.027132
0.019797
0.012462
0.0032135
0.010867
0.017246
0.01884
0.017564
0.022029
0.028088
0.026494
0.034148
0.043077
0.028088
0.02777
0.035742
0.029683
0.026494
0.022986
0.011824
0.0057648
0.019159
0.014694
0.0131
0.015013
0.016289
0.02171
0.027132
0.033829
0.033191
0.022986
0.020754
0.026494
0.023305
0.018202
0.015013
0.0054459
-0.00029452
0.012143
0.0131
0.0054459
0.010548
0.016289
0.016289
0.024262
0.031596
0.016608
0.015013
0.023943
0.02171
0.021072
0.0099106
0.00098112
2.4388e-05
0.0025757
0.0095917
0.011186
0.0089539
0.013738
0.018202
0.017883
0.023624
0.031278
0.021072
0.021072
0.026175
0.021391
0.01597
0.011824
0.0057648
-0.002208
0.0099106
0.014694
0.011505
0.0076782
0.012462
0.019797
0.023305
0.030959
0.028726
0.023305
0.02171
0.025856
0.022029
0.016289
0.011824
0.0057648
0.0019378
0.01597
0.017564
0.013419
0.016927
0.020754
0.02458
0.030002
0.044991
0.029683
0.02777
0.033829
0.032234
0.025856
0.022986
0.019159
0.0095917
0.012462
0.021391
0.017883
0.01597
0.02458
0.026813
0.019797
0.03064
0.043715
0.029045
0.028088
0.035104
0.030002
0.026494
0.022986
0.015013
0.010867
0.022667
0.026813
0.022029
0.02171
0.02777
0.031278
0.034786
0.044353
0.044353
0.03638
0.037975
0.03925
0.034148
0.030002
0.02777
0.020116
0.015651
0.028407
0.03064
0.02458
0.027132
0.030959
0.037018
0.041802
0.050412
0.03925
0.03638
0.042758
0.040845
0.03638
0.031915
0.027132
0.017883
0.018202
0.026813
0.030321
0.024262
0.028088
0.031596
0.032872
0.041164
0.04818
0.034148
0.035104
0.040207
0.035104
0.031915
0.027132
0.019478
0.014375
0.02777
0.030002
0.028088
0.025856
0.03064
0.037975
0.037975
0.04818
0.048499
0.041164
0.043396
0.04818
0.041802
0.035742
0.030959
0.02171
0.019159
0.03638
0.03638
0.029045
0.029364
0.031915
0.037337
0.041802
0.05105
0.040526
0.038612
0.040207
0.038931
0.036061
0.031915
0.026813
0.017246
0.019478
0.02777
0.017883
0.017883
0.026175
0.031278
0.030959
0.034467
0.040526
0.026494
0.026175
0.032553
0.026494
0.024262
0.017564
0.0067215
0.0013
0.0131
0.016927
0.014694
0.0131
0.01597
0.019797
0.021072
0.028726
0.031915
0.024899
0.02171
0.026175
0.021072
0.019797
0.012462
0.0016189
-0.0044404
0.01023
0.015651
0.0076782
0.0076782
0.011186
0.014694
0.020116
0.029045
0.019478
0.013738
0.017883
0.016608
0.0131
0.0070404
0.0016189
-0.0069916
-0.0063538
0.0028946
0.0035324
-0.00029452
0.0038513
0.0092728
0.0099106
0.016289
0.024899
0.012143
0.011505
0.018521
0.012781
0.0099106
0.0038513
-0.0025269
-0.009224
-0.00061343
0.0038513
0.0022568
0.00066221
0.0025757
0.008316
0.012143
0.01884
0.020116
0.010548
0.01023
0.015332
0.010548
0.0044891
0.0003433
-0.0066727
-0.012094
0.0025757
0.0038513
-0.0031647
-0.00061343
0.0025757
0.0092728
0.016608
0.025537
0.01597
0.0076782
0.014375
0.0131
0.010867
0.004808
-0.00029452
-0.0098618
-0.0105
2.4388e-05
0.0022568
-0.0047593
-0.00061343
0.0025757
0.0060837
0.01023
0.017883
0.0044891
0.0038513
0.010548
0.0060837
0.0022568
-0.0050782
-0.010819
-0.019748
-0.011775
-0.0069916
-0.0089051
-0.009224
-0.0060349
-0.00093234
-0.00029452
0.0079971
0.010867
0.0032135
0.0003433
0.0073593
0.0019378
-0.0028458
-0.0060349
-0.012413
-0.018472
-0.0031647
-0.0031647
-0.0079484
-0.005716
-0.0034836
0.0038513
0.008316
0.017883
0.0131
0.0079971
0.010867
0.010548
0.0060837
0.0019378
-0.0015702
-0.010181
-0.009224
0.0019378
0.0057648
-0.002208
0.0032135
0.0057648
0.0095917
0.01597
0.026813
0.013419
0.012781
0.019159
0.014694
0.010867
0.0051269
-0.0015702
-0.0069916
0.0003433
0.0073593
0.0057648
0.0041702
0.0076782
0.013738
0.015332
0.023943
0.028726
0.020754
0.020435
0.02777
0.020754
0.01597
0.011824
0.0076782
0.0041702
0.01884
0.021072
0.0131
0.011505
0.018202
0.026494
0.031596
0.039569
0.032872
0.02777
0.03064
0.031278
0.026175
0.022986
0.017883
0.0095917
0.010548
0.020754
0.024899
0.016927
0.021391
0.027132
0.028407
0.033829
0.044353
0.03064
0.030002
0.036699
0.033191
0.030002
0.024262
0.016927
0.01023
0.018202
0.024899
0.024262
0.021072
0.024899
0.030321
0.031915
0.040207
0.044034
0.035742
0.034467
0.040845
0.034467
0.031596
0.027132
0.020116
0.014056
0.028726
0.031278
0.025218
0.026494
0.029045
0.034467
0.039569
0.04818
0.043077
0.037018
0.040207
0.03925
0.03638
0.031596
0.027451
0.017564
0.019797
0.030002
0.03351
0.026175
0.03064
0.035423
0.038612
0.04531
0.055515
0.043396
0.042439
0.049137
0.047223
0.042758
0.037975
0.031278
0.024262
0.03064
0.038294
0.037337
0.033829
0.037975
0.044034
0.046585
0.05392
0.057747
0.047542
0.046266
0.052326
0.047542
0.045629
0.037975
0.031596
0.025856
0.03925
0.041802
0.035423
0.036699
0.039888
0.044034
0.050093
0.058066
0.054877
0.048499
0.050093
0.051688
0.046266
0.042758
0.038612
0.030959
0.028407
0.040207
0.043077
0.035742
0.039888
0.042758
0.04818
0.052963
0.062212
0.050412
0.04818
0.054239
0.050093
0.046904
0.043396
0.035742
0.028407
0.035104
0.040845
0.041483
0.037656
0.041483
0.046904
0.046585
0.05679
0.061574
0.052007
0.050093
0.056153
0.052326
0.047542
0.042439
0.034148
0.030321
0.042439
0.044991
0.039569
0.039888
0.043396
0.049455
0.052963
0.061255
0.059023
0.052326
0.053282
0.053601
0.050412
0.046266
0.042121
0.031915
0.028407
0.041164
0.042121
0.03638
0.039569
0.044353
0.047223
0.054558
0.061255
0.047542
0.045629
0.051369
0.050093
0.04818
0.042758
0.034786
0.026813
0.030002
0.038612
0.038612
0.034467
0.037975
0.043077
0.043396
0.051369
0.056471
0.04531
0.043715
0.049774
0.04531
0.040845
0.036061
0.028726
0.022029
0.033829
0.037018
0.03351
0.030959
0.03638
0.041164
0.04531
0.052963
0.053282
0.046585
0.04531
0.04818
0.043077
0.037975
0.032553
0.025537
0.023305
0.036061
0.036061
0.03064
0.031596
0.036699
0.039569
0.043715
0.054239
0.041483
0.039569
0.044034
0.042121
0.038612
0.03351
0.026494
0.01884
0.022348
0.031278
0.032872
0.02777
0.031278
0.037018
0.03638
0.04531
0.052645
0.041802
0.040845
0.04818
0.042439
0.037975
0.030959
0.025218
0.016927
0.032234
0.035742
0.030321
0.030002
0.031278
0.038612
0.041164
0.048499
0.050412
0.042439
0.041164
0.044034
0.038931
0.033829
0.031278
0.024262
0.018202
0.031278
0.033829
0.026175
0.029045
0.032234
0.040207
0.043077
0.052007
0.043077
0.037656
0.042439
0.041483
0.03638
0.030002
0.025218
0.019478
0.022667
0.02777
0.030321
0.023624
0.028407
0.031915
0.035742
0.042758
0.048818
0.035742
0.035742
0.042121
0.038294
0.034148
0.028726
0.022029
0.014694
0.026813
0.030002
0.028088
0.026813
0.029045
0.034467
0.03638
0.045947
0.046585
0.037018
0.03638
0.040207
0.034148
0.030002
0.026813
0.016289
0.0131
0.028088
0.028726
0.021391
0.023624
0.028088
0.031915
0.036699
0.045947
0.035742
0.03064
0.037018
0.041164
0.035104
0.03351
0.025218
0.016927
0.016608
0.02458
0.022986
0.016927
0.022986
0.026494
0.026494
0.028726
0.045629
0.034467
0.033191
0.03638
0.023305
0.01597
0.013738
0.010867
0.0076782
0.021072
0.02458
0.017883
0.016289
0.018521
0.025856
0.025856
0.033191
0.032553
0.026813
0.024899
0.028407
0.02458
0.019797
0.015332
0.0060837
0.0028946
0.017883
0.020435
0.015332
0.015332
0.018202
0.023624
0.029683
0.037975
0.02777
0.024899
0.028726
0.023305
0.021391
0.01597
0.008316
0.0019378
0.0019378
0.011505
0.011505
0.0041702
0.0092728
0.014375
0.015651
0.022029
0.029683
0.01597
0.016927
0.023943
0.019159
0.014375
0.008635
0.0019378
-0.0050782
0.0054459
0.0092728
0.0076782
0.0067215
0.0076782
0.015651
0.018521
0.028088
0.028726
0.020435
0.01884
0.023624
0.019797
0.01597
0.011824
0.0019378
-0.0015702
0.012462
0.013419
0.0079971
0.008316
0.010867
0.018202
0.020754
0.02777
0.021391
0.017883
0.020435
0.020116
0.013738
0.008316
0.0044891
-0.0031647
-0.0028458
0.0070404
0.0073593
0.0013
0.0051269
0.011186
0.011824
0.01884
0.026175
0.012781
0.0131
0.020754
0.016289
0.011824
0.0067215
-0.00029452
-0.005716
0.0038513
0.010867
0.010548
0.011505
0.014694
0.020116
0.022348
0.032553
0.038612
0.030002
0.03064
0.034148
0.035742
0.028726
0.01884
0.022986
0.024899
0.040845
0.038294
0.027451
0.025537
0.030002
0.048818
0.055196
0.084536
0.070822
0.052007
0.051688
0.041802
0.045947
0.033191
0.027451
0.023305
0.02777
0.033829
0.025218
0.0019378
-0.011775
-0.005716
-0.0012513
0.015332
0.04818
0.040845
0.032234
0.029683
0.023305
0.016927
0.014375
0.013738
0.0044891
0.0092728
0.022348
0.019159
-0.017516
0.0032135
0.0032135
-0.0095429
2.4388e-05
-0.0095429
-0.027721
-0.028996
-0.020705
-0.026445
-0.029953
-0.031548
-0.038883
-0.041434
-0.023575
-0.019429
-0.020386
-0.009224
-0.005716
-0.0012513
0.019797
0.039888
0.03064
0.045947
0.042439
0.056471
0.047542
0.047223
0.072736
0.075606
0.069228
0.073055
0.064125
0.047542
0.028088
0.022348
0.030959
0.046266
0.05392
0.034786
0.0089539
-0.010819
-0.025488
-0.036331
-0.04271
-0.032504
-0.028359
-0.025488
-0.029634
-0.02517
-0.028996
-0.023894
-0.020386
-0.0031647
0.004808
0.020754
0.01884
0.035423
0.040526
0.034148
0.02777
0.037018
0.029045
0.019797
0.023624
0.026175
0.010867
0.027451
0.028726
0.018202
0.018521
0.01597
0.0003433
-0.020067
-0.026445
-0.023575
-0.032186
-0.030591
-0.03091
-0.04271
-0.04271
-0.033142
-0.022937
-0.022299
-0.017516
-0.017835
-0.014327
0.015332
0.054877
0.034786
0.03638
0.048818
0.082622
0.067952
0.049137
0.032234
0.046266
0.061574
0.074968
0.08039
0.059979
0.042758
0.036061
0.026175
0.01884
0.028726
0.022986
0.0025757
-0.012732
-0.0018891
0.020435
0.046904
0.011824
-0.011137
-0.0076295
-0.014008
-0.014964
-0.0047593
0.0057648
0.024899
0.020435
0.029364
0.028407
-0.005716
-0.015602
-0.024851
-0.038245
-0.032504
-0.048769
-0.053234
-0.057061
-0.045261
-0.04271
-0.056104
-0.037288
-0.045899
-0.040477
-0.036331
-0.037607
-0.050682
-0.050044
-0.023575
-0.020386
-0.014327
-0.0047593
-0.0066727
0.0013
0.0057648
0.008635
0.0079971
-0.0031647
0.0051269
0.024899
0.031278
0.026494
0.037975
0.03351
0.023305
0.018521
0.0013
-0.0018891
-0.015283
-0.029953
-0.010819
-0.005716
-0.018791
-0.010819
-0.0085862
-0.0047593
-0.016878
-0.030591
0.0019378
-0.0028458
-0.019748
-0.018791
0.0057648
0.0057648
-0.0018891
-0.0060349
-0.021024
-0.024851
-0.014964
0.0025757
0.012143
0.008635
0.017883
0.026494
0.05392
0.066995
0.037656
0.027132
0.025218
0.02171
0.026494
0.0131
0.013419
0.03064
0.028088
0.019478
0.0038513
0.0089539
0.038612
0.058066
0.031278
0.015332
0.03064
0.023305
0.030959
0.037975
0.021391
-0.015921
-0.013051
-0.0060349
-0.023894
-0.023256
-0.030272
-0.046855
-0.047174
-0.050363
-0.027083
-0.029953
-0.024213
-0.026764
-0.0089051
0.016608
0.058704
0.040207
0.041164
0.05105
0.03638
0.0099106
0.020116
0.037656
0.046266
0.050093
0.040845
0.02458
-0.017516
0.0095917
-0.0034836
-0.011137
0.017564
0.030321
0.085173
0.1228
0.089
0.070503
0.088044
0.11292
0.12249
0.15661
0.16394
0.19105
0.15278
0.086768
0.015651
0.0079971
0.01597
0.010548
-0.040477
-0.057698
-0.097881
-0.14636
-0.1674
-0.17123
-0.17984
-0.19228
-0.16071
-0.12563
-0.11829
-0.12212
-0.088952
-0.090546
-0.087038
-0.10011
-0.078427
-0.079703
-0.080022
-0.043028
-0.04271
-0.062163
-0.033142
-0.026764
-0.015921
-0.021343
-0.00093234
0.032234
0.037975
0.036061
0.02777
0.044034
0.062212
0.064444
0.073374
0.061893
0.080071
0.10782
0.14672
0.12695
0.10654
0.06859
0.053282
0.076244
0.073055
0.048499
0.05105
0.042439
0.008316
0.008635
-0.021661
-0.043347
0.0089539
0.015332
-0.051958
-0.083211
-0.050363
-0.053234
-0.056423
-0.046536
-0.020386
0.012143
0.0057648
-0.017197
-0.059293
-0.08353
-0.099157
-0.12244
-0.13774
-0.13328
-0.1202
-0.14572
-0.15018
-0.14349
-0.17825
-0.15018
-0.11638
-0.074601
-0.059293
-0.051639
-0.036012
0.0022568
-0.0044404
0.030002
0.084536
0.073374
0.067314
0.048818
0.084217
0.075287
0.041164
0.024899
0.028407
0.022667
0.022348
0.022348
-0.019748
-0.034099
-0.014327
0.041483
0.043715
0.047542
0.043077
0.057428
0.026175
0.035423
0.098568
0.11196
0.12759
0.13429
0.093146
0.034148
0.076244
0.044991
0.021391
-0.073644
-0.040477
-0.037926
-0.074282
-0.11638
-0.065671
-0.032823
-0.051001
-0.062482
-0.085762
-0.038883
-0.022937
-0.030591
0.0079971
0.10144
0.08039
-0.0038025
-0.024532
-0.023894
-0.0069916
-0.041434
0.012781
-0.021343
-0.075238
-0.10011
-0.14125
-0.15433
-0.14508
-0.14508
-0.12977
-0.06312
-0.053234
-0.11989
-0.098519
-0.066947
-0.068222
-0.066947
-0.019748
-0.044304
-0.033461
-0.01911
0.023305
0.04531
0.040845
0.029364
0.025537
0.043077
0.017246
0.0035324
-0.020386
0.011824
0.036061
0.0092728
-0.064077
-0.090546
-0.088952
-0.024213
0.025218
-0.03665
-0.033142
-0.029634
-0.025807
-0.017516
-0.02517
-0.017835
-0.02198
-0.021661
-0.071093
-0.040796
0.014375
0.01597
-0.037607
0.059661
0.081984
0.15119
0.089319
2.4388e-05
0.041483
0.044672
0.08039
0.12599
0.1244
0.063806
0.14417
0.098568
-0.01337
-0.024532
-0.061844
-0.083211
-0.10585
-0.11574
-0.12339
-0.09246
-0.11351
-0.18048
-0.16166
-0.11032
-0.041434
-0.084487
-0.11415
-0.097562
-0.062801
-0.019429
-0.081935
-0.11351
-0.066947
-0.042072
-0.026445
-0.063439
-0.078427
-0.052596
-0.018472
0.074649
-0.017197
0.00098112
0.028726
0.1362
0.16937
0.17224
0.1665
0.16394
0.148
0.10112
0.094741
0.1177
0.16107
0.28258
0.24846
0.24016
0.15183
0.063169
-0.02517
-0.053871
-0.038245
-0.028996
-0.055466
-0.074601
-0.11861
-0.18558
-0.047493
0.0079971
-0.064714
-0.095011
-0.12339
-0.14604
-0.16932
-0.11893
-0.05419
0.020754
0.063169
0.1126
0.040845
0.0057648
-0.063758
-0.063439
-0.055147
-0.057698
-0.011775
-0.014964
-0.034737
-0.043985
-0.071411
-0.06599
-0.025488
-0.044942
0.011186
0.094422
-0.024213
-0.034737
-0.012094
-0.011456
-0.0073105
0.0016189
-0.052915
-0.094373
-0.083849
-0.10426
-0.079384
-0.10553
-0.17251
-0.1741
-0.17378
-0.19068
-0.19547
-0.19834
-0.1674
-0.13232
-0.11032
-0.019429
0.03064
0.063806
0.10877
0.18085
0.14736
0.10782
0.14003
0.12631
0.12727
0.11069
0.030002
0.016289
0.045947
-0.0028458
-0.065352
-0.17665
-0.2382
-0.25574
-0.24426
-0.14349
-0.021024
0.0057648
0.028088
0.015013
0.030321
0.084536
0.095378
0.21943
0.2829
0.21114
0.15183
0.13779
0.070822
0.029045
0.017883
-0.0098618
-0.052277
-0.11478
-0.20567
-0.30485
-0.24426
-0.20025
-0.27232
-0.26499
-0.16294
-0.05132
0.073374
0.10335
0.07752
0.17192
0.15183
0.17574
0.31638
0.40504
0.3588
0.30267
0.22007
0.10399
0.148
0.12249
0.085173
0.011824
-0.048769
-0.12148
-0.2433
-0.27519
-0.30294
-0.31633
-0.30039
-0.2921
-0.29146
-0.18909
0.042439
0.16905
0.17606
0.23379
0.18978
0.097292
0.064125
0.087087
0.18148
0.16681
0.13811
0.10654
0.11898
-0.023894
-0.14667
-0.19579
-0.22257
-0.26722
-0.31952
-0.35843
-0.34089
-0.28349
-0.25574
-0.19036
-0.10617
-0.084806
-0.068541
0.0044891
0.00098112
0.0028946
0.016927
0.041164
0.045629
-0.031229
0.031278
0.079433
0.064444
0.029045
-0.0105
0.044034
-0.024851
-0.10075
-0.11446
-0.10235
0.0076782
0.13397
0.13524
0.088681
-0.017197
-0.023894
0.01023
0.03638
0.080071
0.09793
0.13588
0.13939
0.12217
-0.040796
0.022029
0.076244
0.025856
-0.0047593
0.0099106
0.031915
0.061893
-0.026445
-0.075876
-0.034099
-0.12595
-0.045899
-0.065033
-0.15815
-0.13487
-0.13169
-0.1336
-0.17601
-0.099476
-0.12595
-0.18622
-0.18558
-0.10362
-0.079703
-0.10043
-0.080022
-0.063758
-0.073325
-0.058974
-0.10075
-0.12212
-0.14412
-0.13009
-0.026764
-0.0047593
-0.0041214
-0.086719
-0.099157
-0.051958
0.008635
0.15151
0.20923
0.17192
0.29151
0.37793
0.33456
0.40089
0.40695
0.36422
0.30299
0.19711
0.19328
0.27971
0.21529
0.079114
0.09187
-0.0012513
-0.14859
-0.10394
-0.16294
-0.12499
-0.10553
-0.15497
-0.13456
-0.19961
-0.18239
-0.067903
-0.017197
0.038294
-0.034737
-0.058336
0.031915
-0.016878
-0.061525
-0.04845
-0.093416
-0.17633
-0.25861
-0.12754
-0.12945
-0.21939
-0.30262
-0.28221
-0.30422
-0.3023
-0.30166
-0.22417
-0.061206
0.017246
0.017883
0.0057648
-0.041753
0.026494
0.0131
0.055515
0.10622
0.18754
0.1177
-0.016559
0.04818
0.0073593
0.018202
-0.093416
-0.17761
-0.2146
-0.19866
-0.24171
-0.22513
-0.14189
-0.1757
-0.15943
0.13684
0.26695
0.19041
0.065082
0.14864
0.26376
0.25994
0.24399
0.22422
0.15948
0.26918
0.29342
0.24654
0.12982
0.018202
-0.13902
-0.15146
-0.1387
-0.13232
-0.191
-0.29401
-0.32654
-0.23182
-0.038564
0.085492
0.17511
0.083579
0.038931
0.047861
-0.012094
0.025856
0.11706
0.14258
0.0051269
0.0099106
0.020754
0.036699
-0.066628
-0.23278
-0.26914
-0.33196
-0.36385
-0.37948
-0.40148
-0.37119
-0.27807
-0.20472
-0.23788
-0.21301
-0.085443
0.14704
0.21274
0.11069
0.10782
0.12408
0.069547
0.12504
0.075925
0.021391
0.046904
0.040845
0.18946
0.10367
-0.093097
-0.10011
-0.0864
-0.090227
-0.17793
-0.21078
-0.1808
-0.13264
-0.064395
0.17255
0.36868
0.17989
0.069547
0.05679
2.4388e-05
0.053282
0.22007
0.2644
0.15788
0.21593
0.092189
0.09506
0.085811
0.069547
-0.038883
-0.13583
-0.1808
-0.132
-0.26116
-0.39319
-0.3916
-0.16294
-0.19387
-0.26308
-0.2079
-0.13519
-0.10872
-0.14157
-0.16262
-0.049088
-0.043985
0.10303
0.043077
-0.016878
0.024899
0.031596
0.05105
-0.012732
-0.051001
-0.070136
-0.03091
-0.11574
-0.1674
-0.19611
-0.20089
-0.19674
-0.089908
0.024899
-0.0066727
0.071141
0.093784
0.022029
0.073055
0.0095917
0.0003433
0.12408
0.16905
0.15246
0.30267
0.24782
0.19647
0.1177
0.10367
0.057109
-0.048131
-0.10649
-0.11255
-0.16039
-0.15465
-0.20344
-0.090546
-0.11765
-0.28731
-0.24809
-0.25319
-0.25478
-0.26212
-0.1387
-0.15114
-0.16645
-0.13679
-0.060569
-0.070455
-0.16007
0.015013
0.11898
0.1075
0.029683
-0.044304
-0.097881
-0.13041
-0.11989
-0.11797
-0.15465
-0.14954
-0.23278
-0.1049
-0.087357
-0.19706
-0.22481
-0.20408
-0.16804
-0.10617
-0.13743
-0.16198
-0.080341
-0.067903
-0.037288
-0.022618
-0.040477
-0.01624
0.069547
0.044353
-0.0047593
0.10558
0.020754
-0.073644
-0.1033
-0.10649
-0.047493
-0.036969
0.03638
0.18085
0.035104
0.10048
0.2121
0.32723
0.30395
0.23442
0.13429
0.22645
0.30458
0.28704
0.14098
0.12855
0.32212
0.21178
0.095378
0.031596
-0.094692
-0.18845
-0.19228
-0.18941
-0.16198
-0.22863
-0.25478
-0.27583
-0.32813
-0.38777
-0.3157
-0.31602
-0.35301
-0.37119
-0.29624
-0.23916
-0.17123
-0.029634
0.25962
0.11738
-0.036012
-0.02517
0.13811
0.36741
0.41046
0.13429
0.16331
0.15948
0.22326
0.14321
0.011505
-0.17346
-0.31761
-0.14795
-0.12435
-0.21811
-0.35684
-0.42062
-0.44007
-0.39096
-0.34057
-0.2516
-0.16995
-0.14285
-0.049407
0.0070404
-0.0028458
-0.03378
0.016608
0.012143
0.054558
0.013419
-0.03091
-0.11159
0.01597
0.087087
0.014694
-0.11128
-0.19036
-0.20599
-0.16932
-0.11446
-0.1556
-0.12658
0.0099106
0.31989
0.40121
0.24941
0.078476
0.10399
0.23219
0.24973
0.34126
0.22167
0.097611
0.14258
0.16586
0.037337
-0.061206
-0.21333
-0.29337
-0.30836
-0.25447
-0.26148
-0.3664
-0.37055
-0.38362
-0.33706
-0.2787
-0.16836
0.056153
0.00098112
0.073055
-0.00061343
0.18117
0.16076
0.094103
0.031278
0.11005
0.10813
0.12472
0.052326
-0.26308
-0.088952
0.050093
-0.10458
-0.22481
-0.35684
-0.26084
-0.28572
-0.32494
-0.32112
-0.29943
-0.27775
-0.23661
-0.20503
0.012462
0.27492
0.30267
0.18978
0.17702
0.17447
0.16363
0.17893
0.11196
0.10431
0.17702
0.21656
0.11483
0.16076
0.070503
-0.11383
-0.21524
-0.25989
-0.24107
-0.25064
-0.16932
-0.0089051
0.33042
0.57693
0.3049
0.052007
-0.025488
0.059979
0.10399
0.10303
0.026494
0.041483
0.1716
0.21082
0.049455
-0.23724
-0.36768
-0.42349
-0.41424
-0.41265
-0.40531
-0.40818
-0.34791
-0.3275
-0.31346
-0.23533
-0.23501
-0.21301
-0.10203
0.41269
0.43916
0.16171
0.20827
0.22645
0.13811
0.10399
0.16586
0.28354
0.22836
0.25866
0.15852
0.066995
-0.053871
-0.19355
-0.29879
-0.44262
-0.26754
-0.23374
-0.26882
-0.30294
-0.33643
-0.27424
-0.080341
0.068909
0.23379
0.13716
-0.033142
0.0060837
0.10686
0.28609
0.19456
0.36231
0.20508
0.15151
0.14672
0.13014
0.013738
-0.11255
-0.22544
-0.069817
-0.044623
-0.13966
-0.21141
-0.2736
-0.29816
-0.29497
-0.27041
-0.24554
-0.19547
-0.10936
0.028726
0.1767
0.074012
-0.017197
0.014375
0.071141
0.080709
0.048818
0.0019378
-0.010181
0.070503
0.089957
0.028726
-0.093416
-0.15433
-0.21428
-0.20535
-0.18431
-0.22353
-0.23437
-0.169
-0.13774
-0.17155
-0.12626
-0.08353
-0.0079484
0.057109
0.074968
0.030002
0.033829
0.10048
0.18946
0.13907
0.083579
0.092508
0.22805
0.34349
0.19807
0.089
0.06285
0.094103
0.089
0.015013
-0.01911
-0.13519
-0.10043
-0.032823
-0.043666
-0.076833
-0.13456
-0.069179
0.06572
0.26281
0.11866
0.0057648
0.0041702
-0.073325
-0.095011
-0.0012513
-0.062801
0.004808
0.16618
0.057109
-0.10522
-0.27743
-0.34217
-0.25797
-0.24554
-0.25191
-0.26116
-0.25351
-0.20599
-0.16613
-0.14572
-0.11989
-0.085443
0.0073593
-0.02517
-0.012413
0.062531
0.10112
0.03638
0.012781
-0.027083
0.0095917
0.025218
-0.059293
2.4388e-05
0.028407
0.01023
0.014056
-0.06312
-0.13041
-0.1285
-0.13041
-0.12276
-0.10936
-0.099157
-0.091503
-0.062482
-0.012413
0.0073593
0.052645
0.081665
0.21784
0.18244
0.11993
0.16139
0.22932
0.17032
0.14513
0.25037
0.18212
0.082622
0.12695
0.15374
0.20062
0.035742
-0.046218
-0.057379
-0.068222
-0.071093
-0.079703
-0.11255
0.066358
0.064125
-0.051639
-0.094373
-0.10968
-0.10713
-0.12531
-0.14572
-0.045899
-0.013689
-0.050363
-0.052915
-0.084487
-0.12977
-0.13232
-0.094054
-0.064077
-0.11446
-0.14476
-0.16294
-0.11255
-0.1269
-0.14891
-0.23533
-0.18973
-0.13838
-0.053552
-0.071411
-0.14827
-0.16166
-0.1336
-0.11478
-0.078109
-0.036331
0.015332
0.091552
0.049455
0.041164
0.19934
0.25802
0.21082
0.23187
0.17798
0.14162
0.19934
0.096016
-0.040796
0.049137
0.17925
0.26281
0.14577
-0.0041214
-0.072049
-0.089908
-0.1269
-0.1572
-0.16485
-0.068541
-0.10936
0.029683
-0.022299
0.013738
0.08326
0.020435
-0.024213
-0.061525
2.4388e-05
0.034148
0.076882
-0.075238
-0.0864
-0.034418
-0.028996
-0.1454
-0.17825
-0.18271
-0.16581
-0.15879
-0.191
-0.18973
-0.17952
-0.16262
-0.16326
-0.14604
-0.096924
0.030321
-0.01911
-0.079384
-0.056742
-0.019748
0.037975
-0.028996
0.012462
0.069866
0.043077
0.037975
-0.024532
-0.059931
0.0095917
0.044672
-0.0066727
-0.029315
-0.053871
-0.031229
0.059023
0.0016189
-0.06025
-0.052915
0.021072
0.060617
0.030002
-0.031548
0.099843
0.1362
0.098568
0.048818
0.05392
0.042758
0.11706
0.081028
0.094103
0.060617
0.1413
0.065082
-0.023256
0.078795
0.25069
0.047223
-0.0034836
0.10877
0.044672
0.064444
-0.04558
0.022029
-0.069179
-0.013051
0.0089539
-0.091184
-0.16836
-0.15082
-0.19068
-0.11861
-0.076833
-0.1218
-0.14954
-0.13009
-0.10904
-0.079703
-0.12977
-0.11159
-0.024851
0.054239
-0.042391
-0.072368
-0.11128
-0.11064
-0.08066
-0.11893
-0.094373
-0.023575
-0.034099
-0.075557
-0.088952
-0.1049
-0.13806
-0.099157
0.0073593
-0.0076295
-0.03378
-0.033461
0.027451
0.27811
0.20158
0.067952
0.14258
0.14704
0.063487
0.12823
0.15788
0.12153
0.11069
0.045629
0.10813
0.095378
0.047861
-0.066309
-0.12977
-0.14221
-0.038564
-0.11606
-0.088633
-0.095968
-0.070136
-0.030272
-0.097881
-0.088314
-0.011775
0.055196
0.032234
0.069866
0.091233
0.03064
0.032553
0.093146
0.0022568
-0.041115
-0.012094
-0.057698
-0.018791
-0.019429
-0.089908
-0.08927
0.008316
-0.1285
-0.10585
-0.10681
-0.11925
-0.1556
-0.16262
-0.10872
-0.086081
-0.083849
-0.061844
-0.016559
-0.09246
-0.081935
-0.067266
-0.03665
-0.03665
0.023943
0.013738
-0.070774
-0.052277
0.047861
0.057428
0.14066
0.06572
0.00098112
0.04818
-0.031229
-0.075876
0.012462
0.024899
0.021391
-0.04271
-0.038564
-0.0031647
0.038612
-0.013051
-0.050044
-0.066947
-0.064714
-0.056742
-0.022937
-0.045899
-0.022618
-0.00093234
-0.00061343
0.00066221
0.034148
0.070503
0.041483
0.019797
0.05105
0.12217
0.22422
0.11069
0.052007
0.096335
0.11738
0.077201
0.021391
-0.073963
0.021072
0.12567
-0.0015702
-0.081617
-0.083211
-0.06599
-0.097562
0.024262
0.022986
-0.074919
-0.095011
-0.080979
-0.057698
-0.08927
-0.085762
-0.033142
-0.062163
-0.058336
-0.076514
-0.10904
-0.10171
0.00066221
0.16458
0.13843
0.022348
0.0035324
0.053601
0.085173
-0.07779
-0.0050782
0.11164
0.043715
0.0131
0.0022568
-0.053871
-0.10649
-0.12722
-0.15592
-0.16262
-0.13838
-0.14795
-0.091184
-0.11159
-0.10872
-0.084806
-0.071093
0.0035324
0.22103
0.23889
0.18627
0.060617
0.05392
0.16522
0.11005
0.075606
0.10654
0.084854
0.078795
0.13014
0.098249
-0.032186
-0.14572
-0.12945
-0.15465
-0.1403
-0.17474
-0.20153
-0.20312
-0.20376
-0.19196
-0.17506
-0.15656
-0.15401
-0.13647
-0.1167
-0.08066
0.06285
0.093146
0.081346
0.23474
0.1346
0.037656
0.073693
0.01884
0.085492
0.20189
0.051688
-0.0085862
0.070185
0.026813
-0.0038025
0.026813
-0.064714
-0.14061
-0.16645
-0.16294
-0.12882
-0.043347
0.10686
0.051688
-0.021343
-0.061206
-0.031867
0.027132
0.01597
-0.099476
0.008316
0.032553
0.0064026
0.040207
-0.01624
-0.069817
-0.0982
-0.0098618
-0.042391
-0.088633
-0.10553
-0.018791
0.0131
-0.049088
0.045947
0.081665
0.035104
-0.019748
-0.037926
0.031596
0.063806
0.035423
2.4388e-05
0.052645
0.034786
0.052963
-0.024213
-0.083211
-0.075557
-0.072687
-0.066947
0.037975
-0.039202
-0.075876
-0.081617
0.031278
-0.050682
-0.085762
-0.10107
-0.072687
-0.069498
-0.080341
-0.055147
-0.029315
0.0057648
-0.11638
-0.013689
0.017564
-0.0060349
-0.030591
0.035742
0.07146
0.027132
-0.032823
0.028726
0.03638
0.034467
0.089
0.015013
-0.044304
-0.064395
-0.10298
-0.076514
-0.060887
-0.084168
-0.078109
-0.051001
-0.031548
0.053601
-0.030591
-0.060887
-0.0864
0.0092728
0.057428
0.069866
0.004808
0.0057648
0.049774
-0.0060349
-0.0098618
-0.062482
-0.041434
-0.022937
0.14162
0.062531
-0.021343
-0.043347
0.036699
0.055515
0.057109
0.14162
0.0038513
0.010548
-0.027402
-0.074601
-0.066309
-0.12244
-0.11861
-0.072049
-0.066628
-0.1454
-0.18462
-0.21652
-0.22672
-0.21939
-0.15082
-0.17059
-0.18175
-0.15879
-0.12212
-0.12658
-0.11989
-0.027083
-0.039202
0.084854
0.043715
0.037018
0.063806
0.076882
0.034467
0.023624
-0.016559
0.085492
0.032872
0.0032135
0.041164
-0.011137
-0.077471
-0.13615
-0.14508
-0.13551
-0.13838
-0.13519
-0.14349
-0.13711
-0.13743
-0.11191
-0.06025
0.026494
0.12057
0.082622
0.0057648
0.064125
0.051369
0.026813
0.0092728
-0.0060349
0.046585
0.017246
0.0095917
-0.0044404
-0.03952
-0.049088
-0.072049
-0.1151
-0.16964
-0.15752
-0.13169
-0.12977
-0.14604
-0.11638
-0.094054
-0.08066
0.17766
0.12855
0.11611
0.20221
0.17606
0.12918
0.14959
0.17798
0.13301
0.11037
0.04531
0.12855
0.13078
0.0044891
-0.041434
-0.10968
-0.16453
-0.20918
-0.23182
-0.2854
-0.24586
-0.20982
-0.21365
-0.21492
-0.19387
-0.12722
-0.11319
-0.11287
-0.055785
-0.0044404
-0.05132
0.008316
-0.021343
-0.018791
0.00098112
-0.034418
0.024899
0.037975
0.057109
-0.014327
0.025218
0.10526
0.032553
0.033829
0.0025757
-0.04845
-0.013051
-0.038564
-0.056742
-0.036969
-0.041753
-0.023894
-0.020067
-0.022299
-0.067903
0.025218
0.014056
-0.026126
0.069866
0.13684
0.11611
0.029683
0.037975
0.050093
0.025218
0.085811
-0.0050782
-0.015921
-0.0041214
0.02777
-0.046536
-0.11191
-0.080979
-0.091822
-0.14763
-0.16453
-0.16007
-0.10841
-0.08066
-0.097562
-0.064077
-0.047493
0.029045
0.05392
-0.034418
-0.017516
-0.031867
-0.037288
0.042121
0.042439
0.012462
-0.069817
-0.02804
-0.040477
-0.036969
-0.099476
-0.14795
-0.15592
-0.14476
-0.16071
-0.16868
-0.14699
-0.12913
-0.1285
-0.090227
-0.066947
-0.070136
-0.020067
0.023305
0.034786
0.01597
0.039888
0.037018
0.029045
0.11388
0.20126
0.1008
0.054558
0.084217
0.089319
0.037018
-0.012413
-0.0079484
-0.002208
-0.0089051
-0.023575
-0.10266
-0.11287
-0.11064
-0.14189
-0.16294
-0.18558
-0.18845
-0.18749
-0.16166
-0.08066
0.063806
0.26695
0.16905
0.043715
0.053282
0.082622
0.1177
0.12121
0.14513
0.052963
0.090914
0.069547
0.079433
0.034148
-0.005716
-0.058336
-0.14253
-0.16995
-0.19547
-0.17282
-0.15847
-0.1218
-0.13041
-0.17538
-0.11733
-0.11319
-0.038883
-0.11255
-0.11925
-0.044623
-0.060569
-0.078746
-0.083211
-0.055466
-0.031867
0.026813
0.093146
0.092508
0.050731
0.047223
0.068271
0.077201
0.040207
0.12408
0.029364
0.14162
0.085173
0.0060837
0.01023
-0.024213
-0.063758
-0.076833
-0.0069916
-0.04271
-0.01911
-0.071093
-0.10872
-0.10426
-0.10968
-0.12818
-0.10872
-0.070774
0.068271
0.03925
-0.050044
-0.071411
-0.046218
0.017883
0.052645
0.047223
0.044034
0.008316
0.016289
0.031915
0.010548
-0.0060349
-0.082573
-0.087357
-0.02517
0.0070404
-0.052277
-0.092778
-0.097881
-0.0012513
-0.044304
-0.088633
-0.032504
0.040526
0.034786
-0.02198
-0.081935
-0.045261
-0.011456
-0.035694
-0.051639
-0.018153
-0.019748
-0.075238
-0.11861
-0.10011
-0.047174
-0.020705
-0.10266
-0.10139
-0.099794
-0.032186
-0.043347
-0.070455
-0.091822
-0.08927
-0.088633
-0.13838
-0.14986
-0.029953
0.070503
0.04531
0.15533
0.207
0.056471
0.0041702
0.098886
0.16458
0.14704
0.097292
0.12791
0.085811
0.034467
-0.014327
-0.064395
-0.052915
-0.12052
-0.15815
-0.13456
-0.12307
-0.14349
-0.11797
-0.14125
-0.10522
-0.08927
-0.070774
-0.068541
-0.082254
0.015651
0.19233
0.19169
0.072417
0.054558
0.0041702
-0.0095429
-0.01337
0.0054459
0.008635
-0.023894
-0.056423
-0.074919
-0.044623
-0.060569
-0.12786
-0.14508
-0.16517
-0.13615
-0.15305
-0.1438
-0.11829
-0.010181
-0.0038025
0.043715
0.14736
0.11834
0.046266
0.059023
0.078157
0.072098
0.061255
0.042121
0.11388
0.0070404
-0.027721
-0.028359
-0.094692
-0.1859
-0.2315
-0.19834
-0.1926
-0.19419
-0.17282
-0.18813
-0.18622
-0.14604
-0.059931
-0.014008
-0.00029452
0.04818
0.030321
0.0003433
0.0044891
0.037337
0.05105
0.10495
0.068909
0.00098112
0.034786
0.1193
0.1818
0.18722
0.072736
0.0028946
-0.022937
-0.022937
0.0131
-0.017835
-0.051958
0.0041702
0.01023
-0.056104
-0.10107
-0.093097
-0.060569
-0.057698
-0.056104
-0.076514
-0.10075
-0.081298
-0.016559
-0.0085862
0.03925
0.041483
0.072736
0.12121
0.095697
0.032234
0.03064
-0.0082673
-0.0015702
-0.065671
-0.053552
-0.029315
-0.062801
-0.075876
-0.08353
-0.18622
-0.18016
-0.17442
-0.16294
-0.15018
-0.062163
0.15151
0.060617
0.037656
0.037337
0.026494
0.05105
0.08326
0.13429
0.21688
0.14896
0.058704
0.097292
0.030321
-0.0018891
-0.025807
-0.10809
-0.14508
-0.15879
-0.18718
-0.20153
-0.18335
-0.19642
-0.18558
-0.1556
-0.14572
-0.0085862
0.11579
0.096654
0.017246
0.011186
0.027451
-0.01624
-0.015921
0.047861
0.12472
0.015651
0.040207
0.076244
-0.043028
-0.070136
-0.11765
-0.13615
-0.091184
-0.087357
-0.13456
-0.11415
-0.090227
-0.12563
-0.16262
-0.14476
-0.075557
-0.011456
0.076882
0.053601
0.022986
-0.0038025
0.0041702
0.03064
0.041802
0.047223
0.07146
0.066995
0.03638
0.082622
0.1295
0.10718
0.071141
-0.024213
-0.049088
-0.074601
-0.039202
-0.020386
-0.032823
0.042439
0.08039
0.046904
-0.030272
-0.048131
-0.050682
-0.035056
-0.040477
-0.034418
-0.072687
-0.11702
-0.036969
0.038612
0.057428
-0.02517
-0.074601
-0.082892
-0.064714
-0.036969
-0.0060349
0.027451
-0.0063538
-0.056423
-0.032504
-0.052277
-0.080022
-0.10617
-0.1285
-0.12754
-0.10681
-0.11096
-0.12084
-0.12084
-0.1218
-0.10809
-0.077471
-0.045899
-0.021024
-0.039839
-0.051958
-0.024851
-0.014645
-0.0044404
0.0057648
-0.026764
-0.022618
-0.0098618
0.011824
0.075606
0.042758
0.043715
0.061255
0.075606
0.074968
0.034148
0.061893
0.22741
0.34764
0.23315
0.15214
0.07752
0.079433
0.11802
0.16044
0.12536
0.094422
0.070503
0.035423
0.016289
0.031596
0.066677
0.0016189
-0.094373
-0.11893
-0.12754
-0.14189
-0.12722
-0.16517
-0.20695
-0.13711
-0.13456
-0.19483
-0.17697
-0.19387
-0.17091
-0.14795
-0.094054
-0.10649
-0.10203
-0.12244
-0.11829
-0.091184
-0.085443
-0.068541
-0.058336
-0.092141
-0.090865
-0.057379
-0.03378
-0.09533
-0.16294
-0.1623
-0.14636
-0.13711
-0.14253
-0.13232
-0.12786
-0.132
-0.12626
-0.11223
-0.097243
-0.10043
-0.099476
-0.070136
-0.012094
0.038612
0.059023
0.059023
0.088362
0.1531
0.17861
0.16618
0.15055
0.16745
0.12663
0.12217
0.10271
0.092827
0.096016
0.066677
0.099843
0.085811
0.13939
0.10495
0.0003433
-0.034099
-0.0012513
0.014375
0.064763
0.10239
0.08039
0.075606
0.029364
-0.053552
-0.079065
-0.034737
-0.041434
-0.047493
-0.0079484
-0.055785
-0.10266
-0.15465
-0.13487
-0.11925
-0.12531
-0.087038
-0.065671
-0.077152
-0.094054
-0.093735
-0.13838
-0.13647
-0.14763
-0.14859
-0.13456
-0.13424
-0.11797
-0.087995
-0.10266
-0.10936
-0.12658
-0.13966
-0.12307
-0.094692
-0.096286
-0.094054
-0.057379
-0.04845
-0.058017
-0.049407
-0.035375
-0.060569
-0.020705
0.027451
0.12376
0.09187
0.066358
0.070822
0.066358
0.080709
0.082622
0.077838
0.058385
0.039888
-0.0105
-0.029634
0.029683
0.031915
-0.012094
-0.05419
-0.082573
-0.08066
-0.095011
-0.088952
-0.060887
0.12791
0.19009
0.19169
0.14034
0.12121
0.07146
0.047542
0.077201
0.12631
0.18627
0.099524
0.069547
0.046585
-0.013689
-0.034099
-0.081617
-0.10777
-0.16071
-0.16804
-0.18973
-0.20025
-0.19228
-0.191
-0.14923
-0.076514
-0.094054
-0.11765
-0.11574
-0.080341
-0.085443
-0.069817
-0.036969
-0.023575
-0.050682
-0.058336
-0.03952
-0.051958
-0.12882
-0.036012
0.0032135
-0.047174
-0.040477
-0.057379
-0.050682
-0.027083
0.019478
0.02777
0.034148
0.038931
0.012143
-0.0031647
-0.00029452
-0.002208
-0.010819
-0.014327
-0.029634
-0.041434
-0.055147
-0.07173
-0.075557
-0.087676
-0.044304
-0.020067
-0.050044
-0.053234
-0.04271
-0.04845
-0.0105
0.071779
0.12217
0.12982
0.097611
0.074649
0.070822
0.10144
0.14353
0.13907
0.15597
0.10016
0.094422
0.11388
0.11196
0.065401
0.025856
-0.0079484
-0.0069916
-0.044623
-0.11351
-0.10968
-0.11702
-0.12754
-0.095011
-0.074282
-0.10904
-0.11351
-0.073963
-0.084806
-0.098838
-0.13774
-0.11797
-0.094692
-0.068222
-0.052915
-0.11733
-0.12212
-0.10649
-0.10649
-0.14508
-0.12148
-0.10809
-0.097243
-0.088952
-0.044304
-0.029315
-0.0089051
0.017564
0.014694
0.015013
0.017246
0.0051269
0.0054459
0.036061
0.059023
0.050412
0.045947
0.051369
0.025856
0.0028946
0.0019378
0.031278
0.040845
0.025218
0.047861
0.046904
0.063487
0.067952
0.060936
0.036061
0.032553
0.023305
-0.0076295
0.024899
-0.0082673
0.008316
0.038294
-0.0066727
-0.037288
-0.02517
0.029364
0.060298
0.0016189
-0.014645
-0.034099
-0.075238
-0.061525
-0.024851
-0.037607
-0.058336
-0.027721
-0.028996
-0.037288
-0.064714
-0.079065
-0.083849
-0.071093
-0.044304
-0.052277
-0.052915
-0.038883
-0.058974
-0.053234
-0.035375
-0.031548
-0.050363
-0.017197
0.008316
0.0013
-0.009224
-0.0073105
0.010867
0.021072
0.050093
0.041164
0.01597
0.02777
0.035742
0.014056
0.019478
0.010867
0.035104
0.14481
0.18053
0.15246
0.12089
0.08039
0.053282
0.061255
0.12886
0.16841
0.16107
0.11834
0.063806
0.01884
0.028726
0.018521
-0.0034836
-0.044942
-0.054509
-0.063439
-0.055466
-0.070774
-0.10649
-0.086719
-0.067266
-0.036331
-0.040477
-0.070774
-0.076833
-0.090865
-0.084487
-0.051958
-0.045899
-0.058336
-0.078427
-0.065671
-0.053234
-0.038883
-0.024532
0.021391
0.017883
0.014694
0.035742
0.066995
0.078476
0.075925
0.027451
0.010867
0.012781
0.0057648
-0.017197
-0.0041214
0.021072
0.0003433
-0.036012
-0.048131
-0.063439
-0.067903
-0.052915
-0.045261
-0.051639
-0.051639
-0.053871
-0.049726
-0.049726
-0.028359
-0.035056
-0.042072
-0.037607
0.015332
0.02171
0.0092728
0.008316
0.018521
0.0131
0.011824
0.031915
0.041802
0.052326
0.042439
0.046585
0.030002
0.029683
0.024899
0.026175
0.028726
0.022986
0.017883
0.0032135
0.010548
0.031596
0.062531
0.057109
0.074012
0.055515
0.033829
0.03064
0.0099106
-0.0098618
-0.010181
-0.0076295
-0.0025269
-0.0015702
-0.012094
-0.0066727
-0.010819
-0.028678
-0.038245
-0.032823
-0.0085862
-0.011456
-0.023256
-0.022618
-0.011456
-0.012413
-0.013051
-0.014327
-0.0034836
0.0057648
0.020435
0.074012
0.070185
0.065082
0.061893
0.066995
0.07433
0.079433
0.079114
0.088362
0.096654
0.069866
0.055196
0.052645
0.025218
-0.012094
-0.01624
-0.0085862
-0.021343
-0.027402
-0.019748
-0.017835
-0.026126
-0.023575
-0.011456
-0.018153
-0.01624
-0.0095429
-0.01911
-0.011775
-0.018472
-0.020386
-0.025488
-0.017197
-0.0050782
-0.0063538
-0.0098618
-0.0050782
0.0073593
0.0076782
0.016927
0.020435
0.0054459
0.0044891
0.019797
0.018521
0.008635
0.0051269
-0.0047593
-0.012094
0.0060837
0.011186
-0.0028458
-0.011137
0.0092728
0.019797
0.018521
0.02458
0.01884
0.0131
0.015651
0.016927
0.012781
0.0079971
0.0016189
-0.0063538
-0.0015702
0.0038513
0.0060837
0.0016189
0.0054459
0.010867
0.0131
0.017564
0.027451
0.011824
0.011505
0.01884
0.012462
0.011186
0.0060837
-0.009224
-0.012094
-0.0015702
0.0019378
2.4388e-05
-0.0018891
0.00066221
0.0044891
0.0079971
0.016608
0.017883
0.0076782
0.008635
0.014375
0.0070404
0.0019378
-0.0028458
-0.0105
-0.016559
0.0013
0.00098112
-0.0060349
-0.0098618
-0.0034836
0.0025757
0.0089539
0.020116
0.0073593
0.0028946
0.004808
0.0060837
0.00098112
-0.0047593
-0.0098618
-0.017835
-0.018472
-0.0082673
-0.0034836
-0.01337
-0.0082673
-0.0018891
0.0016189
0.0079971
0.017564
0.0022568
0.0025757
0.0054459
0.0028946
0.0044891
-0.002208
-0.011775
-0.018153
-0.012094
-0.0082673
-0.0063538
-0.0076295
-0.0047593
-0.0012513
-0.00093234
0.0060837
0.010867
0.0032135
0.0022568
0.0060837
-0.00061343
-0.0034836
-0.0079484
-0.014008
-0.021024
-0.010181
-0.009224
-0.010819
-0.0089051
-0.0063538
-0.0012513
0.0054459
0.011824
0.008316
0.0019378
0.0028946
0.0028946
-0.0015702
-0.0050782
-0.009224
-0.017516
-0.01911
-0.0073105
-0.0047593
-0.011775
-0.0076295
-0.0053971
-0.0018891
0.0064026
0.014694
2.4388e-05
0.0032135
0.0051269
0.0022568
0.0019378
-0.0053971
-0.014964
-0.018472
-0.013689
-0.0076295
-0.0073105
-0.0098618
-0.0050782
0.0013
0.0019378
0.012781
0.017246
0.0070404
0.0032135
0.012781
0.0070404
0.0013
-0.0047593
-0.010181
-0.016878
2.4388e-05
0.00066221
-0.0063538
-0.0060349
-0.0012513
0.0038513
0.0089539
0.019478
0.015013
0.0051269
0.0089539
0.011824
0.0070404
-0.0034836
-0.0031647
-0.0079484
-0.012094
-0.0012513
0.0022568
-0.0050782
-0.0012513
0.0044891
0.0089539
0.015013
0.023624
0.0092728
0.0095917
0.016608
0.0131
0.008635
0.0032135
-0.0041214
-0.012094
-0.0063538
0.00098112
0.0028946
-0.0047593
0.0019378
0.0067215
0.0067215
0.017883
0.020754
0.0092728
0.008316
0.015651
0.010548
0.0067215
0.0013
-0.0038025
-0.0098618
0.00098112
0.0016189
-0.00061343
-0.0018891
0.0019378
0.0095917
0.012781
0.020754
0.017564
0.011186
0.010548
0.0073593
0.0032135
-0.00061343
-0.0053971
-0.014327
-0.017516
-0.0031647
-0.0012513
-0.012413
-0.0073105
-0.0031647
-0.00061343
0.0057648
0.016608
0.0022568
0.0019378
0.0064026
0.0041702
-0.00061343
-0.0063538
-0.011456
-0.020705
-0.015602
-0.0095429
-0.0079484
-0.011456
-0.0089051
-0.0041214
-0.00061343
0.0057648
0.013419
0.00098112
0.0003433
0.0060837
0.0016189
-0.0018891
-0.0085862
-0.016878
-0.020386
-0.005716
-0.005716
-0.0079484
-0.0063538
-0.0034836
-0.0012513
0.0038513
0.013738
0.015013
0.0070404
0.0060837
0.0067215
0.0035324
-0.0038025
-0.010819
-0.014645
-0.017197
-0.0038025
-0.0053971
-0.012094
-0.0079484
-0.0050782
-0.0025269
0.0057648
0.013738
0.0016189
-0.002208
0.0051269
0.0013
-0.002208
-0.0089051
-0.014964
-0.020067
-0.017835
-0.013689
-0.0073105
-0.013051
-0.0082673
-0.0053971
-0.0031647
0.0054459
0.012462
-0.0015702
-0.0025269
0.0060837
2.4388e-05
-0.0038025
-0.0085862
-0.014645
-0.02198
-0.009224
-0.0050782
-0.0089051
-0.0095429
-0.0063538
0.0003433
0.0035324
0.0131
0.012143
0.0041702
0.0038513
0.0070404
0.0013
-0.0031647
-0.0069916
-0.014645
-0.018153
-0.0044404
-0.002208
-0.010819
-0.0076295
-0.0050782
0.0013
0.0067215
0.017246
0.0051269
0.0025757
0.0060837
0.0035324
0.0003433
-0.0041214
-0.0105
-0.017197
-0.012732
-0.0076295
-0.0060349
-0.0089051
-0.0041214
0.0025757
0.0051269
0.01597
0.023624
0.0079971
0.0076782
0.01884
0.0044891
0.0035324
0.0028946
-0.0050782
-0.012094
0.00066221
0.0019378
-0.002208
-0.0028458
0.0016189
0.0073593
0.0095917
0.019159
0.018521
0.01023
0.011824
0.016289
0.0099106
0.0051269
0.0013
-0.0063538
-0.010181
0.0041702
0.0060837
-0.0018891
-0.00029452
0.0041702
0.010548
0.015651
0.024262
0.013419
0.012781
0.017564
0.015332
0.0099106
0.0044891
-0.00029452
-0.0079484
-0.0066727
0.0022568
0.0041702
-0.0015702
0.004808
0.0073593
0.011505
0.019478
0.025856
0.0095917
0.011824
0.019797
0.013738
0.0095917
0.004808
-0.0038025
-0.009224
0.0032135
0.0076782
0.0035324
0.00066221
0.0076782
0.014375
0.014375
0.023943
0.026175
0.018521
0.014056
0.020754
0.015651
0.010867
0.0073593
-0.0028458
-0.0053971
0.0099106
0.010548
0.0032135
0.0060837
0.010548
0.01597
0.022986
0.030002
0.01884
0.01597
0.01884
0.019478
0.014056
0.0095917
0.0028946
-0.0053971
-0.0028458
0.0057648
0.0079971
-0.00029452
0.0067215
0.010548
0.0131
0.021072
0.028726
0.014375
0.0131
0.020435
0.01597
0.011824
0.0070404
-0.00029452
-0.0082673
0.0035324
0.0070404
0.0054459
0.0038513
0.008316
0.015013
0.018202
0.02777
0.028726
0.023624
0.017246
0.019478
0.01597
0.012143
0.0038513
0.00098112
-0.0047593
0.0095917
0.0095917
0.0019378
0.0022568
0.0070404
0.013738
0.01884
0.028726
0.019159
0.017564
0.022029
0.020116
0.016289
0.012462
0.0073593
0.0003433
2.4388e-05
0.010548
0.014375
0.0060837
0.012143
0.015651
0.019159
0.024899
0.033191
0.01884
0.017883
0.02458
0.020754
0.016608
0.0099106
0.0028946
-0.0041214
0.0051269
0.0095917
0.01023
0.0051269
0.0092728
0.014375
0.016289
0.025856
0.029045
0.019478
0.016608
0.021072
0.016927
0.010867
0.0070404
-0.0015702
-0.0069916
0.0099106
0.010867
0.0028946
0.0044891
0.0079971
0.014056
0.020435
0.029045
0.021072
0.017246
0.018521
0.018521
0.013738
0.01023
0.0038513
-0.0044404
-0.0038025
0.0064026
0.0095917
0.0019378
0.008316
0.0131
0.015651
0.022029
0.030959
0.015651
0.016289
0.022348
0.019159
0.013419
0.0089539
0.00098112
-0.0060349
0.0028946
0.0076782
0.0067215
0.0025757
0.01023
0.014694
0.016927
0.024899
0.027132
0.019159
0.017246
0.024899
0.01884
0.013738
0.0092728
0.0019378
-0.0038025
0.0131
0.012781
0.0070404
0.01023
0.015651
0.021391
0.028088
0.034786
0.026175
0.022029
0.023624
0.025537
0.016608
0.0131
0.010548
0.00098112
0.00066221
0.0089539
0.012462
0.0022568
0.0070404
0.012781
0.015013
0.021072
0.030002
0.017564
0.015013
0.023624
0.01884
0.014056
0.0095917
0.00098112
-0.0053971
0.0022568
0.0079971
0.0067215
0.0035324
0.0099106
0.014694
0.014694
0.025537
0.029045
0.020116
0.018521
0.023943
0.019478
0.014375
0.0095917
0.0016189
-0.0041214
0.012462
0.012781
0.0060837
0.0073593
0.010548
0.017564
0.022348
0.030002
0.025218
0.019478
0.021391
0.020435
0.015651
0.010548
0.0057648
-0.0028458
-0.0038025
0.0095917
0.010867
0.0028946
0.0067215
0.012462
0.014694
0.022348
0.031915
0.017246
0.015651
0.024899
0.020754
0.015332
0.01023
0.0025757
-0.0018891
0.0032135
0.0099106
0.0095917
0.0057648
0.0099106
0.016289
0.018202
0.027132
0.030959
0.022029
0.019478
0.026813
0.020435
0.016608
0.011824
0.004808
-0.0044404
0.0089539
0.011186
0.0070404
0.0089539
0.008316
0.013738
0.019797
0.025218
0.021391
0.017883
0.017246
0.021072
0.015013
0.008635
0.0022568
-0.0047593
-0.0038025
0.0067215
0.008635
0.00066221
0.0057648
0.0079971
0.010867
0.015651
0.027132
0.014375
0.015651
0.021072
0.016608
0.012781
0.0013
-0.0069916
-0.009224
-0.00029452
0.0076782
0.0057648
-0.00029452
0.0032135
0.0099106
0.0079971
0.017883
0.025218
0.010548
0.011186
0.022029
0.016608
0.01023
0.0025757
-0.0034836
-0.0089051
2.4388e-05
0.0076782
0.0079971
0.0067215
0.0044891
0.01023
0.017883
0.025856
0.022029
0.01597
0.015332
0.01597
0.012143
0.0089539
0.0032135
-0.0050782
-0.0069916
0.0064026
0.0079971
0.0016189
0.0044891
0.010548
0.013419
0.018521
0.029683
0.014375
0.013738
0.020435
0.018202
0.012462
0.010548
0.0025757
-0.0041214
0.00066221
0.0073593
0.008316
0.0016189
0.0067215
0.014694
0.016289
0.02458
0.03064
0.016289
0.014056
0.020435
0.015651
0.010548
0.0044891
-0.00093234
-0.0073105
0.0070404
0.0095917
0.0035324
0.0044891
0.0095917
0.015013
0.019478
0.028726
0.026175
0.020754
0.020754
0.025218
0.015651
0.014056
0.0073593
-0.0038025
-0.0089051
0.010867
0.013738
0.0028946
0.0028946
0.0073593
0.011505
0.017246
0.026494
0.013738
0.013419
0.017564
0.015013
0.010867
0.0051269
2.4388e-05
-0.0076295
-0.0034836
0.0070404
0.01023
0.0044891
0.0092728
0.012143
0.01023
0.021072
0.026813
0.019159
0.016927
0.024262
0.018521
0.0131
0.0067215
-0.0015702
-0.005716
0.0070404
0.008635
0.0073593
0.0057648
0.0060837
0.017246
0.023305
0.028726
0.028726
0.022348
0.021072
0.023624
0.022348
0.017246
0.014056
0.011186
0.0079971
0.022348
0.023305
0.014056
0.019797
0.025537
0.030002
0.035104
0.043077
0.025856
0.029045
0.029683
0.022986
0.016608
0.008316
0.0076782
-0.002208
0.0041702
0.012781
0.011824
0.0019378
0.0028946
0.01023
0.013419
0.023624
0.030959
0.015013
0.01597
0.02458
0.013738
0.010548
0.0032135
-0.0047593
-0.0060349
0.0057648
0.0079971
0.0025757
0.0013
0.0032135
0.012143
0.018521
0.028407
0.025218
0.01597
0.014375
0.016289
0.0067215
0.0064026
0.00098112
-0.0105
-0.014645
0.0019378
0.0041702
-0.0031647
-0.0015702
0.0057648
0.0067215
0.013738
0.025856
0.016289
0.015651
0.022029
0.020116
0.015013
0.014056
0.010548
2.4388e-05
0.0092728
0.030002
0.029683
0.03064
0.037018
0.049137
0.03925
0.045947
0.05679
0.042439
0.044034
0.054558
0.049774
0.049455
0.023624
-0.0025269
-0.0085862
0.011505
0.012781
0.0013
-0.0041214
-0.009224
-0.0025269
0.013419
0.019797
0.017246
0.0095917
0.012143
0.01884
0.012462
0.015013
0.021072
0.012143
0.0099106
0.02458
0.017246
0.011186
0.0073593
0.016289
0.023943
0.029364
0.031915
0.014694
0.008635
0.018202
0.015332
0.0025757
0.0099106
0.0067215
-0.0095429
-0.0079484
0.0051269
0.010867
-0.00061343
0.0070404
0.020754
0.019797
0.01884
0.028088
0.010867
-0.0012513
-0.0063538
0.0095917
0.0131
-0.0095429
-0.021343
-0.015921
-0.010819
-0.0085862
0.0028946
0.0028946
2.4388e-05
0.0067215
0.004808
0.022029
0.034148
0.028088
0.041164
0.066677
0.050093
0.035104
0.03351
0.031278
0.012143
0.026494
0.046585
0.068909
0.089957
0.087406
0.10335
0.089
0.10016
0.08039
0.07433
0.079752
0.084854
0.079114
0.069228
0.06285
0.071141
0.052963
0.01023
0.0070404
0.0051269
-0.0053971
-0.018791
-0.02517
-0.023575
-0.018791
-0.015921
-0.028678
-0.029315
-0.059931
-0.060887
-0.034418
-0.031229
-0.056423
-0.059612
-0.061525
-0.054828
-0.055147
-0.040796
-0.034099
-0.034737
-0.024851
-0.038883
-0.047174
-0.056742
-0.047812
-0.033461
-0.032823
-0.043028
-0.031867
-0.040477
-0.029634
0.0079971
0.0092728
0.0022568
0.0044891
-0.0066727
0.0041702
0.0070404
0.0028946
0.019159
0.03638
0.056153
0.029364
0.013738
-0.00093234
-0.011775
-0.017516
-0.0089051
0.0032135
0.01023
0.014694
0.030959
0.044991
0.055515
0.038612
0.0013
0.0057648
0.019478
0.015651
0.0099106
0.0073593
0.017564
0.029045
0.05392
0.050412
0.081028
0.12217
0.13939
0.13907
0.14034
0.13237
0.11675
0.086768
0.13205
0.15438
0.12121
0.08326
0.049137
0.052963
-0.0044404
-0.034099
-0.042391
-0.056423
-0.094054
-0.043347
-0.023575
-0.054509
-0.052915
-0.069179
-0.0012513
-0.017835
-0.040158
-0.043347
-0.039839
-0.032823
-0.021343
-0.031229
0.012781
0.0003433
-0.013689
-0.021024
-0.03952
-0.024213
-0.026445
-0.021661
-0.035694
-0.036012
0.0051269
0.020116
0.012781
0.046266
0.054877
0.052326
0.037018
0.092189
0.089957
0.083579
0.10654
0.13556
0.10144
0.10813
0.12855
0.080709
0.071141
0.085811
0.057747
0.022986
-0.022618
-0.04558
-0.032504
0.0019378
-0.010181
-0.083211
-0.033461
0.0016189
-0.0085862
-0.033142
-0.014008
-0.036969
-0.039839
-0.02804
-0.010181
-0.025807
-0.037288
-0.062163
-0.099794
-0.052915
-0.049088
-0.044304
-0.067266
-0.047174
-0.014964
-0.014008
-0.01337
-0.0082673
-0.021343
-0.02517
-0.013051
-0.0069916
-0.012413
-0.033142
-0.03378
-0.038245
-0.050363
-0.054509
-0.06312
-0.067903
-0.041753
-0.04845
-0.063758
-0.064077
-0.058336
-0.091184
-0.10107
-0.059612
-0.012094
-0.03952
-0.070455
-0.092141
-0.10968
-0.12212
-0.11638
-0.08066
-0.071411
-0.073325
-0.071411
-0.051001
-0.046536
-0.043347
-0.062163
-0.049726
-0.020705
0.0032135
0.011186
0.0076782
0.041483
0.083579
0.12631
0.22358
0.20253
0.21338
0.19966
0.17064
0.14832
0.17415
0.2121
0.25164
0.23538
0.14864
0.10112
0.093784
0.046266
0.0060837
-0.011775
0.044353
0.037018
0.0035324
-0.023256
-0.0069916
0.013419
0.034148
0.027451
-0.0047593
0.01597
0.0131
0.0051269
-0.012094
0.025537
0.0095917
-0.039839
0.052645
0.092189
0.09506
0.10016
0.060617
0.048499
0.059023
0.056153
0.084536
0.10654
0.13556
0.09793
0.052326
0.015651
0.015651
0.032234
0.031596
0.030959
0.042439
0.050412
0.038931
0.017246
0.020754
0.025218
0.050731
0.057747
0.054558
0.037656
-0.015283
-0.087038
-0.063439
-0.086719
-0.1438
-0.13743
-0.14699
-0.19642
-0.19005
-0.15433
-0.093097
-0.073644
-0.037926
-0.011775
-0.049088
-0.071093
-0.046855
-0.014645
0.038294
0.098568
0.064763
0.037337
0.040526
0.017883
0.008635
-0.038883
-0.043347
-0.032504
-0.014964
-0.019748
0.02458
0.073374
0.026175
-0.029634
0.0095917
-0.017197
-0.027083
0.01884
0.04531
0.10686
0.15501
0.17766
0.11324
0.037337
0.035423
0.077201
0.069866
0.058066
0.056153
0.0025757
-0.00029452
0.052326
0.016608
0.043077
-0.0069916
0.046904
0.022348
-0.0044404
-0.021343
-0.0098618
-0.022937
-0.037607
0.0064026
0.018202
-0.017835
-0.0105
-0.011456
0.0095917
0.065082
0.042439
-0.039202
-0.03665
-0.042072
-0.036331
-0.037607
0.0057648
0.050093
0.10431
0.1126
0.088362
0.019159
-0.0066727
-0.017516
-0.041434
-0.070136
-0.047174
-0.054828
-0.080979
-0.086719
-0.031867
0.037337
0.052645
0.076244
0.12376
0.11547
0.13397
0.11419
0.062531
0.075287
0.10239
0.11611
0.11483
0.14672
0.054877
-0.00093234
-0.028996
-0.074919
-0.10872
-0.10681
-0.13456
-0.078746
-0.059612
-0.053234
-0.063758
0.020435
0.061893
0.02777
0.0044891
0.041802
0.055196
0.057428
0.03925
0.095378
0.096016
0.083898
0.012462
-0.012094
0.05392
0.1598
0.15374
0.10845
0.029364
-0.0069916
0.062212
0.3218
0.37187
0.27269
0.21338
0.15788
0.11802
0.091233
0.11515
0.13588
0.12791
0.018521
-0.11096
-0.038883
-0.063758
-0.028678
-0.075238
-0.16039
-0.22226
-0.26084
-0.28668
-0.28986
-0.25765
-0.18112
-0.12307
-0.16039
-0.1269
-0.06599
-0.11478
-0.11638
-0.11893
-0.11287
-0.078109
-0.065352
-0.074282
-0.053552
-0.026126
0.025856
0.20572
0.26568
0.24176
0.27142
0.27779
0.22836
0.20381
0.22103
0.27333
0.30395
0.22549
0.36422
0.35401
0.30331
0.21465
0.19679
0.22517
0.040845
-0.013689
-0.11128
-0.067266
-0.060887
-0.035375
0.0041702
-0.042072
-0.069498
-0.08353
-0.039839
-0.060569
-0.027402
-0.069498
-0.096286
-0.081617
-0.087357
-0.082573
-0.04271
-0.037288
-0.099794
-0.055785
-0.063758
-0.064077
0.029683
-0.12754
-0.1926
-0.19866
-0.18175
-0.2146
-0.18813
-0.20695
-0.1639
-0.18654
-0.11223
-0.20312
-0.18175
-0.16166
-0.1674
-0.12913
-0.085762
-0.038564
0.00098112
0.043396
0.077838
0.05679
0.093784
0.34477
0.3167
0.33233
0.28864
0.32723
0.27078
0.29374
0.31862
0.28194
0.28098
0.23347
0.20158
0.18722
0.13907
0.11292
0.11196
-0.026126
-0.057061
-0.047493
-0.037607
-0.10139
-0.070136
-0.094373
-0.06025
-0.026764
-0.13456
-0.15752
-0.11765
-0.11861
-0.15018
-0.10203
-0.045261
-0.091822
-0.17378
-0.22863
-0.2433
-0.20599
-0.18781
-0.10585
-0.1403
-0.15146
-0.16549
-0.13169
-0.15369
-0.18781
-0.19579
-0.25989
-0.11159
-0.10585
-0.1556
-0.19068
-0.18462
-0.20822
-0.22289
-0.18048
-0.17282
-0.12052
-0.06886
0.076882
0.044353
0.0095917
-0.0098618
-0.019429
-0.037926
0.042439
0.15023
0.16044
0.1193
0.22422
0.24559
0.20987
0.18722
0.22358
0.23634
0.21625
0.19966
0.37857
0.40376
0.58778
0.51124
0.34285
0.30044
0.21975
0.21465
0.13046
0.16458
0.20572
0.1008
0.095378
-0.0095429
-0.10553
-0.11351
-0.11702
-0.18909
-0.19547
-0.21365
-0.1454
-0.16932
-0.093735
-0.018472
-0.11829
-0.16995
-0.14636
-0.12499
-0.13647
-0.099157
-0.027083
-0.00061343
-0.036012
-0.074282
-0.18431
-0.20248
-0.20854
-0.18367
-0.19387
-0.22098
-0.18399
-0.18686
-0.2398
-0.25223
-0.26021
-0.21588
-0.20854
0.050731
0.028726
0.024899
0.010867
0.028726
0.028726
0.053601
0.11132
0.27779
0.24877
0.22836
0.20126
0.14417
0.15342
0.11388
0.031915
-0.044623
0.017883
-0.028359
-0.071093
0.014694
0.0070404
-0.091822
-0.15433
-0.082254
0.01597
-0.037607
-0.025488
0.042439
0.11101
0.10144
0.11515
0.14226
0.25547
0.32531
0.22262
0.14768
0.13779
0.20317
0.18786
0.052645
0.025537
-0.014645
-0.18494
-0.23469
-0.13105
-0.13487
-0.22098
-0.2669
-0.28859
-0.28859
-0.13998
-0.1269
-0.083849
-0.022299
0.0070404
-0.037926
-0.0038025
0.10271
0.020435
-0.08066
0.015013
0.084536
0.029045
-0.047493
-0.053234
-0.1269
-0.19642
-0.17027
-0.17697
-0.11957
-0.15305
-0.12595
-0.10075
-0.045899
0.24176
0.23219
0.24303
0.26504
0.14832
0.088681
0.14258
0.1547
0.11643
0.27556
0.27205
0.17479
0.10399
0.054877
-0.066309
-0.13424
-0.16645
-0.19898
-0.20089
-0.17729
-0.15018
0.059342
0.066995
0.16363
0.072736
0.13971
0.069228
0.023624
0.075925
0.14609
0.10558
0.077201
0.18722
0.051688
0.025218
-0.02198
-0.14923
-0.21333
-0.24394
-0.2197
-0.21843
-0.21652
-0.21779
-0.18144
-0.021024
0.30426
0.14066
-0.009224
0.19839
0.23028
0.099843
0.059661
0.088044
0.10909
0.10367
0.17064
0.073374
-0.038564
-0.19036
-0.082892
-0.14923
-0.27169
-0.29178
-0.29114
-0.3495
-0.32494
-0.26212
-0.23406
-0.22927
-0.17027
-0.059293
-0.034737
-0.036331
0.08039
0.11005
0.18691
0.2459
0.28226
0.20476
0.14513
0.21401
0.25611
0.14226
0.12695
0.21306
0.17192
0.017246
-0.053871
-0.076195
-0.09533
-0.045261
0.21465
0.094103
0.041483
0.15788
0.059023
0.13046
0.229
0.36231
0.28736
0.066358
0.20413
0.38814
0.21178
0.027451
-0.090227
-0.11319
-0.12499
-0.15401
-0.19196
-0.25447
-0.33419
-0.32463
-0.34823
-0.3782
-0.38841
-0.34823
-0.26116
-0.2433
-0.27519
-0.28859
-0.24936
-0.17825
-0.011137
-0.068541
-0.11957
-0.11415
-0.16262
-0.0864
-0.05419
-0.052277
-0.0076295
-0.03665
0.028407
0.019478
-0.067903
-0.074919
-0.06025
0.046585
0.38017
0.21242
0.16139
0.21178
0.17511
0.15151
0.17734
0.24335
0.29916
0.21688
0.16267
0.23028
0.26153
0.095697
0.064763
-0.061206
-0.1336
-0.1151
0.014694
-0.030272
-0.045899
-0.086719
-0.15911
-0.15624
-0.050363
-0.085762
-0.20216
-0.050044
-0.057379
-0.14667
-0.14412
-0.074601
0.031596
0.015651
-0.0025269
0.19711
0.43406
0.43757
0.34381
0.14832
0.12376
0.0003433
0.16076
0.2223
0.10463
0.05679
0.092508
-0.048131
-0.093735
-0.23533
-0.31187
-0.37725
-0.41137
-0.39574
-0.38012
-0.28062
0.062531
-0.061525
-0.079065
0.013738
-0.023256
-0.051639
-0.11
-0.025488
-0.062163
0.017883
-0.04845
-0.072049
-0.0095429
-0.11159
-0.1454
-0.15752
-0.24841
-0.25383
-0.25797
-0.20248
-0.11319
0.0051269
0.28385
0.40887
0.11962
0.11069
0.18244
0.13397
0.2172
0.1767
0.24176
0.17606
0.050093
0.2223
0.093146
-0.071093
-0.11446
-0.1438
-0.22608
-0.25829
-0.2551
-0.11351
0.012781
0.18627
0.14417
0.11547
0.018202
0.026175
0.27461
0.26663
0.22964
0.10686
0.07752
0.10782
0.15374
0.11643
-0.078109
-0.22608
-0.22034
-0.25415
-0.26945
-0.23374
-0.27009
-0.25765
-0.072368
-0.13551
-0.14285
-0.021024
0.099524
0.012462
0.010548
-0.061844
-0.0012513
0.008316
0.091233
0.080071
-0.018472
-0.13169
-0.12595
-0.12148
-0.15178
-0.2095
-0.19164
-0.18909
-0.036331
-0.0018891
0.034467
-0.10203
-0.026126
0.014056
0.094422
-0.032823
-0.10713
0.15342
0.1295
0.088681
-0.053234
-0.043985
-0.1403
-0.13232
-0.092778
-0.054828
-0.081617
-0.15752
-0.169
-0.13934
-0.13934
-0.10585
-0.028359
0.042121
0.066995
0.015332
0.071779
0.15948
0.17415
0.2424
0.069547
0.3285
0.37825
0.3218
0.20476
0.11451
0.14162
0.12057
0.023624
0.09793
0.059661
-0.090865
-0.14827
-0.10362
-0.17187
-0.2044
-0.21875
-0.22608
-0.20886
-0.12882
-0.12754
-0.19674
-0.19196
-0.1438
-0.12913
0.012143
0.028407
-0.0044404
0.058066
0.01597
0.063487
0.025218
0.06572
0.022667
-0.065671
0.0095917
0.093465
-0.031229
-0.10266
-0.074601
-0.062801
-0.090227
-0.13519
-0.16677
-0.16294
-0.10585
0.12217
0.10654
0.077201
0.10718
0.17511
0.15661
0.23697
0.28385
0.11037
0.13237
0.18754
0.11675
0.13365
0.052645
0.030002
-0.058336
-0.054509
-0.1033
-0.18399
-0.18973
-0.2264
-0.23374
-0.23629
-0.21939
-0.23278
-0.18686
-0.036331
0.0003433
0.026813
-0.021024
0.12217
0.071779
0.16458
0.20572
-0.0041214
-0.0069916
0.010867
0.17479
0.21401
0.12791
0.01597
0.008635
0.076244
0.01884
-0.10809
-0.093097
-0.16039
-0.18813
-0.14763
-0.098838
-0.014645
-0.0044404
-0.11829
0.039569
0.098249
0.029683
-0.070455
-0.093097
-0.026126
0.017883
0.042439
0.035742
-0.0034836
-0.035694
-0.037607
-0.042072
-0.094373
-0.12339
-0.11446
-0.047812
0.015651
0.064763
0.079114
0.083579
0.072098
0.0070404
0.02171
-0.040796
-0.023575
0.028726
-0.17187
-0.13232
0.15597
0.1193
-0.015921
-0.10107
-0.17219
-0.19961
-0.21237
-0.20153
-0.15592
-0.11989
-0.1403
-0.07779
-0.039839
-0.10872
-0.097243
-0.10043
-0.11861
0.12727
0.052645
0.063169
0.32691
0.23155
0.32308
0.19201
0.084217
0.18754
0.17192
0.1193
0.16107
0.13843
0.077201
0.0070404
-0.058974
-0.10904
-0.16262
-0.19068
-0.23565
-0.2398
-0.24362
-0.19834
-0.12977
-0.10841
0.0079971
0.10016
0.13907
0.16044
0.085492
0.049774
0.02458
0.083898
0.03638
0.17606
0.085173
-0.075876
-0.023256
0.052007
-0.0085862
-0.03091
-0.19929
-0.20376
-0.20695
-0.18175
-0.19483
-0.18781
-0.22194
-0.12467
-0.13998
-0.065352
-0.082573
-0.059612
-0.023256
-0.018472
0.028726
-0.02517
0.01023
0.015332
0.071779
0.20668
0.1582
0.047223
0.13779
0.089638
-0.0047593
-0.011775
0.092189
0.041164
0.0070404
-0.034418
0.0016189
0.0070404
-0.075557
-0.098838
-0.092778
-0.10139
-0.03952
0.011186
-0.061525
0.043077
0.022029
-0.083211
-0.083849
-0.025807
0.061893
-0.012094
-0.032186
0.036699
0.014375
-0.014008
0.021072
-0.021343
-0.047493
0.096016
-0.029315
0.0057648
0.24814
0.17479
0.17415
0.061893
0.069547
0.066677
0.031278
0.1767
0.12663
0.097611
0.050412
-0.038883
-0.12244
-0.076514
-0.082573
-0.20312
-0.24873
-0.27711
-0.22034
-0.17155
-0.15975
-0.2044
-0.11542
-0.04271
0.008316
0.11515
0.020116
0.016608
0.19137
0.26089
0.16554
0.11643
0.11611
0.045629
0.020116
0.070822
-0.03378
0.020754
0.017246
-0.086719
-0.20599
-0.20216
-0.24458
-0.23278
-0.23119
-0.22895
-0.21907
-0.16677
-0.16071
-0.17059
-0.15911
-0.11606
0.043396
0.17702
0.32276
0.36518
0.3521
0.11292
0.054239
0.031915
0.035742
0.15597
0.15342
0.25579
0.23347
0.11005
-0.12052
-0.20185
-0.26276
-0.30709
-0.25542
-0.25734
-0.26563
-0.24777
-0.22002
-0.20089
-0.1741
-0.13456
-0.10235
-0.056742
-0.017197
0.12089
0.087725
0.028726
-0.0012513
0.016289
0.061574
0.0064026
0.12695
-0.056104
0.097611
0.18946
0.053601
0.020754
-0.044942
-0.09533
-0.11446
-0.10235
-0.058017
-0.057698
-0.072687
-0.057379
-0.043985
-0.06025
-0.01337
-0.017835
0.065401
0.13971
0.048818
0.0028946
0.11515
0.13046
0.073055
-0.030272
-0.044942
0.11164
0.012462
-0.017835
-0.026445
-0.087038
-0.15656
-0.12499
-0.11893
-0.13519
-0.14125
-0.11797
-0.10011
-0.069817
0.044991
-0.0012513
0.042758
0.034467
0.035104
0.038612
0.077838
0.15565
0.20763
0.17798
0.1295
0.11069
0.16937
0.091233
0.10622
0.063806
0.064763
0.05679
0.034467
-0.029315
0.081028
-0.034737
-0.13264
-0.086081
-0.12244
-0.12626
-0.095649
0.095697
0.12982
0.034786
-0.070136
0.0025757
0.052007
0.10463
0.0073593
-0.022299
-0.085762
-0.029953
0.045947
0.010867
-0.0098618
-0.072687
-0.11159
-0.1454
-0.15784
-0.17729
-0.15975
-0.17793
-0.13456
0.0032135
-0.043347
-0.095011
-0.072368
-0.044942
-0.061206
-0.005716
-0.0063538
-0.015283
-0.029953
-0.014645
0.031278
0.034786
0.010867
0.074012
0.093465
0.040526
-0.071093
0.10941
0.11388
0.063806
0.044991
0.016608
0.010548
0.14353
0.081984
0.028726
0.079114
0.050731
-0.03665
-0.017516
0.046585
0.062212
0.022986
-0.027083
0.010548
-0.052596
-0.09533
-0.044623
-0.069179
-0.0031647
-0.0060349
-0.06025
-0.025488
-0.021661
-0.039839
-0.037288
0.032553
0.015013
-0.0076295
0.17606
0.084536
0.024899
-0.039839
-0.0012513
0.0054459
-0.046218
0.017246
0.042758
-0.0079484
0.0025757
-0.0044404
-0.024851
-0.1033
-0.077471
-0.0060349
0.023943
0.030321
-0.020386
-0.037926
-0.0085862
0.036699
0.094103
0.022029
0.017246
0.045947
0.028726
0.037656
-0.058017
-0.09533
0.0019378
0.061574
0.0019378
-0.0028458
0.022667
-0.031548
-0.10617
-0.10745
-0.10043
-0.081935
-0.071411
-0.11096
-0.055466
0.020754
0.09187
0.010867
-0.026445
-0.01337
0.047861
0.026494
-0.014964
0.0070404
-0.010181
0.02171
0.037975
0.012781
-0.031867
-0.097881
-0.10713
-0.099157
-0.087676
-0.097562
-0.086081
-0.073963
-0.023894
-0.041115
0.030002
0.1295
0.015013
0.055515
0.17192
0.20445
0.15438
0.090276
0.10558
0.12408
0.10016
0.032872
0.064444
0.15342
0.12057
-0.00029452
-0.00093234
0.022029
-0.0063538
-0.068222
-0.062801
-0.059612
-0.065352
-0.068222
-0.095011
-0.10936
-0.06025
0.096654
0.040845
-0.047812
-0.085762
-0.052277
-0.084168
-0.058655
-0.058655
-0.027402
0.0067215
-0.01337
-0.0050782
-0.076514
-0.095011
-0.10075
-0.10617
-0.09246
-0.067266
-0.051958
-0.090227
-0.056742
-0.048131
-0.037607
-0.022299
0.0025757
0.040845
0.092508
0.22868
0.16554
0.070185
0.041164
0.043715
0.063487
-0.028996
0.06572
0.12918
0.079752
0.066995
0.052963
-0.017835
-0.052277
0.041483
0.0041702
-0.026764
-0.0038025
2.4388e-05
0.04531
0.10973
0.087725
0.20317
0.19807
0.091233
0.062531
0.07146
0.041802
0.035104
0.11579
0.029364
-0.0025269
0.0054459
-0.082254
-0.12052
-0.1757
-0.19005
-0.15943
-0.17091
-0.20089
-0.17825
-0.16677
-0.12467
0.063487
0.071141
-0.043028
-0.031548
0.023305
0.026494
-0.0034836
-0.029315
0.060617
0.13429
0.099843
0.13429
0.027451
-0.022937
-0.071411
-0.098838
-0.13169
-0.059612
-0.046855
-0.030591
-0.040158
-0.063439
-0.094692
-0.079703
-0.084806
-0.036331
0.072736
0.031915
0.0131
0.021072
0.011505
0.042758
0.12823
0.090595
0.071779
0.10813
0.044034
0.0070404
0.098249
0.023943
0.015013
0.071141
-0.02198
-0.067585
-0.056742
-0.034737
-0.051639
0.084217
0.12089
-0.0028458
0.0099106
0.0022568
0.04818
0.027132
-0.039202
0.004808
0.044672
-0.0044404
-0.027083
-0.035694
-0.087676
0.0022568
-0.10362
-0.11957
-0.15082
-0.1285
-0.051958
-0.0095429
-0.0098618
-0.014964
-0.011775
-0.010819
-0.025807
-0.049407
-0.03378
-0.022937
-0.016878
-0.018791
-0.098519
-0.055147
-0.040796
-0.0069916
0.075925
0.032553
0.031278
0.020116
0.10558
0.15757
0.15533
0.15214
0.11419
0.080071
0.10526
0.10686
0.12344
0.040526
-0.074601
0.11388
0.15214
0.0003433
-0.10936
-0.075238
-0.047812
-0.096605
-0.11383
-0.068541
-0.022618
-0.080341
-0.086081
-0.094054
-0.10107
-0.10458
-0.090227
-0.096605
0.0073593
0.12886
0.018202
-0.0038025
0.072736
0.0067215
0.0028946
0.035104
0.032553
0.029045
0.038294
0.015332
-0.002208
-0.014645
-0.091822
-0.15497
-0.20057
-0.17761
-0.11319
-0.12754
-0.14636
-0.14157
-0.13073
-0.085443
-0.096286
-0.027402
-0.03378
-0.017835
0.016927
0.13046
0.10877
0.067314
0.13429
0.2542
0.18754
0.1783
0.1531
0.32212
0.2475
0.13684
0.12344
0.11005
0.069547
0.11132
0.063169
-0.0012513
-0.054509
-0.11925
-0.1741
-0.20886
-0.19579
-0.17857
-0.18335
-0.17538
-0.16549
-0.12945
-0.11702
0.13716
0.12695
-0.010819
-0.044942
-0.025807
0.026494
0.040207
0.064763
-0.028359
0.093784
0.06285
-0.005716
-0.034737
-0.087676
-0.11702
-0.13838
-0.14093
-0.13456
-0.1454
-0.1505
-0.13838
-0.1269
-0.1151
-0.10394
-0.090546
-0.012094
0.008316
0.030002
0.00066221
0.0070404
0.072417
0.21082
0.12823
0.096654
0.087087
0.069866
0.06285
0.12249
0.047542
0.026494
0.013738
-0.068222
-0.040796
-0.034418
-0.06886
-0.12084
-0.079703
-0.079384
-0.047812
-0.020386
0.028407
0.015651
0.10144
0.060617
0.14194
0.085811
0.12153
0.23347
0.10176
0.13046
0.13524
0.12504
0.093146
0.08613
0.028407
-0.00093234
-0.042391
-0.014327
-0.052277
-0.055147
-0.086719
-0.10235
-0.044942
0.083579
0.020754
-0.059612
-0.035694
0.016289
0.040207
0.042758
-0.065352
0.010867
0.052007
0.069866
-0.010181
-0.11733
-0.16358
-0.10075
-0.12435
-0.18048
-0.18431
-0.1757
-0.19547
-0.18558
-0.15879
-0.14827
-0.11542
-0.073325
-0.067903
-0.031229
0.047223
-0.020386
0.034148
0.084536
0.070822
0.028407
0.11037
0.1665
0.1716
0.1177
0.035104
-0.03091
0.05679
0.096335
0.11037
0.052645
-0.025488
0.010867
-0.033461
-0.0982
-0.094054
-0.093097
-0.10426
-0.12276
-0.064077
0.059661
0.14609
0.11611
0.047861
0.047542
0.10622
0.13971
0.21146
0.17893
0.15087
0.08613
0.11419
0.14034
0.075287
0.022029
-0.03665
-0.12276
-0.16645
-0.13774
-0.17474
-0.13838
-0.16772
-0.1859
-0.17665
-0.18239
-0.15018
-0.13137
-0.090227
-0.094054
-0.023894
-0.0028458
0.07752
0.11643
0.030959
0.067314
0.06285
-0.0018891
0.049774
0.11324
0.046266
0.022348
0.044672
0.014375
-0.020067
-0.055466
-0.099476
-0.13934
-0.13774
-0.13679
-0.17219
-0.1926
-0.11415
0.0035324
-0.070774
-0.0050782
0.11993
0.16235
0.049455
0.069228
0.11802
0.16171
0.26376
0.18021
0.05679
0.25611
0.29534
0.19711
0.059979
0.03351
0.025856
0.11132
0.10813
0.015651
-0.046855
-0.06025
-0.08353
-0.056423
-0.11383
-0.11478
-0.15241
-0.18207
-0.17729
-0.19642
-0.19674
-0.14061
-0.12786
-0.15273
-0.14349
-0.049407
0.0073593
0.033191
-0.026764
-0.074282
-0.072368
-0.055466
0.0016189
0.020116
0.028407
-0.14604
-0.070455
-0.087038
-0.08927
-0.11223
-0.17059
-0.16549
-0.11989
-0.11159
-0.10075
-0.082254
0.015013
0.025218
0.081665
0.017246
-0.013689
-0.010819
0.011505
0.073693
0.059979
0.055515
0.056471
0.043396
-0.0076295
-0.030272
-0.011775
-0.036969
0.0016189
0.017246
-0.061206
-0.060569
-0.055147
-0.019748
-0.014645
0.094422
0.13397
0.08039
0.10654
0.16076
0.1598
0.2931
0.33137
0.16618
0.17351
0.10909
0.1818
0.16905
0.11164
0.083579
0.022029
0.017246
-0.017516
-0.14349
-0.1454
-0.14285
-0.036969
-0.11
-0.22544
-0.15465
-0.10841
-0.081935
-0.086081
-0.11797
-0.16326
-0.15178
-0.11989
-0.082254
-0.11478
-0.13998
-0.11255
-0.13679
-0.11096
-0.13519
-0.13073
-0.13169
-0.11255
-0.064077
0.040845
-0.011775
-0.0089051
-0.014964
-0.016559
-0.052915
-0.11351
-0.078109
-0.0076295
0.012781
-0.045261
-0.093735
-0.084487
-0.056742
-0.058974
-0.064714
-0.085762
-0.080022
-0.079703
-0.054828
0.030002
0.069547
0.027132
0.046585
0.13014
0.11005
0.15246
0.15565
0.16586
0.12057
0.12504
0.24622
0.22741
0.19201
0.10622
0.11993
0.067633
0.015013
-0.023256
-0.078427
-0.10585
-0.11829
-0.13838
-0.032186
0.17032
0.042439
0.068909
0.055196
0.075287
0.075606
0.072098
0.10782
0.13716
0.1598
0.0054459
0.024899
0.07433
0.061574
-0.059612
-0.11606
-0.11638
-0.19547
-0.21396
-0.23342
-0.21556
-0.2213
-0.19419
-0.15879
-0.18048
-0.13073
-0.14061
-0.13583
-0.10617
-0.048131
-0.071093
-0.096924
-0.08353
0.0003433
0.03638
0.0019378
0.024899
0.022986
0.0022568
0.010867
-0.015283
0.025537
0.057747
0.0079971
-0.00029452
0.06572
0.044034
-0.023575
-0.053871
-0.061525
-0.052277
-0.047493
0.017246
-0.014964
-0.036012
-0.0047593
-0.035694
-0.056742
-0.0066727
0.072417
0.10558
0.13365
0.076882
0.029683
0.014375
0.18978
0.18754
0.1649
0.1228
0.091552
0.026494
0.10909
0.11579
0.11324
0.061574
-0.033142
-0.069817
-0.041753
-0.041753
0.0035324
0.0041702
-0.0098618
0.15501
0.18467
0.17925
0.15884
0.052007
0.084536
0.057747
0.070503
0.033829
0.031278
-0.021343
-0.027083
-0.082892
-0.1285
-0.22927
-0.29433
-0.33451
-0.33451
-0.31091
-0.29784
-0.28731
-0.26499
-0.21588
-0.16932
-0.10203
-0.087038
-0.086719
-0.057379
-0.058974
-0.065671
-0.058017
-0.050044
-0.058974
-0.019429
0.013419
-0.016878
-0.066309
-0.047174
-0.030272
-0.023256
-0.037288
-0.043666
-0.018791
-0.013689
-0.0012513
-0.0076295
0.041483
0.025537
0.064444
0.17957
0.22677
0.2813
0.25133
0.25005
0.21114
0.14768
0.21114
0.27907
0.25228
0.15757
0.09506
0.026175
0.055515
0.028407
-0.054828
-0.10809
-0.20376
-0.22257
-0.21939
-0.26244
-0.26116
-0.24777
-0.24841
-0.23629
-0.20535
-0.16772
-0.086081
-0.086081
-0.096286
-0.062163
-0.022937
0.0067215
0.033191
0.052326
0.080071
0.066677
0.062531
0.037656
0.015651
0.0073593
0.010548
-0.010819
-0.059293
-0.097562
-0.10107
-0.14636
-0.19005
-0.20344
-0.20408
-0.21588
-0.19036
-0.13615
-0.099794
-0.085762
-0.062163
-0.084168
-0.059931
0.03925
0.14449
0.17798
0.1665
0.1311
0.12695
0.11611
0.075606
0.050412
0.047861
-0.0050782
0.00098112
0.10622
0.008635
-0.082573
-0.10171
-0.12212
-0.12945
-0.14189
-0.1202
-0.059612
-0.034737
-0.013051
-0.028996
0.025218
0.11101
0.12121
0.096973
0.12217
0.095378
0.09506
0.04531
-0.0098618
0.073693
0.068271
-0.080022
-0.054509
-0.067266
-0.12531
-0.17665
-0.22353
-0.23119
-0.24203
-0.24522
-0.22991
-0.19898
-0.18845
-0.16358
-0.12371
-0.089908
-0.06312
-0.011775
-0.0095429
-0.022937
0.02458
0.085492
0.064763
0.040845
0.048818
0.092508
0.064763
0.01884
0.02777
0.026175
0.015651
-0.011137
-0.021661
-0.021343
