0.037337
-0.011775
-0.032823
0.0035324
0.021391
-0.0063538
-0.010819
0.029683
0.081346
0.071141
0.099205
0.098249
0.10782
0.14577
0.13652
0.15023
0.17
0.18722
0.19392
0.14959
0.11579
0.10335
0.081346
0.05105
0.022029
-0.020386
-0.035694
-0.038883
-0.033142
-0.048769
-0.055147
-0.015921
0.059342
0.085492
0.10303
0.090595
0.085492
0.10112
0.11101
0.1177
0.12249
0.11515
0.12089
0.11675
0.085811
0.040526
0.022029
0.019797
0.0016189
-0.0044404
0.03925
0.036061
0.0092728
0.020116
0.033829
0.040207
0.074012
0.15055
0.14545
0.10303
0.13078
0.15214
0.14672
0.1429
0.15788
0.16299
0.14034
0.13971
0.13078
0.13652
0.10877
0.093465
0.10399
0.1059
0.096973
0.068271
0.073374
0.087725
0.10303
0.11579
0.11993
0.13843
0.17415
0.18531
0.19392
0.17
0.19105
0.17511
0.16394
0.16363
0.21561
0.25069
0.18117
0.17574
0.14545
0.13684
0.12982
0.11388
0.11164
0.13333
0.12057
0.10431
0.081346
0.063806
0.046585
0.076882
0.08039
0.050412
0.029683
0.024899
0.041164
0.057109
0.066677
0.085492
0.078476
0.08039
0.15501
0.1649
0.18531
0.17766
0.22071
0.23442
0.22103
0.19424
0.19073
0.18978
0.21433
0.20349
0.16745
0.15278
0.12791
0.13205
0.09793
0.075925
0.081665
0.069866
0.028726
0.028407
0.041802
0.038294
0.041802
0.031278
0.027451
0.033191
0.038294
0.055196
0.065401
0.072417
0.10367
0.13779
0.15501
0.15214
0.19169
0.26536
0.2813
0.29023
0.25164
0.26376
0.24399
0.26408
0.30426
0.31383
0.30458
0.27939
0.24782
0.21019
0.207
0.22135
0.2188
0.18946
0.1716
0.14098
0.14034
0.14194
0.12599
0.11547
0.10271
0.098568
0.10845
0.10909
0.089638
0.094741
0.11515
0.12727
0.11706
0.1075
0.13301
0.12823
0.13843
0.13652
0.14832
0.12599
0.12249
0.15629
0.16618
0.13779
0.13747
0.16044
0.14959
0.2121
0.29821
0.28354
0.2306
0.23889
0.26376
0.25579
0.27779
0.26982
0.24973
0.26089
0.28194
0.21369
0.12217
0.13365
0.14417
0.13078
0.091552
0.052326
-0.0047593
-0.010181
-0.00061343
-0.0053971
-0.019748
-0.045261
-0.053871
-0.04845
-0.034737
-0.031867
-0.019748
-0.028359
-0.019429
-0.0044404
0.0035324
0.019797
0.040526
0.044672
0.047542
0.065082
0.075287
0.082941
0.090595
0.090276
0.10016
0.12695
0.14003
0.15693
0.16554
0.14545
0.16618
0.18244
0.17479
0.19137
0.20221
0.23219
0.22486
0.22071
0.19902
0.19137
0.19456
0.18627
0.19105
0.19966
0.19839
0.22358
0.20476
0.19679
0.23315
0.30618
0.27588
0.24176
0.2762
0.29948
0.29342
0.28067
0.28354
0.27492
0.27174
0.27588
0.26536
0.2577
0.2542
0.24208
0.2188
0.21369
0.21975
0.20221
0.22709
0.23283
0.21019
0.15948
0.1818
0.17032
0.17511
0.17
0.13492
0.1413
0.11898
0.10782
0.09187
0.066995
0.064763
0.082622
0.11037
0.06572
0.075925
0.061893
0.016289
0.01597
0.0035324
-0.019748
0.0028946
0.013419
-0.034737
-0.060887
-0.058336
-0.077152
-0.11861
-0.11606
-0.093097
-0.081298
-0.12276
-0.12052
-0.12276
-0.12371
-0.14093
-0.13169
-0.11319
-0.10107
-0.082573
-0.050044
-0.066947
-0.08066
-0.080022
-0.029315
-0.0047593
0.043396
0.087087
0.07433
0.074968
0.052963
0.050731
0.030002
0.012462
0.028726
0.016289
0.036699
-0.012094
-0.024851
-0.075557
-0.1218
-0.11191
-0.1269
-0.14061
-0.15433
-0.1572
-0.15018
-0.12467
-0.092778
-0.12531
-0.13073
-0.11702
-0.087357
-0.068222
-0.03952
-0.024851
-0.01624
-0.00029452
0.020116
0.13939
0.15725
0.13333
0.1413
0.21529
0.19679
0.11643
0.092827
0.14449
0.15565
0.096016
0.042439
0.013419
0.028726
-0.018153
-0.062482
-0.13487
-0.20089
-0.25064
-0.27201
-0.29146
-0.32112
-0.331
-0.3275
-0.33196
-0.32654
-0.33547
-0.33866
-0.32239
-0.3275
-0.33993
-0.33228
-0.28285
-0.26977
-0.23884
-0.23182
-0.24841
-0.27073
-0.29242
-0.32367
-0.3275
-0.31028
-0.29848
-0.31633
-0.32239
-0.33706
-0.36895
-0.35875
-0.34312
-0.35715
-0.36353
-0.36513
-0.36162
-0.34791
-0.3157
-0.31857
-0.32973
-0.36768
-0.36194
-0.33802
-0.34504
-0.34695
-0.37374
-0.37246
-0.3613
-0.36098
-0.36577
-0.38362
-0.38745
-0.38681
-0.39255
-0.39574
-0.39606
-0.40595
-0.39829
-0.39255
-0.39255
-0.43082
-0.41839
-0.43178
-0.41966
-0.41998
-0.38968
-0.3916
-0.39255
-0.42827
-0.45155
-0.42572
-0.41424
-0.42508
-0.42668
-0.4557
-0.46782
-0.49556
-0.52363
-0.53893
-0.52554
-0.53032
-0.53415
-0.55456
-0.59825
-0.61452
-0.61547
-0.60909
-0.60463
-0.61643
-0.62376
-0.62472
-0.6126
-0.60272
-0.60718
-0.60941
-0.58996
-0.58103
-0.57146
-0.55584
-0.53287
-0.52522
-0.51533
-0.5029
-0.48982
-0.47419
-0.46335
-0.45825
-0.4423
-0.41647
-0.39511
-0.37151
-0.3562
-0.34854
-0.33738
-0.32367
-0.29848
-0.27807
-0.26403
-0.25191
-0.23119
-0.22481
-0.22257
-0.21715
-0.2197
-0.21747
-0.19451
-0.18335
-0.19451
-0.18494
-0.17825
-0.17187
-0.14349
-0.11702
-0.10266
-0.082254
-0.073325
-0.072368
-0.087357
-0.061206
-0.053234
-0.051001
-0.031867
-0.017197
-0.0060349
-0.011137
-0.0066727
-0.019429
-0.015283
-0.012094
0.0076782
0.0089539
0.0025757
0.0038513
0.0035324
0.010867
0.0095917
0.0025757
0.0022568
0.0131
0.0095917
0.0054459
0.0076782
0.026494
0.039569
0.037975
0.047861
0.058704
0.051369
0.047542
0.06285
0.060298
0.057747
0.075606
0.069547
0.06572
0.088044
0.091233
0.099843
0.11037
0.11579
0.13014
0.13556
0.14704
0.13971
0.14194
0.16458
0.16299
0.15533
0.15246
0.14959
0.12185
0.099205
0.082941
0.082622
0.054558
0.039569
0.041164
0.026494
0.022348
0.0089539
-0.012094
-0.030272
-0.030272
-0.029315
-0.044623
-0.052277
-0.060569
-0.067903
-0.055147
-0.061844
-0.065033
-0.069179
-0.062801
-0.042072
-0.017835
-0.0044404
-0.015921
-0.036969
-0.038883
-0.017835
-0.018472
-0.035375
-0.045899
-0.062163
-0.079703
-0.063439
-0.076514
-0.10777
-0.12212
-0.12913
-0.13041
-0.13328
-0.1285
-0.13456
-0.13806
-0.13647
-0.13041
-0.12626
-0.12754
-0.1285
-0.12882
-0.12052
-0.11032
-0.11159
-0.11096
-0.10681
-0.099476
-0.096286
-0.084168
-0.073963
-0.06886
-0.070455
-0.06312
-0.058974
-0.058336
-0.06886
-0.074919
-0.067903
-0.055785
-0.050363
-0.049088
-0.050044
-0.05132
-0.045261
-0.035375
-0.021661
-0.017835
-0.012413
-0.0066727
0.0095917
0.011505
0.0089539
0.0095917
0.014694
0.011505
0.012143
0.024899
0.030002
0.019797
0.034786
0.034148
0.028407
0.038931
0.092189
0.096335
0.11738
0.15661
0.15183
0.15183
0.18372
0.16841
0.17574
0.14672
0.15374
0.14864
0.14321
0.1362
0.11643
0.11866
0.10973
0.03064
-0.016559
-0.0073105
0.004808
-0.017835
-0.032504
-0.041753
-0.048131
-0.029315
-0.018791
-0.014645
-0.0095429
0.0032135
0.025218
0.035423
0.05105
0.06572
0.06572
0.06859
0.091233
0.10176
0.10239
0.10686
0.10526
0.10558
0.12344
0.13142
0.12504
0.13014
0.13078
0.13556
0.1598
0.17255
0.16777
0.1547
0.15501
0.17989
0.18244
0.17351
0.16937
0.16235
0.17
0.17511
0.18053
0.17638
0.17861
0.1834
0.18754
0.19679
0.2054
0.19966
0.19647
0.20763
0.21369
0.22358
0.2223
0.22103
0.21816
0.23442
0.24048
0.25069
0.25483
0.25515
0.26057
0.24495
0.24527
0.24463
0.22422
0.2341
0.24846
0.22996
0.20381
0.19902
0.19169
0.15501
0.14449
0.15214
0.15246
0.14003
0.14194
0.14481
0.18467
0.19711
0.21082
0.22613
0.2239
0.22039
0.20859
0.19552
0.20158
0.20349
0.21752
0.22932
0.22007
0.16937
0.14226
0.14162
0.13365
0.1295
0.12791
0.10335
0.085173
0.084217
0.079752
0.069866
0.066995
0.059979
0.052326
0.063487
0.069866
0.067314
0.057747
0.060298
0.066358
0.069866
0.078476
0.079114
0.074649
0.073055
0.079114
0.079433
0.072736
0.067314
0.058066
0.053601
0.057428
0.059023
0.052007
0.047542
0.04818
0.050093
0.05105
0.05679
0.051688
0.043715
0.047223
0.050093
0.046904
0.038612
0.032872
0.023943
0.021391
0.023305
0.02458
0.016608
0.013419
0.0131
0.014694
0.017246
0.024262
0.013738
0.008635
0.014694
0.011186
0.0089539
-0.0025269
-0.015283
-0.032504
-0.026126
-0.027721
-0.026445
-0.02198
-0.025807
-0.025488
-0.026445
-0.014964
0.016608
0.018521
0.025537
0.03925
0.034467
0.035742
0.049455
0.030002
0.030959
0.060936
0.094103
0.06859
0.059661
0.11898
0.12759
0.11005
0.11451
0.090914
0.078476
0.097292
0.11547
0.084854
0.072098
0.074968
0.069228
0.014375
-0.014008
2.4388e-05
-0.034737
-0.047493
-0.058655
-0.083849
-0.061844
-0.080979
-0.083849
-0.09533
-0.10139
-0.092778
-0.082892
-0.087357
-0.097243
-0.10107
-0.088633
-0.074919
-0.073006
-0.074282
-0.072368
-0.064077
-0.056742
-0.039839
-0.038245
-0.033142
-0.027721
-0.023256
-0.018791
-0.014964
-0.014964
-0.024213
-0.027083
-0.01911
-0.0063538
-0.0095429
-0.0105
-0.0073105
-0.0034836
2.4388e-05
0.012462
0.011186
0.01597
0.019797
0.03638
0.038294
0.024262
0.037018
0.061574
0.099524
0.10208
0.087087
0.069866
0.068909
0.062212
0.075287
0.090914
0.089957
0.084217
0.05105
0.042758
0.041483
0.021072
-0.0044404
-0.023575
0.045629
0.042758
0.00098112
-0.020705
-0.015283
-0.0018891
-0.0082673
0.0041702
0.022348
0.0079971
0.008316
0.0064026
-0.027083
-0.017516
0.01597
0.033829
0.058066
0.05679
0.10399
0.096654
0.071141
0.059023
0.072417
0.08326
0.10718
0.14768
0.12185
0.079114
0.082622
0.0054459
-0.013689
-0.041115
-0.076514
-0.11574
-0.1202
-0.12977
-0.17187
-0.18175
-0.17857
-0.18494
-0.18781
-0.1792
-0.17155
-0.17761
-0.17952
-0.1674
-0.14923
-0.13966
-0.14349
-0.1438
-0.13998
-0.12435
-0.11574
-0.10809
-0.10617
-0.097243
-0.0864
-0.079065
-0.06599
-0.061844
-0.058974
-0.054509
-0.042072
-0.039839
-0.037288
-0.039839
-0.045899
-0.04845
-0.036331
-0.032186
-0.035694
-0.033461
-0.031548
-0.031867
-0.026445
-0.01911
-0.022937
-0.026764
-0.024851
-0.020386
-0.016878
-0.022937
-0.030272
-0.038564
-0.034099
-0.025488
-0.023894
-0.029634
-0.027721
-0.01624
-0.010819
0.0019378
0.011505
0.0089539
0.010867
0.017883
0.024262
0.022029
0.020435
0.014375
0.011824
0.019159
0.030002
0.046266
0.050093
0.076882
0.10112
0.11196
0.1177
0.10495
0.091552
0.075606
0.093146
0.099524
0.11515
0.10208
0.066677
0.032553
0.035423
-0.0053971
-0.024851
-0.031548
-0.027083
-0.034099
-0.04845
-0.051001
-0.057698
-0.057698
-0.053871
-0.049407
-0.048131
-0.051639
-0.052596
-0.057698
-0.053234
-0.047493
-0.041115
-0.044623
-0.043985
-0.039202
-0.034737
-0.024213
-0.014645
-0.017835
-0.019429
-0.017835
-0.013689
-0.01337
-0.016559
-0.018472
-0.026764
-0.019748
-0.019429
-0.020067
-0.023256
-0.02517
-0.016559
-0.013689
-0.0069916
-0.0085862
-0.0066727
-0.0082673
-0.002208
-0.00029452
-0.0050782
-0.012413
-0.021343
-0.029315
-0.020067
-0.012732
-0.017835
-0.024851
-0.024213
-0.023894
-0.019748
-0.011775
-0.018472
-0.01624
-0.01624
-0.014645
-0.016559
-0.022937
-0.030591
-0.034737
-0.028996
-0.023894
-0.026126
-0.03091
-0.024532
-0.02198
-0.018153
-0.0069916
0.0035324
-0.00061343
-0.0015702
0.0064026
0.0076782
0.0095917
0.0057648
0.00066221
-0.0063538
0.0025757
0.0044891
0.0038513
-0.0015702
-0.0038025
-0.00061343
0.0051269
0.013419
0.015013
0.018202
0.016927
0.020754
0.014694
0.016927
0.01597
0.0060837
-0.002208
0.0060837
0.0095917
0.0051269
-0.0028458
0.0016189
0.0038513
0.0035324
0.010867
0.0041702
-0.00061343
0.0028946
0.0028946
0.0070404
-0.0038025
-0.0031647
-0.010181
-0.020067
-0.0085862
-0.0105
-0.012732
-0.016559
-0.010181
-0.010819
-0.0044404
0.0060837
-0.00093234
-0.0060349
-0.00093234
0.00098112
2.4388e-05
-0.0031647
-0.0098618
-0.018153
-0.0085862
-0.0073105
-0.0085862
-0.012413
-0.012413
-0.0069916
-0.0044404
0.0051269
0.0044891
0.0038513
0.0025757
0.017564
0.025218
0.027451
0.031915
0.019797
0.0032135
0.022029
0.026175
0.016608
0.014694
0.015651
0.01884
0.023943
0.029045
0.026175
0.0095917
-0.0050782
0.00066221
-0.00093234
-0.020386
-0.018472
-0.025807
-0.02198
-0.021661
-0.017835
-0.022618
-0.011456
-0.00061343
-0.0076295
-0.0028458
0.0051269
-0.0073105
-0.014008
-0.0050782
-0.0098618
-0.0060349
-0.0066727
-0.021661
-0.04845
-0.044942
-0.052277
-0.056423
-0.060887
-0.065352
-0.059612
-0.056742
-0.049726
-0.046218
-0.049407
-0.049407
-0.040477
-0.036012
-0.036969
-0.03665
-0.042391
-0.049088
-0.035056
-0.026764
-0.032186
-0.030591
-0.028678
-0.023894
-0.017197
-0.0079484
-0.012732
-0.012094
-0.0085862
-0.0028458
-0.002208
0.0044891
0.0003433
-0.0060349
-0.0031647
0.0019378
0.0016189
-0.0073105
-0.0044404
0.0032135
0.008635
0.015013
0.025218
0.015013
0.008635
0.014375
0.011824
0.0076782
0.004808
0.0013
-0.0073105
0.00098112
0.00098112
0.00098112
-0.0012513
-0.0031647
0.0044891
0.0054459
0.014694
0.019478
0.019478
0.013738
0.020754
0.023943
0.019797
0.016289
0.0013
2.4388e-05
0.011505
0.014694
0.020435
0.016289
0.015651
0.015651
0.02171
0.029683
0.02458
0.025856
0.030002
0.035423
0.035742
0.034148
0.031915
0.023943
0.02171
0.021072
0.031915
0.055515
0.058066
0.061255
0.077201
0.088044
0.085811
0.07146
0.069547
0.07433
0.066358
0.058704
0.056153
0.044353
0.02777
0.010548
-0.010819
-0.023575
-0.029315
-0.031867
-0.036012
-0.038245
-0.03665
-0.03378
-0.035056
-0.034418
-0.02517
-0.022299
-0.021343
-0.020705
-0.027083
-0.031548
-0.019748
-0.01337
-0.015921
-0.015283
-0.013689
-0.0105
-0.0034836
0.0060837
0.0028946
0.0054459
0.0079971
0.0089539
0.0079971
0.0067215
0.0025757
-0.011137
-0.0069916
0.00098112
0.0013
-0.0066727
-0.0060349
-0.0034836
-0.00061343
0.0089539
0.021072
0.016289
0.014694
0.019159
0.02171
0.021391
0.018521
0.016289
0.0079971
0.018202
0.019797
0.01597
0.0131
0.012781
0.019159
0.020116
0.030002
0.032234
0.028088
0.026175
0.030959
0.030002
0.028088
0.023943
0.013419
0.0060837
0.015332
0.018202
0.013738
0.011505
0.012143
0.012462
0.019478
0.026175
0.022029
0.021072
0.02458
0.032872
0.032234
0.025218
0.031278
0.024262
0.024899
0.023943
0.016927
0.012143
0.0099106
0.0060837
0.0089539
0.021391
0.026813
0.011824
0.0054459
0.0028946
0.0041702
-0.0034836
-0.0105
-0.016878
-0.024851
-0.019429
-0.014964
-0.012732
-0.018472
-0.021024
-0.014964
-0.011456
-0.005716
-0.00061343
-0.005716
-0.0069916
0.0019378
-0.0034836
-0.0044404
-0.0060349
-0.014964
-0.023894
-0.014008
-0.010181
-0.013689
-0.01624
-0.016559
-0.014645
-0.0098618
0.0013
-0.0031647
-0.0041214
-0.0018891
-0.00061343
-0.00029452
-0.0060349
-0.0105
-0.018153
-0.012413
0.01023
0.049137
0.046585
0.047542
0.055196
0.049455
0.043396
0.052326
0.067633
0.054877
0.061574
0.070185
0.06285
0.028088
0.018521
0.0022568
-0.0085862
-0.030272
-0.042072
-0.054828
-0.057698
-0.058336
-0.052915
-0.05419
-0.054509
-0.059293
-0.062163
-0.053871
-0.052277
-0.052915
-0.053552
-0.061206
-0.066947
-0.056423
-0.050044
-0.05132
-0.051639
-0.050363
-0.044942
-0.037607
-0.02804
-0.03091
-0.028678
-0.02517
-0.01911
-0.019748
-0.022618
-0.024851
-0.032504
-0.032186
-0.025488
-0.020067
-0.025488
-0.026445
-0.023575
-0.021024
-0.013689
-0.0015702
-0.0085862
-0.010819
-0.0044404
-0.0028458
-0.0044404
-0.013051
-0.014327
-0.02198
-0.012094
-0.013051
-0.013689
-0.01911
-0.018153
-0.012094
-0.0095429
0.0003433
0.0044891
0.0019378
-0.00093234
0.0070404
0.0076782
0.0064026
0.0051269
-0.0076295
-0.0098618
-0.0031647
0.0013
-0.0031647
-0.0063538
-0.0050782
-0.0012513
0.0019378
0.0131
0.0070404
0.0073593
0.0076782
0.011824
0.010867
0.0095917
0.0032135
-0.0047593
-0.0044404
0.0003433
0.0060837
0.00066221
-0.0034836
2.4388e-05
0.0032135
0.019478
0.039888
0.076563
0.071141
0.065401
0.064763
0.063806
0.050412
0.036061
0.033829
0.046904
0.051688
0.055515
0.042439
0.01597
-0.0076295
-0.0038025
-0.010181
-0.0095429
-0.012094
-0.020067
-0.018472
-0.022299
-0.023256
-0.025807
-0.033461
-0.040158
-0.02804
-0.022618
-0.024213
-0.026445
-0.023256
-0.01911
-0.014008
-0.0018891
-0.0060349
-0.0041214
-0.0015702
0.0022568
0.0044891
2.4388e-05
-0.002208
-0.0105
-0.0105
-0.0047593
2.4388e-05
-0.0060349
-0.0073105
-0.0038025
-0.0031647
0.004808
0.015651
0.0099106
0.0067215
0.011505
0.013738
0.011505
0.0079971
0.0019378
-0.0063538
0.0003433
0.0016189
0.0016189
-0.0044404
-0.005716
2.4388e-05
0.0022568
0.0092728
0.014694
0.0079971
0.0032135
0.008635
0.0079971
0.0060837
0.0025757
-0.0079484
-0.014008
-0.0098618
-0.0085862
-0.0053971
-0.010181
-0.0105
-0.0073105
-0.0031647
0.0060837
0.0025757
0.004808
0.0070404
0.010548
0.01023
0.0076782
0.0044891
-0.0041214
-0.0047593
0.00098112
0.0054459
-0.00093234
-0.0015702
0.0022568
0.0022568
0.0099106
0.021391
0.013738
0.010867
0.015651
0.017883
0.018202
0.011824
0.0041702
-0.005716
0.0032135
0.0044891
0.0035324
-0.0038025
-0.0038025
-0.00061343
-0.00029452
0.0070404
0.012781
0.0073593
0.0035324
0.0095917
0.0089539
0.0016189
0.0041702
-0.0060349
-0.017516
-0.0079484
-0.0041214
-0.0073105
-0.0098618
-0.010181
-0.0060349
-0.0015702
0.0064026
0.0035324
0.0032135
0.0044891
0.0076782
0.008316
0.0035324
-0.0018891
-0.010819
-0.011775
-0.0063538
-0.0041214
-0.009224
-0.013051
-0.011137
-0.0089051
0.0003433
0.012462
0.0060837
0.0013
0.0041702
0.0073593
0.0060837
-0.00061343
-0.0031647
-0.011456
-0.0060349
-0.00093234
-0.0044404
-0.010819
-0.012732
-0.012094
-0.005716
0.00066221
0.0064026
-0.005716
-0.0031647
0.0044891
0.0038513
-0.0015702
-0.0066727
-0.015921
-0.021024
-0.012094
-0.0079484
-0.011456
-0.014645
-0.013689
-0.0105
-0.0069916
0.0032135
0.0003433
0.00066221
0.0019378
0.0076782
0.0057648
0.0013
-0.0015702
-0.010819
-0.012732
-0.0069916
-0.0038025
-0.0089051
-0.0098618
-0.0089051
-0.0073105
-0.00029452
0.0073593
0.0032135
-0.0012513
0.0041702
0.0054459
0.004808
2.4388e-05
-0.0060349
-0.015921
-0.0060349
-0.0047593
-0.0028458
-0.0047593
-0.0050782
-0.00061343
-0.0028458
0.01023
0.020116
0.01597
0.012143
0.018521
0.023305
0.021391
0.015332
0.008635
0.0013
0.0070404
0.014375
0.0092728
0.0070404
0.0044891
0.010548
0.021072
0.03064
0.027132
0.026494
0.024262
0.030321
0.029045
0.025856
0.023305
0.015332
0.013419
0.013738
0.016608
0.011186
0.0089539
0.010867
0.011186
0.015651
0.035742
0.028088
0.022986
0.02171
0.02458
0.028726
0.030959
0.023624
0.011824
0.01023
0.017246
0.0095917
-0.0079484
-0.0089051
0.0003433
0.0035324
0.010867
0.0095917
-0.0018891
-0.012094
-0.0063538
-0.0047593
-0.0060349
-0.0079484
-0.014008
-0.022299
-0.013051
-0.0105
-0.013689
-0.01624
-0.015283
-0.010181
-0.0079484
0.0025757
2.4388e-05
0.0025757
-0.0015702
0.0051269
0.0079971
0.0032135
-0.00061343
-0.0082673
-0.01337
-0.0053971
-0.00029452
-0.005716
-0.0069916
-0.0063538
-0.0041214
0.0028946
0.014694
0.0067215
0.0054459
0.0099106
0.010548
0.0092728
0.0041702
-0.00093234
-0.0098618
-0.0038025
-0.0028458
-0.0028458
-0.0089051
-0.0098618
-0.0060349
-0.0047593
0.0032135
0.0131
0.018521
0.010867
0.015651
0.015013
0.013419
0.015332
0.0051269
2.4388e-05
0.0089539
0.0099106
0.0038513
-0.0034836
-0.0028458
0.00098112
-0.0012513
0.0095917
-0.0031647
-0.0028458
-0.0073105
0.0022568
-0.0034836
-0.011137
-0.013689
-0.018472
-0.02517
-0.016559
-0.012094
-0.01624
-0.016559
-0.013051
-0.0105
-0.0044404
0.0076782
0.0022568
0.00066221
0.0028946
0.0054459
0.0060837
0.0038513
-0.0041214
-0.012094
-0.0066727
-0.0066727
-0.005716
-0.01337
-0.014008
-0.0095429
-0.0079484
-0.0015702
0.0076782
0.0003433
-0.0044404
0.0019378
0.0035324
0.0079971
0.004808
0.0013
-0.012094
-0.0076295
-0.0050782
-0.0031647
-0.0034836
-0.002208
-0.00061343
0.0028946
0.0095917
0.0073593
0.0067215
0.0028946
0.0054459
0.0019378
0.00066221
-0.0038025
-0.014964
-0.020386
-0.012413
-0.0095429
-0.014327
-0.018472
-0.017516
-0.016559
-0.011775
-0.00029452
-0.0060349
-0.0095429
-0.0085862
-0.0047593
-0.0089051
-0.011456
-0.016878
-0.023575
-0.019429
-0.017835
-0.015283
-0.032823
-0.021024
-0.017197
-0.016878
-0.0073105
-0.0025269
-0.0073105
-0.0095429
-0.0034836
-0.0031647
-0.0034836
-0.00061343
-0.010181
-0.01911
-0.0105
-0.0050782
0.0013
-0.0038025
-0.0050782
-0.0041214
-0.0034836
0.0073593
0.0032135
0.0044891
0.0070404
0.0073593
0.0060837
0.00066221
-0.0060349
-0.015921
-0.022618
-0.016878
-0.014008
-0.017835
-0.022299
-0.018153
-0.016559
-0.010819
-0.00029452
-0.0063538
-0.0073105
-0.0031647
-0.0015702
-0.0012513
-0.0073105
-0.014327
-0.022618
-0.015921
-0.013051
-0.013051
-0.019748
-0.02198
-0.017835
-0.016559
-0.010181
-0.0012513
0.0016189
0.0099106
0.015332
0.026813
0.023943
0.017246
0.0054459
-0.0012513
0.0079971
0.013738
0.0073593
0.00066221
0.0051269
0.0054459
0.0051269
0.0038513
-0.0082673
-0.01337
-0.019748
-0.015283
-0.012094
-0.018791
-0.028359
-0.030591
-0.029315
-0.010181
-0.0082673
-0.0095429
-0.0079484
-0.0079484
-0.0105
-0.0050782
0.015332
0.016608
0.020435
0.039888
0.037018
0.035742
0.020116
0.011824
-0.0018891
-0.00061343
-0.002208
0.004808
-0.0031647
-0.0047593
-0.0076295
-0.012094
-0.0098618
-0.010181
-0.022618
-0.030272
-0.023256
-0.022937
-0.023894
-0.028359
-0.03665
-0.04558
-0.034737
-0.031867
-0.035375
-0.035375
-0.032823
-0.026445
-0.021024
-0.010819
-0.010181
-0.011137
-0.0095429
-0.0034836
-0.002208
-0.0050782
-0.0085862
-0.015921
-0.021661
-0.012413
-0.0073105
-0.010819
-0.014327
-0.0060349
-0.0018891
0.008316
0.026175
0.019478
0.02171
0.044991
0.038931
0.035423
0.034148
0.035742
0.016608
0.022029
0.036061
0.035742
0.023624
0.010548
0.012462
0.0073593
0.0051269
0.012781
0.014056
0.0079971
0.023943
0.018521
0.011186
0.0035324
-0.0073105
-0.0082673
0.017246
0.060617
0.068271
0.10208
0.10048
0.084536
0.070185
0.075287
0.067633
0.08326
0.091233
0.11005
0.099205
0.070185
0.032234
-0.0018891
-0.014645
-0.040477
-0.031867
-0.046536
-0.058336
-0.069498
-0.084487
-0.088952
-0.078109
-0.080979
-0.07779
-0.059612
0.008316
0.066677
0.060298
0.081346
0.062531
0.097292
0.11419
0.11483
0.11451
0.11898
0.12185
0.12855
0.13843
0.12185
0.037975
0.0028946
0.020116
-0.019748
-0.052277
-0.069179
-0.11702
-0.1387
-0.14093
-0.10872
-0.0864
-0.066947
0.0051269
0.028407
0.037656
0.029683
0.042121
0.054877
0.038294
0.052645
0.079114
0.08039
0.060936
0.026494
-0.015602
-0.044623
-0.049407
-0.096286
-0.11765
-0.13456
-0.17888
-0.17952
-0.15911
-0.17059
-0.16517
-0.11989
-0.053552
0.060298
0.10782
0.15023
0.23123
0.17511
0.16394
0.15693
0.17319
0.16777
0.19265
0.2054
0.17
0.10208
0.017564
-0.022937
-0.093735
-0.12052
-0.18271
-0.26212
-0.19738
-0.025488
-0.030591
-0.00061343
-0.0069916
0.038612
0.089319
0.11611
0.15406
0.18722
0.20795
0.21242
0.21465
0.13524
0.069228
0.011505
-0.030591
-0.11287
-0.1454
-0.22544
-0.22544
-0.29911
-0.31697
-0.30932
-0.31857
-0.33228
-0.28412
-0.27105
-0.26212
-0.22832
-0.12913
0.12408
0.1464
0.18085
0.34477
0.44044
0.49146
0.39739
0.31288
0.32372
0.34572
0.34668
0.43629
0.37155
0.25707
0.12217
0.054239
-0.10745
-0.14986
-0.20918
-0.30517
-0.37469
-0.36704
-0.40754
-0.4034
-0.32463
-0.30804
-0.27966
-0.25829
-0.2095
-0.22226
-0.1977
-0.15911
-0.067266
-0.054828
-0.06025
-0.0864
-0.09533
-0.054509
-0.032823
-0.035375
-0.08927
-0.08353
-0.074919
-0.097562
-0.087038
-0.045899
-0.093097
-0.098838
-0.055147
-0.097881
-0.11893
-0.034099
-0.042072
-0.027083
0.023305
0.01597
0.0054459
0.026813
0.026813
0.060936
0.11292
0.096335
0.13939
0.26982
0.40472
0.40249
0.31766
0.28577
0.23984
0.32053
0.40695
0.5173
0.70609
0.70992
0.66527
0.43725
0.3167
0.28035
0.2931
0.36837
0.30235
0.28481
0.16458
0.04531
-0.043985
-0.095649
-0.19706
-0.331
-0.32973
-0.34631
-0.36832
-0.31251
-0.27647
-0.37182
-0.3629
-0.29465
-0.30549
-0.37214
-0.35428
-0.32176
-0.28253
-0.22768
-0.29018
-0.31059
-0.25255
-0.20759
-0.17761
-0.20918
-0.18399
-0.14827
-0.13105
-0.061844
0.021072
0.060617
0.070822
0.14321
0.18722
0.19201
0.30522
0.27971
0.27205
0.40632
0.55174
0.54919
0.48764
0.41397
0.35114
0.34732
0.24048
0.20827
0.25164
0.21306
0.19041
0.081984
0.03638
0.019478
-0.063758
-0.1167
-0.15305
-0.19228
-0.18239
-0.12786
-0.058974
-0.055785
-0.021024
0.15214
0.16267
0.088681
0.044034
0.035104
0.017883
-0.027721
-0.043666
-0.013051
0.035742
-0.041434
-0.22959
-0.22991
-0.16358
-0.15273
-0.24139
-0.27838
-0.26658
-0.25734
-0.2634
-0.2197
-0.22066
-0.20376
-0.18048
-0.13806
-0.034418
-0.019429
-0.026126
-0.030272
0.020116
0.059979
0.064763
0.16968
0.17766
0.13333
0.11834
0.11292
0.20763
0.22007
0.18659
0.19265
0.16331
0.14353
0.070822
0.011824
0.015013
0.066995
0.18053
0.16076
0.09506
0.064763
0.075287
0.057747
0.0025757
-0.036012
0.0013
0.023305
0.036061
-0.016878
-0.012732
-0.03091
-0.080022
-0.10522
-0.10713
-0.15752
-0.14476
-0.13392
-0.11096
-0.13296
-0.15114
-0.11159
-0.091822
-0.070455
-0.10139
-0.12403
-0.076514
-0.052277
-0.034418
-0.026764
-0.005716
0.07433
0.10048
0.11069
0.16713
0.26344
0.25994
0.26057
0.28736
0.3639
0.36518
0.34636
0.36454
0.28258
0.27588
0.23889
0.16171
0.075287
0.086768
0.016608
-0.011775
-0.0050782
-0.10011
-0.12307
-0.18048
-0.24171
-0.20918
-0.12531
-0.12276
-0.1269
-0.081617
-0.045261
-0.040158
-0.020067
0.015651
0.073374
0.11324
0.10845
0.10303
0.10144
0.11866
0.10941
0.081984
0.046266
0.0060837
-0.024213
-0.014008
-0.055147
-0.0076295
-0.058974
-0.077471
-0.046855
-0.079065
-0.037926
0.038612
0.24271
0.21752
0.19871
0.11738
0.12408
0.16713
0.16873
0.12376
0.1649
0.21401
0.19488
0.15565
0.074968
-0.046218
-0.055785
-0.13328
-0.14604
-0.12339
-0.12945
-0.16804
-0.17857
-0.13966
-0.11223
-0.0864
-0.079703
-0.058974
-0.0105
0.02458
0.099205
0.18754
0.28928
0.30458
0.40089
0.37506
0.26185
0.2341
0.21688
0.24846
0.23028
0.1952
0.13843
0.07752
-0.019748
-0.034737
-0.072368
-0.18175
-0.30868
-0.32399
-0.23437
-0.22449
-0.2449
-0.073325
0.038294
0.086768
0.23187
0.20413
0.22549
0.37283
0.25738
0.19424
0.27524
0.19902
0.27588
0.28098
0.1228
0.049137
0.073374
-0.044304
-0.14667
-0.20089
-0.28062
-0.331
-0.34823
-0.36034
-0.33228
-0.29848
-0.27775
-0.24968
-0.21683
-0.12371
-0.090227
-0.081298
-0.070774
-0.041115
-0.053552
-0.050682
0.016608
0.071141
0.13269
0.085173
0.043077
0.043077
0.01597
-0.014008
-0.0018891
-0.034418
-0.060887
0.0067215
0.078157
0.076563
0.035423
0.01023
0.067633
0.18818
0.10112
0.12153
0.17351
0.096335
0.074968
0.096654
0.15884
0.15151
0.067314
0.07752
0.035104
-0.0095429
-0.024851
-0.14189
-0.12977
-0.11606
-0.15911
-0.17282
-0.19834
-0.19706
-0.17187
-0.20886
-0.1757
-0.11478
-0.10298
-0.086719
-0.042391
-0.061844
-0.04845
-0.0076295
0.02171
0.028726
0.042758
0.087406
0.090914
0.028407
-0.0044404
0.044672
0.023943
-0.038883
-0.0079484
-0.019748
-0.046855
-0.10266
-0.057698
-0.045899
-0.050363
-0.05419
-0.081935
-0.052277
0.031278
0.082622
0.15597
0.29438
0.32085
0.31893
0.20381
0.18882
0.19201
0.24335
0.32404
0.26727
0.1936
0.18117
0.10558
0.078157
0.07146
-0.012094
-0.051958
-0.15018
-0.17793
-0.21078
-0.14317
-0.11989
-0.1757
-0.20918
-0.22257
-0.13519
-0.10872
-0.13041
-0.056423
-0.10681
-0.11797
-0.1674
-0.17187
-0.1556
-0.15178
-0.1674
-0.14285
-0.19674
-0.1639
-0.090546
-0.12307
-0.1403
-0.13838
-0.11191
-0.05419
0.0051269
-0.02804
-0.009224
0.0095917
0.041164
-0.025488
0.034467
0.075287
0.061574
0.12567
0.16841
0.18754
0.030321
0.01597
0.0070404
0.11101
0.038612
-0.067266
0.052963
0.017246
-0.0053971
-0.041753
-0.055466
-0.11957
-0.1151
-0.096924
0.010867
0.0099106
0.077201
0.048499
-0.025488
-0.028359
-0.02517
-0.02517
-0.031548
0.03351
0.032872
0.02458
-0.047174
-0.083211
-0.1202
-0.14157
-0.14891
-0.1454
-0.18877
-0.15305
-0.16772
-0.16358
-0.11542
-0.055466
-0.036012
-0.01911
-0.038245
-0.029315
-0.02517
-0.010181
0.021072
-0.020067
-0.064395
-0.062163
0.044991
0.0054459
-0.032504
-0.042391
-0.084168
-0.087357
-0.067266
-0.072368
-0.018791
-0.083849
-0.059931
-0.054828
-0.058017
-0.058974
-0.02517
0.0092728
0.043077
0.048499
0.069228
0.1193
0.095697
0.082941
0.095378
0.080071
0.10782
0.11643
0.081984
0.053282
-0.051958
-0.030272
-0.027083
-0.0044404
-0.070774
-0.087038
-0.15018
-0.17761
-0.14731
-0.10203
-0.022618
-0.10426
-0.054828
-0.051001
-0.035375
-0.0018891
0.03925
0.048499
0.10271
0.023305
-0.011456
0.048818
0.019797
-0.025488
-0.081298
-0.057698
-0.036331
-0.034099
-0.094692
-0.16262
-0.18909
-0.17665
-0.18718
-0.20918
-0.20535
-0.22034
-0.20822
-0.17538
-0.13424
-0.085762
-0.061525
-0.073963
-0.096924
-0.10968
-0.065352
-0.051001
-0.026764
0.038612
0.041802
-0.0034836
-0.039202
-0.091822
-0.090865
-0.058017
-0.037288
-0.061206
-0.079065
-0.089908
0.011824
0.0076782
-0.024532
-0.065033
-0.034737
-0.034418
-0.00061343
0.0067215
0.015332
0.1665
0.12185
0.057747
0.1008
0.022029
-0.0041214
-0.014327
-0.015921
0.02777
-0.018153
-0.021024
-0.015283
-0.038245
-0.059612
-0.12595
-0.12722
-0.10936
-0.15943
-0.18271
-0.15847
-0.15943
-0.15847
-0.1623
-0.1454
-0.17633
-0.13647
-0.11255
-0.10426
-0.11989
-0.073006
-0.058974
-0.068222
-0.028359
-0.00029452
0.015332
-0.0098618
-0.0063538
-0.0047593
0.01597
0.03638
0.086449
0.1059
0.067633
0.051369
0.067952
0.034786
0.010867
0.0028946
0.033829
-0.011775
-0.042072
-0.044623
-0.066947
-0.033142
-0.015921
-0.097881
-0.11638
-0.028678
0.10718
0.016927
-0.025488
-0.026764
-0.060887
0.0095917
0.10144
0.06572
0.00066221
0.052645
0.10335
0.026175
-0.013689
-0.051001
-0.084168
-0.074919
-0.073963
-0.049088
-0.093097
-0.099794
-0.098838
-0.10139
-0.13934
-0.13774
-0.073963
-0.067266
-0.084168
-0.046536
-0.059931
-0.046855
0.0070404
0.040526
0.093465
0.14417
0.10782
0.13269
0.13492
0.1059
0.090595
0.089319
0.10112
0.052963
-0.0105
0.019478
-0.034099
-0.081935
-0.050682
-0.11893
-0.13806
-0.13902
-0.13806
-0.15082
-0.13487
-0.11606
-0.11542
-0.061844
-0.018153
-0.042072
-0.020386
-0.044623
-0.034418
-0.019748
-0.026764
0.052007
0.042758
0.07146
0.11611
0.064444
0.063806
0.050093
0.030002
-0.011456
0.04818
0.093146
0.054239
0.037018
0.0044891
0.011824
-0.012094
0.026494
0.093146
0.0067215
-0.051639
-0.024532
0.010548
-0.10171
-0.050044
0.0032135
0.008316
-0.0038025
-0.03378
-0.072687
-0.034099
0.011186
0.030321
-0.036331
-0.070455
-0.066628
-0.051639
-0.048131
-0.02517
-0.0066727
-0.0060349
0.0038513
0.0003433
0.02458
-0.0079484
-0.053552
-0.028996
-0.041434
-0.056742
-0.041434
0.0067215
0.017246
0.0032135
0.037018
0.10973
0.068271
0.077838
0.042439
-0.01337
-0.022618
0.014056
0.079114
0.060617
0.041483
-0.016878
-0.029634
-0.024213
-0.047174
-0.046536
-0.059293
-0.026445
0.022348
0.064444
0.099524
0.047223
0.0054459
0.0079971
0.0025757
0.024899
0.0054459
0.058066
0.023624
0.029045
0.027451
-0.020386
-0.054828
-0.06886
-0.12339
-0.056423
0.011824
-0.051001
-0.031229
-0.037926
-0.058336
-0.0047593
0.046585
0.022986
0.020116
0.018202
0.00066221
-0.0028458
-0.024532
-0.068222
0.024899
0.022029
0.0131
-0.072687
-0.012094
-0.002208
-0.0041214
-0.009224
-0.050044
-0.061525
-0.073325
-0.068222
-0.072687
0.0038513
0.058066
-0.0060349
0.016608
0.02458
-0.0038025
0.0013
0.017883
0.023943
0.064125
0.079114
0.088681
0.068909
0.069547
0.028726
-0.0050782
0.014694
0.010548
-0.021661
-0.034737
-0.049407
0.089957
0.048818
0.014375
0.017883
-0.0015702
-0.041434
0.02171
0.12918
0.068909
0.062212
0.00066221
-0.033461
-0.027721
0.0099106
0.022348
-0.051639
0.022029
0.039888
-0.055785
-0.078427
-0.065352
-0.071093
-0.078109
-0.063758
-0.032823
-0.056104
-0.084168
-0.13073
-0.085762
-0.069498
-0.060887
-0.11255
-0.069498
-0.043347
-0.052915
-0.06312
-0.048769
-0.038883
-0.041434
-0.072368
-0.041434
0.031915
0.072098
0.082622
0.071779
0.089319
0.095378
0.064125
0.019159
0.035104
0.08613
0.094422
0.12344
0.11037
0.15087
0.071141
0.072736
0.069866
0.037018
-0.0073105
-0.047493
-0.0044404
-0.018153
0.039888
0.26727
0.095697
-0.022937
0.0057648
-0.013689
0.05105
0.029683
0.0032135
0.030959
0.013738
0.010867
0.00098112
-0.045261
-0.060887
-0.03665
-0.017197
-0.09533
-0.066628
-0.085762
-0.077471
-0.060569
-0.072687
-0.097881
-0.0012513
0.067952
0.13588
0.076244
0.047861
0.0099106
-0.010819
-0.042391
-0.046218
-0.034737
-0.055466
-0.0089051
-0.013051
0.0076782
-0.027083
-0.11223
-0.10809
-0.10904
-0.10649
-0.079703
-0.040158
-0.017516
-0.0050782
0.004808
0.013419
0.030002
0.037018
0.031278
-0.029315
0.014056
0.022348
0.053601
0.042121
0.008635
-0.017835
-0.062482
-0.016559
-0.0076295
0.0019378
0.035423
0.076244
0.093146
0.076244
0.13333
0.082622
0.024899
0.087087
0.069866
0.18117
0.22294
0.17766
0.058385
-0.01337
-0.049088
-0.06312
-0.099476
-0.10171
-0.12913
-0.15975
-0.14093
-0.15592
-0.1859
-0.20408
-0.21014
-0.19547
-0.16772
-0.13806
-0.11542
-0.10235
-0.10458
-0.087995
-0.011137
-0.010181
-0.024532
-0.049407
-0.048769
-0.017197
-0.0066727
-0.0063538
0.059023
0.079752
0.041164
0.043715
0.065082
0.058066
0.079752
0.074968
0.060936
-0.054509
0.020435
0.093465
0.030959
0.046904
0.044034
0.027451
-0.050363
-0.0069916
0.017564
-0.01624
-0.022937
-0.0085862
-0.022937
-0.023894
0.016289
0.0095917
-0.026764
-0.024532
-0.057379
-0.05132
0.083898
0.22773
0.17511
0.23793
0.19711
0.11069
0.054877
0.13843
0.094103
0.10239
0.092827
0.16044
0.076563
0.041483
-0.063758
-0.11989
-0.1757
-0.19802
-0.20248
-0.22608
-0.22863
-0.21524
-0.20599
-0.19355
-0.16134
-0.11319
-0.064714
-0.047174
-0.055785
-0.032186
0.01597
-0.014964
-0.057061
-0.027721
-0.012413
0.050412
0.0067215
-0.063439
-0.064395
0.020116
0.012143
-0.037288
-0.08353
-0.041434
-0.049407
-0.055466
-0.064077
-0.042391
-0.046855
-0.052277
-0.04271
-0.024851
0.046585
0.11292
0.1075
0.082622
0.060617
0.07433
0.077201
0.11228
0.099205
0.10239
0.019159
-0.04558
0.069866
0.11962
0.034467
-0.024851
-0.051001
-0.089908
-0.069498
-0.039202
-0.069817
-0.045261
-0.047493
-0.050363
-0.0073105
0.12695
0.037656
0.015013
0.016927
-0.012732
-0.054509
-0.035694
-0.034737
-0.030591
0.0019378
-0.030591
-0.059293
-0.099794
-0.086719
-0.086081
-0.11096
-0.093735
-0.05419
-0.045261
-0.045261
-0.01911
-0.014964
0.0095917
0.07146
0.10845
0.10271
0.1177
0.07433
0.049455
0.10176
0.088362
0.10909
0.10399
-0.069179
0.053601
0.14417
0.12695
0.045947
-0.041434
-0.11287
-0.11542
-0.058974
-0.057061
-0.044623
-0.048131
-0.047493
-0.086719
-0.043985
-0.040477
-0.0041214
-0.064395
-0.031867
-0.035056
-0.045261
-0.056423
-0.061206
-0.059293
-0.055147
-0.0089051
-0.03952
-0.063758
-0.059931
-0.047493
-0.077471
-0.068541
-0.057698
-0.054509
-0.059612
-0.050044
-0.0089051
-0.012413
-0.0018891
-0.04845
-0.013689
0.0028946
0.0067215
0.11069
0.05679
0.052645
0.092189
0.07433
0.043396
0.15533
0.13843
0.12982
0.11579
0.084854
0.074649
-0.0012513
0.029045
0.014694
-0.048131
0.0092728
0.020754
-0.02804
0.027132
0.038294
-0.039839
-0.070774
-0.092778
-0.099476
-0.10936
-0.069817
-0.086719
-0.080979
-0.047174
-0.078109
-0.11829
-0.13137
-0.15879
-0.15752
-0.15401
-0.14891
-0.13519
-0.10936
-0.12052
-0.12148
-0.11542
-0.079065
-0.040158
-0.035056
-0.059931
-0.051958
-0.041115
-0.02804
0.0076782
0.0092728
0.0095917
0.092827
0.059023
0.026494
-0.010181
0.07752
0.070503
0.040845
0.023305
-0.0041214
0.024899
0.019159
0.095378
0.089
0.011824
-0.032823
0.0013
0.039569
0.07433
0.10495
0.10558
0.12567
0.12408
0.1413
0.089319
0.10622
0.077201
0.05392
0.041802
0.041164
0.057109
0.011824
0.038931
0.05105
0.013738
-0.054509
-0.0063538
0.046266
-0.042072
-0.06312
-0.083849
-0.002208
0.036061
-0.041753
-0.031229
-0.062801
-0.083849
-0.094373
-0.084168
-0.12403
-0.11096
-0.0085862
-0.047174
-0.095011
-0.11159
-0.10394
-0.10777
-0.089908
-0.074601
-0.080022
-0.092141
-0.11861
-0.095011
-0.094692
-0.090227
-0.076833
-0.057698
-0.021024
-0.026445
-0.0028458
-0.014964
-0.00061343
0.014375
0.030321
0.10367
0.070503
0.06572
0.067952
0.042121
0.028726
0.0035324
0.039569
0.043396
0.019478
0.020754
-0.017197
-0.00029452
0.0067215
-0.0095429
-0.009224
0.014694
0.07146
0.049455
0.022029
0.052645
0.14864
0.15948
0.12918
0.1295
0.11132
0.12312
0.089
0.12727
0.10686
0.063169
0.060617
-0.011775
-0.0089051
-0.014327
-0.075557
-0.13456
-0.1438
-0.1336
-0.099794
-0.056423
-0.087995
-0.059612
-0.072049
-0.088952
-0.088633
-0.061844
-0.052915
-0.020386
-0.012732
0.030959
-0.0105
-0.062163
-0.045899
-0.073963
-0.053234
0.0016189
-0.028678
-0.047493
-0.059293
-0.037607
-0.020386
-0.022618
-0.022618
-0.080979
-0.024532
-0.024213
0.0016189
-0.021343
-0.045899
-0.071093
-0.0864
-0.062163
-0.028678
-0.021343
-0.013051
-0.01624
0.024899
0.019159
-0.00029452
0.008635
0.012462
-0.045899
-0.013051
-0.028678
0.0057648
-0.012094
-0.029953
-0.062163
-0.073325
-0.067585
-0.067585
-0.078427
-0.052915
0.017564
0.0064026
0.023624
0.033191
0.016289
0.063487
0.096016
0.099843
0.086449
0.10399
0.028726
0.004808
0.019797
0.049774
0.032234
-0.005716
-0.035375
-0.0018891
-0.02198
-0.029953
-0.044304
-0.034099
-0.028359
-0.056742
-0.075238
-0.070455
-0.052277
-0.060569
-0.030591
-0.049407
-0.040158
0.040526
0.070185
-0.012094
0.020116
0.038294
0.012781
0.028407
-0.0076295
-0.00061343
0.044672
0.037656
-0.0073105
-0.032186
-0.002208
0.033829
-0.074601
-0.08927
-0.10203
-0.069498
-0.068222
-0.085443
-0.10075
-0.12371
-0.11415
-0.075557
-0.089908
-0.10107
-0.098519
-0.11096
-0.067585
-0.088633
-0.099157
-0.10809
-0.11351
-0.082892
-0.068541
-0.044942
-0.029315
-0.025488
-0.025807
-0.061844
-0.046536
-0.025488
-0.020067
-0.038245
-0.05132
-0.049088
-0.023894
-0.012094
0.0057648
-0.00029452
0.030959
-0.013051
0.012143
0.09187
0.099524
0.08326
0.099843
0.084854
0.065401
0.033829
0.054558
0.031278
0.043715
0.07433
-0.012413
0.036061
0.052326
0.022348
-0.0063538
-0.0053971
0.05679
-0.0076295
0.025856
0.0054459
-0.0031647
0.0073593
0.022986
-0.011456
0.031596
-0.066947
-0.038883
0.072736
0.088044
-0.010181
-0.075876
-0.044942
0.033191
0.055834
-0.00029452
-0.058655
-0.12116
-0.014645
0.044991
-0.026126
-0.087676
-0.078109
-0.094373
-0.12084
-0.14285
-0.12307
-0.10522
-0.12116
-0.077152
-0.078109
-0.11765
-0.10075
-0.076195
-0.080022
-0.098519
-0.077152
-0.081617
-0.073006
-0.10043
-0.071093
-0.089908
-0.077471
-0.076833
-0.085443
-0.078109
-0.040158
-0.016559
-0.036331
-0.029953
0.012143
0.029364
0.029364
0.12057
0.069866
0.052326
0.0073593
-0.013689
0.032234
0.044991
0.03351
0.011505
0.0038513
-0.00029452
-0.011456
-0.03665
-0.080341
-0.08066
-0.085762
-0.10585
-0.088952
0.031915
0.0038513
0.0057648
0.018202
0.051369
0.13747
0.14034
0.12249
0.11037
0.11643
0.15501
0.14991
0.16203
0.15948
0.048499
0.016289
-0.0079484
0.011824
-0.053234
-0.10235
-0.11638
-0.18718
-0.14923
-0.13838
-0.18941
-0.1808
-0.16772
-0.1505
-0.1521
-0.13009
-0.11893
-0.10872
-0.1218
-0.12754
-0.025488
-0.022937
0.020116
0.048499
0.099524
0.082941
0.07433
0.074012
0.078157
0.094741
0.06285
0.059023
0.032553
0.0051269
0.058385
0.0032135
-0.039202
-0.047174
-0.083211
-0.11765
-0.13328
-0.14731
-0.14093
-0.12084
-0.10553
-0.096286
-0.075557
-0.058336
-0.071411
-0.05132
-0.014008
-0.023575
-0.044304
-0.022618
-0.0066727
0.045947
0.03064
0.080709
0.1429
0.14736
0.14991
0.097611
0.1244
0.092827
0.10941
0.12536
0.050412
0.03351
0.044034
0.02777
-0.019748
-0.065671
-0.11159
-0.12339
-0.1572
-0.16581
-0.16645
-0.132
-0.15401
-0.14253
-0.1285
-0.11383
-0.11255
-0.094692
-0.058336
-0.021024
0.037337
0.012462
0.049137
0.004808
0.012781
0.023624
0.019159
0.042121
0.037337
0.032872
0.052645
0.030002
-0.023256
-0.041434
-0.068222
-0.085443
-0.10107
-0.079065
-0.08066
-0.092778
-0.085762
-0.079703
-0.081617
-0.079065
-0.086081
-0.058017
-0.048769
-0.005716
0.0022568
0.043077
0.19966
0.31415
0.28959
0.14162
0.1244
0.11866
0.12759
0.17861
0.15055
0.06572
0.13046
0.06859
0.059342
0.023624
-0.073963
-0.15337
-0.20759
-0.21811
-0.22417
-0.23278
-0.2264
-0.22863
-0.20663
-0.19132
-0.18431
-0.18303
-0.12913
0.030002
0.049137
0.13078
0.10048
0.059661
0.039569
0.03925
0.072417
0.091552
0.053282
0.060298
0.049774
0.07752
0.033829
-0.037607
-0.091822
-0.11733
-0.13296
-0.14891
-0.13232
-0.12467
-0.12052
-0.11191
-0.097881
-0.091822
-0.08927
-0.086081
-0.082573
-0.061844
-0.0089051
-0.027083
-0.029315
-0.009224
-0.0066727
-0.0031647
0.00066221
0.051688
0.047542
0.038294
0.03925
0.021391
0.013419
0.0038513
0.0003433
0.019159
0.016608
0.028088
0.019478
-0.0085862
0.026175
0.072417
0.034786
0.047861
0.074649
0.059979
0.049774
0.01884
0.069547
0.052645
0.040526
0.053601
-0.018791
0.037975
0.052645
0.01023
-0.014327
0.028088
0.0025757
0.012462
0.026175
0.020116
0.011505
-0.048131
0.0003433
-0.0047593
-0.0076295
-0.0012513
-0.035375
-0.080022
-0.084487
-0.0864
-0.099157
-0.099794
-0.0982
-0.095011
-0.066947
-0.056742
-0.080341
-0.083211
-0.062482
0.011824
-0.039202
-0.061206
-0.038245
-0.047812
-0.070774
-0.047174
-0.032504
-0.055147
-0.034737
-0.015921
-0.034737
-0.030272
-0.031229
0.011505
0.0013
0.041483
0.074649
0.044353
-0.010181
0.041164
0.055196
0.053601
0.016608
-0.0076295
0.01023
0.026175
0.07146
0.038294
-0.0073105
-0.048131
-0.041434
0.034467
0.048499
-0.0025269
-0.016878
0.029045
0.12886
0.10909
0.072417
0.036699
-0.0089051
-0.0041214
0.020116
0.0016189
0.086449
0.035423
-0.017516
-0.062482
-0.10298
-0.1285
-0.11797
-0.11733
-0.12977
-0.13998
-0.1556
-0.14285
-0.041753
-0.067903
-0.10394
-0.098838
-0.077152
-0.041115
0.062212
0.04531
0.037018
0.049455
0.05679
0.046585
0.052963
0.055515
0.042439
0.041483
0.035423
0.03925
0.010867
-0.002208
-0.022937
-0.049407
0.0016189
-0.043028
-0.10107
-0.021661
-0.0085862
-0.030591
-0.052596
-0.075557
-0.085443
-0.082254
-0.064077
-0.054509
-0.071411
-0.055147
0.0019378
-0.012094
-0.015921
0.0079971
-0.0025269
-0.01911
-0.002208
0.031596
0.12536
0.084536
0.016608
0.030959
0.10016
0.089319
0.08039
0.087087
0.070503
0.031915
0.03925
0.022348
0.020435
-0.00061343
0.041483
0.008635
-0.034099
0.0044891
-0.029634
-0.073325
-0.079065
-0.052915
0.02458
-0.01337
-0.03665
-0.063758
-0.049726
-0.037926
-0.052915
-0.035694
-0.058017
-0.09246
-0.065352
-0.04558
-0.086081
-0.099476
-0.091184
-0.12563
-0.12818
-0.044623
-0.014327
-0.029315
-0.0018891
0.0019378
0.016289
0.053282
0.004808
0.0064026
0.067952
0.096335
0.098568
0.057428
0.0099106
0.026494
0.055515
0.013419
0.00098112
0.0003433
0.025218
0.027451
0.031596
0.05679
0.042758
0.029683
0.037337
0.042121
0.075287
0.078795
0.058066
0.035104
-0.0028458
-0.017835
0.0057648
0.019797
-0.029953
0.00098112
-0.005716
-0.021343
0.027132
-0.0034836
-0.020067
-0.042391
-0.033461
-0.061844
-0.049088
-0.022299
-0.056104
-0.070136
-0.050363
0.09506
0.10048
0.047223
0.0016189
0.061574
0.055196
0.060617
0.039888
0.039569
0.09793
0.10973
0.061574
-0.017835
-0.014645
0.0044891
-0.022299
-0.084168
-0.092778
-0.10841
-0.14093
-0.12052
-0.1049
-0.12563
-0.11319
-0.1049
-0.10968
-0.10394
-0.1033
-0.097881
-0.096286
-0.076195
-0.077152
-0.051001
-0.088952
-0.06599
-0.02804
-0.019748
-0.018791
-0.0089051
0.010548
0.042121
0.10303
0.19233
0.13078
0.072736
0.078157
0.087406
0.063487
0.086449
0.10718
0.12217
0.11802
0.05392
0.064125
0.0032135
-0.02198
-0.014008
-0.005716
-0.018153
-0.043028
-0.066947
-0.10203
-0.093097
-0.10681
-0.094373
-0.10553
-0.11446
-0.11478
-0.11415
-0.094373
-0.097562
-0.080341
-0.060569
-0.046855
-0.065352
-0.049088
-0.011137
0.0070404
0.061255
0.078795
0.02171
0.022029
0.044353
0.058385
0.058385
0.087725
0.014694
0.045629
0.12217
0.11388
0.11101
0.14577
0.12791
0.058385
0.050412
0.030959
0.012462
0.038612
0.035104
0.040207
-0.022618
-0.01911
-0.052915
-0.046855
-0.071411
-0.094692
-0.097562
-0.091503
-0.091184
-0.090227
-0.093416
-0.090546
-0.099476
-0.11
-0.10522
-0.095011
-0.049088
-0.08066
-0.087676
-0.090227
-0.060569
-0.068541
-0.047812
-0.028678
-0.015602
0.0054459
-0.0089051
-0.0073105
-0.011456
-0.011456
-0.013689
0.0003433
-0.005716
-0.0095429
-0.0098618
-0.013051
0.0019378
0.012781
-0.0038025
-0.01911
-0.012732
0.034467
-0.014008
0.016289
0.01884
-0.00029452
0.027451
0.012462
-0.00061343
0.028407
0.012462
0.01023
-0.01337
0.0060837
0.0044891
0.058704
0.054239
0.052326
0.060617
0.070503
0.050093
0.037337
0.06285
0.044034
0.044353
0.04818
0.020754
0.029045
-0.0025269
0.0095917
-0.029953
-0.074601
-0.043347
0.041164
-0.028678
-0.087995
-0.029953
0.040845
2.4388e-05
-0.032186
-0.025807
0.0044891
0.0028946
-0.010819
2.4388e-05
0.016289
0.015651
-0.018153
-0.037607
-0.037607
-0.044623
-0.048131
-0.066628
-0.070136
-0.06599
-0.099157
-0.079065
-0.075238
-0.057379
-0.048769
-0.040158
-0.038564
-0.046855
-0.0098618
-0.012094
-0.015283
0.013419
0.03925
0.024899
-0.011456
0.010548
0.0003433
-0.033142
-0.022299
-0.022937
-0.031229
-0.047493
-0.047493
-0.048131
-0.038883
-0.021343
0.022029
0.064444
0.07146
0.14066
0.11292
0.075606
0.086768
0.067952
0.1346
0.13939
0.073693
0.026813
0.061255
0.029683
0.089638
0.01884
-0.017197
-0.084168
-0.092778
-0.082573
-0.090227
-0.096286
-0.10458
-0.12403
-0.099794
-0.085762
-0.11415
-0.11989
-0.094692
-0.068222
-0.043985
-0.053552
-0.040158
-0.040158
-0.037288
-0.013689
-0.0025269
0.01597
0.027451
0.016608
0.025856
0.0032135
0.0092728
0.053282
0.16331
0.15087
0.08613
0.079433
0.08613
0.090914
0.093784
0.10813
0.13811
0.17511
0.14194
0.10463
0.05679
0.13333
0.088362
0.039888
0.03925
0.043715
0.008635
-0.00061343
0.013419
0.012781
-0.035056
-0.03952
0.027132
0.023305
0.03638
0.0095917
0.023943
0.013419
-0.0098618
-0.054828
-0.025807
-0.0018891
0.011186
0.068271
-0.012094
-0.04558
0.032872
0.038294
-0.012413
-0.019748
-0.050682
-0.022937
-0.010819
-0.046218
-0.04845
-0.053871
-0.070455
-0.087038
-0.08066
-0.06025
-0.064395
-0.085762
-0.084806
-0.088633
-0.079703
-0.031548
-0.016878
-0.016559
0.010867
-0.00029452
0.069228
0.055834
0.010867
0.013738
0.0095917
0.038612
0.03638
0.01023
0.038294
0.055196
0.025218
0.0041702
-0.022618
-0.037288
-0.055147
-0.060887
-0.056104
-0.050363
-0.038564
-0.046855
-0.067585
-0.074601
-0.04271
-0.029634
-0.030591
-0.022937
0.00098112
0.066039
0.08613
0.14003
0.12791
0.11643
0.12918
0.2223
0.18754
0.17032
0.207
0.1834
0.11451
0.12408
0.15597
0.1126
0.081346
0.085492
0.048499
0.022029
-0.00061343
-0.017516
-0.099794
-0.055785
-0.026764
-0.059612
-0.079065
-0.049088
-0.063758
-0.074601
-0.05132
-0.036012
-0.009224
0.010548
0.0131
0.027451
-0.01337
0.00098112
-0.018791
-0.0079484
-0.002208
-0.0025269
0.012462
0.03064
0.019159
-0.010181
0.012143
-0.0044404
0.020435
0.020435
0.045947
0.049455
0.060617
0.022348
0.017883
0.035423
0.017883
-0.0012513
0.0038513
-0.021661
-0.068541
-0.080979
-0.091503
-0.093416
-0.095968
-0.11319
-0.10522
-0.10777
-0.096605
-0.10266
-0.067903
-0.040477
-0.049407
-0.033142
-0.036969
-0.026764
-0.018153
-0.015921
-0.0098618
0.020116
0.030959
0.049137
0.065082
0.078157
0.072417
0.064125
0.09187
0.046585
0.087725
0.099843
0.078476
0.048818
0.040526
0.096335
0.034467
0.0076782
0.019478
0.015013
-0.0034836
-0.015283
-0.028359
-0.01624
0.050731
0.075606
0.059342
0.016289
0.01023
0.073374
0.073374
0.062212
0.0003433
-0.016559
-0.046855
-0.0053971
0.016289
-0.016878
-0.027721
-0.010181
0.036699
-0.011137
-0.026764
-0.052915
-0.051639
-0.03665
-0.030591
-0.01911
-0.02804
-0.011137
-0.051001
-0.016559
0.015651
-0.013689
-0.0079484
-0.02517
0.027451
-0.0015702
2.4388e-05
0.013419
0.0095917
0.01597
0.034467
0.049137
0.048499
0.043715
-0.018472
-0.021343
0.022986
0.066039
0.05105
0.055196
0.035742
0.019159
0.045629
0.06572
0.055834
0.03925
-0.0095429
0.082941
0.10208
0.11579
0.12472
0.029045
0.035423
0.037656
0.059023
0.026175
0.037975
0.0003433
0.038612
0.048499
0.013738
0.0057648
0.00098112
-0.041434
-0.037926
-0.065352
-0.025488
-0.040158
-0.075876
-0.08066
-0.073325
-0.07173
-0.069179
-0.051639
-0.035056
-0.047493
-0.015283
-0.026764
-0.022299
-0.026126
-0.042072
-0.027721
-0.0098618
0.023943
-0.0079484
-0.028996
0.0035324
0.011505
0.0028946
0.035742
0.085492
0.23028
0.16426
0.12599
0.078795
0.072098
0.060298
0.11132
0.14513
0.1767
0.14066
0.067952
0.044353
0.049455
0.019159
-0.029634
-0.028996
-0.057379
-0.043985
-0.040477
-0.01624
-0.043028
-0.097243
-0.099157
-0.059612
-0.056104
-0.068541
-0.073644
-0.10713
-0.072368
-0.067266
-0.063758
-0.051639
-0.032504
-0.039202
-0.077471
-0.052915
-0.044623
-0.021343
-0.032186
-0.03378
-0.023894
-0.023894
-0.054828
-0.081935
-0.094054
-0.036969
-0.061206
-0.071093
-0.02804
-0.014964
-0.01337
-0.021024
-0.020386
0.0025757
0.0028946
-0.002208
0.0095917
0.029364
0.028088
0.037018
0.081028
0.08613
0.095697
0.11324
0.10782
0.10144
0.13811
0.12727
0.11388
0.11547
0.043396
0.084536
0.13429
0.098249
0.085811
0.01023
0.017883
0.012781
0.03925
0.058066
0.050412
0.0019378
0.0051269
0.069547
0.074012
0.12695
0.12376
0.066677
0.060298
0.025537
0.011505
0.010548
-0.062801
0.013738
-0.014964
-0.082892
-0.076514
-0.015283
-0.044304
-0.092778
-0.098519
-0.10649
-0.074919
-0.044304
0.013419
-0.017197
0.019478
-0.053871
-0.028996
-0.046855
-0.0085862
-0.020705
-0.028678
-0.015283
-0.024213
-0.056742
-0.048769
-0.045899
-0.014964
-0.016559
-0.029634
-0.038245
-0.01624
0.022348
-0.027721
-0.042391
-0.043347
-0.073644
-0.058655
-0.043347
-0.049407
-0.049088
-0.064714
-0.05419
-0.039202
-0.039839
-0.032823
-0.018153
-0.019429
-0.011775
0.01884
0.011824
-0.00093234
0.0095917
0.015013
0.0070404
0.0032135
-0.0044404
0.015013
-0.00061343
0.0092728
0.012462
0.018521
0.017883
-0.014327
-0.017197
-0.0095429
0.0041702
-0.0085862
0.022667
-0.013689
0.051369
0.18882
0.15565
0.12312
0.084217
0.12982
0.15884
0.1582
0.15852
0.12727
0.15948
0.1244
0.15087
0.10654
0.12121
0.052963
0.0070404
-0.018472
-0.074601
-0.078109
-0.057379
-0.055785
-0.065671
-0.092141
-0.099157
-0.099157
-0.12977
-0.1454
-0.14189
-0.14667
-0.096605
-0.11446
-0.15847
-0.11032
-0.074282
-0.095968
-0.095011
-0.076195
-0.065033
-0.045261
-0.021024
-0.0031647
-0.037607
0.026813
0.045947
0.051369
0.03351
0.028407
0.042758
-0.0012513
0.0041702
0.044353
0.046266
0.05392
0.03351
0.014056
0.020116
0.024899
0.01884
0.025218
0.017246
-0.00029452
-0.0047593
0.0025757
0.018202
0.0038513
-0.0044404
0.0038513
0.021072
0.0131
0.043715
0.013419
0.010548
0.053601
0.071779
0.068909
0.048818
0.037975
0.054558
0.033829
0.034467
0.040207
0.084854
0.065401
0.080071
0.1346
0.12121
0.07433
0.093784
0.11834
0.084854
0.07433
0.078795
0.097611
0.065082
0.041483
0.031596
-0.0025269
-0.071411
-0.048131
0.0044891
-0.019748
-0.06025
-0.086719
-0.058017
-0.046536
-0.049407
-0.089589
-0.02198
-0.015602
-0.078109
-0.055147
-0.033142
-0.026126
-0.048769
-0.056742
-0.087038
-0.088314
-0.094373
-0.10075
-0.11096
-0.093735
-0.096605
-0.076833
-0.058655
-0.028359
-0.064395
-0.061206
-0.034737
-0.037288
-0.04271
-0.035375
-0.016559
0.013419
2.4388e-05
2.4388e-05
0.0051269
0.022667
0.024899
0.046266
0.035742
0.021072
0.070503
0.074968
0.0051269
0.022986
0.037975
0.020754
0.008635
-0.0079484
-0.017516
-0.0018891
0.0019378
0.008635
0.014375
0.012781
0.017564
0.032872
0.084536
0.094741
0.059342
0.11834
0.15183
0.12025
0.12599
0.12886
0.14417
0.13429
0.13301
0.1177
0.10877
0.029683
0.072098
0.063487
0.065082
0.096335
0.0051269
-0.011456
-0.039202
-0.04845
-0.036012
-0.037607
-0.043985
-0.069179
-0.094692
-0.0073105
0.055515
0.035104
-0.023894
-0.021024
-0.03665
-0.035694
-0.018791
-0.016878
-0.022299
-0.021343
-0.039202
-0.037607
0.012462
-0.017197
-0.053234
-0.069179
-0.081298
-0.073963
-0.078427
-0.062163
-0.037607
-0.029634
-0.013051
-0.03091
-0.02517
0.011824
0.014375
0.013738
-0.012413
-0.02804
-0.021343
0.028407
0.029045
-0.022618
0.012781
0.012462
-0.027721
0.039569
0.038612
-0.0050782
-0.043666
-0.015921
-0.01624
-0.015921
-0.02517
-0.037607
-0.048131
-0.047812
0.012143
0.038294
0.042758
0.010548
-0.0041214
0.038931
0.037337
0.074968
0.070822
0.12695
0.17798
0.12886
0.12823
0.16139
0.10016
0.063487
0.0099106
0.0028946
0.020116
0.044353
0.060617
0.028407
0.0044891
-0.026445
-0.04558
-0.040796
-0.079384
-0.046536
-0.047493
-0.044623
-0.08066
-0.079703
-0.074282
-0.021343
-0.035056
-0.034099
-0.053871
-0.075557
-0.082573
-0.04271
-0.042391
-0.03665
-0.044623
-0.067266
-0.074601
-0.037288
-0.01911
-0.027721
-0.050044
-0.031867
0.0019378
-0.017197
-0.018791
0.034148
0.042121
-0.0034836
0.044034
0.083579
0.06859
0.036699
0.049137
0.058704
0.066995
0.048499
0.008635
-0.0069916
0.016927
-0.018791
-0.035375
-0.012094
-0.020067
-0.048769
-0.028678
-0.035694
-0.03091
-0.043347
-0.038564
-0.019429
-0.029953
0.0095917
0.073693
0.090276
0.05105
0.050093
0.12918
0.20221
0.17
0.10495
0.15533
0.1783
0.18627
0.24654
0.22135
0.16777
0.080709
0.076244
0.059342
0.041483
0.073374
0.039888
0.037337
0.12695
0.060936
-0.016878
-0.047493
-0.069179
-0.02804
0.020116
-0.023575
-0.024213
-0.051958
-0.040158
-0.067903
-0.069179
-0.10235
-0.16421
-0.19005
-0.18462
-0.1757
-0.16836
-0.13934
-0.11128
-0.10841
-0.098838
-0.07779
-0.058655
-0.045899
-0.0025269
0.029045
0.034148
0.022029
0.010867
0.0044891
-0.0069916
0.02777
0.03064
-0.037288
-0.020705
0.035423
-0.012732
-0.00093234
0.0013
-0.030591
-0.052596
-0.034418
-0.02804
-0.026445
-0.029315
-0.020386
-0.03665
-0.017516
0.028407
0.072098
0.072098
0.067633
0.044991
0.020754
0.06572
0.10367
0.10526
0.078157
0.093146
0.07433
0.083898
0.070185
0.050093
0.011186
0.0073593
-0.00029452
0.015332
0.029364
0.016289
0.0016189
0.035423
0.043715
0.089957
0.11164
0.098249
0.078795
0.037018
0.016608
0.014375
0.016289
0.061893
0.12025
0.11675
0.044991
-0.03091
-0.018153
0.0035324
-0.013689
-0.020067
-0.011775
-0.038883
-0.031229
-0.025488
-0.066628
-0.052596
-0.076833
-0.073006
-0.079703
-0.066309
-0.073644
-0.068541
-0.10777
-0.083211
-0.058655
-0.039839
-0.023575
-0.014964
0.026494
0.044991
0.010548
0.052326
0.069228
0.06859
0.062212
0.098886
0.10877
0.099205
0.072736
0.057109
0.11037
0.13556
0.089319
0.038612
0.050412
0.0060837
0.017246
0.0079971
0.089319
0.04531
-0.047174
-0.043028
-0.011456
-0.034099
-0.036969
-0.022937
-0.017516
-0.0060349
0.018202
-0.010181
0.010548
0.022029
0.010548
-0.026126
-0.024851
-0.022618
-0.051639
-0.051639
-0.010181
0.0067215
-0.019748
-0.082254
-0.096286
-0.038245
-0.031548
-0.04271
-0.017516
-0.03091
-0.05132
-0.067585
-0.061206
-0.055466
-0.037926
0.0089539
-0.032823
-0.040477
-0.023256
0.029364
0.0079971
0.047861
0.020435
0.027451
0.059979
0.040845
0.015332
0.048818
0.087725
0.08613
0.060936
0.040207
-0.0082673
-0.01911
0.0057648
0.028407
0.020754
0.016927
0.0070404
-0.0034836
0.0044891
0.096654
0.10335
0.069866
0.024899
0.012462
0.040526
0.093784
0.063806
0.026175
0.011824
0.049774
0.032872
0.023305
-0.014327
-0.038245
0.00098112
-0.023894
-0.028678
-0.057379
-0.039839
-0.046218
-0.017516
-0.050682
-0.065352
-0.093097
-0.045899
0.068271
0.091552
0.02171
-0.0028458
-0.030591
-0.04558
-0.038245
0.016608
0.0060837
-0.011456
-0.032186
-0.012732
0.0028946
-0.036969
-0.087038
-0.11255
-0.11574
-0.084806
-0.057379
-0.054828
-0.052915
0.015651
0.0089539
0.042121
0.060936
0.037975
0.016289
0.03925
0.10909
0.1244
0.096654
0.097611
0.084854
0.089
0.08613
0.082622
0.069228
0.066677
0.042121
-0.022937
0.030959
-0.016559
0.027451
0.052326
0.052326
0.037975
0.013419
-0.0031647
-0.021343
-0.032823
-0.02198
-0.012094
0.0079971
0.0051269
0.043077
0.054239
0.0073593
0.010548
0.0016189
0.025856
0.010548
-0.018791
-0.046855
-0.054828
-0.03952
-0.053552
-0.02804
-0.041115
-0.052915
-0.073644
-0.094054
-0.06312
-0.038564
-0.015921
0.058385
0.060298
0.031278
0.026175
0.0051269
0.033191
0.03351
0.0044891
0.051688
0.087725
0.05105
0.014694
0.028088
0.00066221
-0.037288
0.008635
0.017564
0.035104
0.026494
-0.010181
0.050412
0.086449
0.065082
0.046904
0.052326
0.087725
0.059979
0.085492
0.18021
0.15119
0.12217
0.12536
0.093146
0.10495
0.089638
0.10686
0.071141
0.004808
0.020116
-0.011775
0.0028946
-0.028359
-0.052277
-0.096924
-0.11064
-0.1202
-0.11574
-0.12467
-0.12754
-0.12626
-0.11255
-0.094692
-0.095011
-0.072368
-0.08353
-0.082573
-0.094054
-0.081935
-0.083849
-0.044623
-0.06599
-0.066947
-0.03378
-0.032186
-0.035056
-0.026126
-0.01624
-0.013689
-0.026764
-0.010819
0.018202
0.053282
0.052007
0.041164
0.031278
0.046904
0.049137
0.069228
0.047542
0.036061
0.073693
0.09793
0.094103
0.096016
0.10367
0.081984
0.069866
0.035104
0.094422
0.16426
0.13237
0.12886
0.10271
0.061574
0.048818
0.014375
0.038931
0.056471
0.027132
0.067314
0.053601
-0.00093234
-0.027721
-0.03378
-0.050682
-0.051639
-0.071093
-0.075557
-0.033142
-0.04271
-0.051001
-0.053552
-0.017516
-0.023575
0.0028946
-0.012732
0.004808
-0.0015702
-0.0073105
-0.013689
-0.020386
-0.037288
-0.061844
-0.059931
-0.032823
-0.039202
-0.04845
-0.067266
-0.06599
-0.055466
-0.037288
0.012462
0.036699
0.053282
0.044991
0.029364
0.032553
0.018202
0.028726
0.016608
0.060617
0.051369
-0.021024
-0.014964
-0.040158
-0.014008
-0.016878
-0.022937
-0.038245
-0.056423
-0.038883
-0.034418
-0.037926
-0.022299
-0.014645
0.11388
0.17447
0.12057
0.052326
0.056153
0.032872
0.03638
0.070503
0.052963
0.040845
0.034148
0.080071
0.023305
-0.0025269
-0.038245
-0.058017
-0.074919
-0.022299
-0.011775
0.008316
0.036699
0.027132
0.021391
0.015651
0.0051269
0.040207
0.084217
0.03064
0.059342
0.03351
0.034148
-0.029953
0.0092728
-0.046536
-0.058655
-0.047493
-0.066309
-0.066947
-0.047174
-0.043028
-0.031867
0.0013
-0.0060349
-0.022937
-0.041753
-0.014645
0.012143
0.027451
0.011505
-0.013689
-0.040158
-0.032823
-0.048131
-0.04558
-0.051958
-0.021343
-0.032504
-0.069179
-0.056104
-0.052277
-0.037926
-0.031867
-0.031229
-0.046855
-0.032186
0.01884
0.0003433
-0.031548
-0.033461
-0.050363
-0.059293
-0.023575
-0.024851
-0.057379
-0.026445
-0.010819
-0.0079484
0.00098112
0.016289
0.012781
0.022029
0.022986
-0.0095429
0.023943
0.05105
0.052326
0.09506
0.10845
0.12249
0.10782
0.089638
0.18818
0.23921
0.24941
0.18946
0.13779
0.11675
0.14034
0.13811
0.11101
0.15693
0.079433
0.099205
0.049137
0.0099106
0.034467
-0.014645
-0.065033
-0.10522
-0.12276
-0.1269
-0.058974
-0.021024
-0.036969
-0.088952
-0.081617
-0.099476
-0.074919
-0.084806
-0.095011
-0.12882
-0.11542
-0.10075
-0.089589
-0.093097
-0.099157
-0.074282
-0.064714
-0.054509
-0.053234
-0.084487
-0.084487
-0.084806
-0.075557
-0.074919
-0.054509
-0.049407
-0.037607
-0.0076295
0.044034
0.04818
0.031596
0.045629
0.030002
0.050731
0.057428
0.021072
0.035104
0.050731
0.06859
0.038931
0.015013
-0.014645
-0.063439
-0.071093
-0.031229
-0.014008
-0.04271
-0.050363
-0.028359
0.021072
0.04531
0.046266
0.08039
0.11419
0.062531
0.050412
0.074649
0.071141
0.074968
0.039569
0.044353
0.05679
0.049137
-0.0066727
-0.037607
-0.047812
-0.023575
-0.012413
-0.014645
-0.0012513
-0.052596
0.055196
0.052007
0.040845
0.058385
0.094103
0.038931
0.04818
0.077201
0.059661
0.078476
0.029045
0.017564
-0.0050782
0.0025757
-0.046855
-0.07173
-0.081298
-0.10649
-0.14572
-0.14667
-0.13615
-0.10426
-0.11478
-0.11765
-0.092778
-0.073963
-0.072687
-0.044623
-0.03378
-0.033142
-0.012094
2.4388e-05
0.0025757
0.047223
0.091233
0.053282
0.057428
0.042758
-0.0095429
0.040845
0.033829
0.030002
0.036061
0.035104
0.0038513
0.035423
0.059023
0.042758
-0.015921
-0.014964
-0.020386
-0.026445
-0.046218
-0.076833
-0.057698
-0.036331
-0.019748
-0.016878
-0.030591
-0.016559
-0.012732
0.021391
0.027451
0.094103
0.1126
0.13875
0.15151
0.14385
0.10973
0.11005
0.11834
0.10813
0.059661
0.045629
0.074012
0.055515
-0.010181
-0.047493
-0.064714
-0.11957
-0.10936
-0.11096
-0.12403
-0.14285
-0.14061
-0.12754
-0.12754
-0.1202
-0.11638
-0.097881
-0.093735
-0.094054
-0.079065
-0.022299
0.010548
0.036699
0.029045
0.018202
0.099524
0.069228
0.061574
0.053601
0.10048
0.090914
0.071779
0.043715
0.038612
0.053282
0.042121
0.04818
0.0016189
-0.023575
-0.012413
-0.042391
-0.053552
0.01884
0.029364
0.013419
0.0089539
-0.013689
-0.0095429
-0.025488
-0.016559
0.0054459
0.012143
0.0016189
0.004808
-0.0050782
-0.032504
-0.042391
0.0095917
-0.0105
-0.0098618
-0.045899
-0.076195
-0.058655
-0.043028
-0.053234
-0.059293
-0.04558
-0.051639
-0.031229
-0.022299
-0.044623
-0.029634
0.019159
0.081028
0.097292
0.091233
0.10686
0.04531
0.055196
0.043715
0.11292
0.12663
0.11292
0.08039
0.055196
0.016927
0.037975
0.06285
0.047542
0.029364
0.0070404
-0.040158
-0.055785
-0.025488
0.0003433
-0.0073105
-0.065033
-0.03378
-0.028359
-0.038245
0.018202
0.0022568
-0.045261
-0.059293
-0.11415
-0.064395
-0.036012
-0.0015702
0.0025757
-0.056104
-0.081298
-0.032504
-0.062163
-0.074601
-0.083211
-0.092141
-0.072687
-0.074282
-0.058017
-0.049407
-0.052596
-0.079703
-0.017197
0.015013
0.0019378
-0.023575
-0.030272
-0.012413
0.0057648
0.01884
0.0070404
0.022029
-0.0060349
0.036699
0.037337
2.4388e-05
-0.010181
0.0095917
0.041164
0.04818
0.028726
0.042439
0.059979
0.11292
0.11515
0.15916
0.082941
0.034786
0.0131
-0.0012513
0.036699
0.072098
0.064763
0.010548
-0.010819
0.033829
0.027451
0.047223
0.066995
-0.031548
-0.037926
-0.035056
-0.0060349
0.0038513
-0.002208
0.010548
-0.047493
-0.052915
0.021391
-0.04271
-0.05419
-0.059612
-0.037607
-0.043985
-0.046855
-0.055147
-0.074919
-0.082892
-0.071411
-0.093097
-0.059612
-0.067585
-0.095968
-0.077152
-0.091184
-0.079703
-0.072368
-0.099476
-0.098519
-0.092141
-0.072687
-0.062163
-0.06025
-0.050044
-0.032504
-0.028996
0.01597
0.071141
0.055834
0.077838
0.091233
0.050731
0.038612
0.043396
0.071779
0.096654
0.076563
0.05105
0.022348
-0.0073105
0.025856
-0.00029452
-0.042391
-0.066309
-0.082573
-0.10362
-0.093416
-0.080979
-0.06599
-0.066947
-0.053234
0.023305
0.041483
0.34126
0.34126
0.21943
0.15501
0.12567
0.1311
0.1598
0.19966
0.14513
0.092827
0.086768
0.11164
0.08613
0.0016189
-0.09246
-0.16772
-0.20248
-0.191
-0.19611
-0.18494
-0.16804
-0.15656
-0.14986
-0.11861
-0.11702
-0.12276
-0.1033
-0.060887
-0.050044
-0.049088
-0.0098618
-0.0044404
-0.01624
-0.0018891
0.028726
0.02171
-0.0073105
-0.009224
0.026175
-0.00061343
-0.01911
0.0025757
-0.026445
-0.048131
-0.019429
-0.022618
-0.02198
-0.018472
-0.051639
-0.052596
-0.033142
-0.0053971
-0.0015702
-0.036331
-0.0095429
-0.012094
-0.024213
-0.011775
-0.020705
-0.021024
-0.016559
-0.0079484
0.0019378
-0.0076295
-0.0079484
-0.026764
0.0022568
0.040207
0.012143
0.0028946
0.013419
0.0095917
0.12217
0.082941
0.08326
0.094741
0.14896
0.14353
0.15119
0.14162
0.17
0.13205
0.15023
0.1885
0.2003
0.13556
0.062212
0.090595
0.045629
0.0022568
-0.015283
0.0044891
0.0095917
-0.009224
-0.044623
-0.11
-0.12339
-0.13711
-0.10203
-0.099476
-0.10649
-0.10585
-0.1218
-0.12658
-0.13806
-0.12531
-0.15911
-0.16868
-0.17729
-0.16262
-0.1438
-0.15688
-0.12339
-0.10203
-0.10043
-0.0864
-0.073963
-0.064395
-0.050682
-0.031867
-0.021024
-0.0069916
0.010548
0.046585
0.087087
0.056471
0.045629
0.06859
0.052963
0.03925
0.04531
0.065082
0.020754
0.03351
0.10303
0.041483
-0.005716
-0.029953
0.029045
0.022348
0.0099106
-0.016559
-0.025807
0.05105
0.048818
0.018521
0.054558
0.052007
0.090595
0.10399
0.12918
0.11515
0.12153
0.14353
0.15087
0.12695
0.07752
0.054239
0.065082
0.02458
-0.0053971
-0.074919
-0.049407
-0.050363
-0.11574
-0.088952
-0.11478
-0.13711
-0.11638
-0.13009
-0.15146
-0.15784
-0.14986
-0.13966
-0.11638
-0.0864
-0.064077
-0.037607
-0.022618
-0.050044
-0.059931
-0.02198
-0.028359
-0.0089051
-0.011775
-0.041115
-0.014645
-0.027402
0.022986
-0.0034836
-0.023575
-0.029634
-0.057379
-0.031229
-0.023256
-0.00061343
0.0016189
-0.0060349
-0.009224
-0.0050782
0.028088
0.077201
0.049455
0.045629
0.10271
0.087406
0.076244
0.080071
0.069228
0.036061
0.042121
0.06285
0.070185
0.088362
0.081346
0.010867
-0.0082673
0.040845
0.10335
0.15757
0.11228
0.054239
0.039888
0.05392
0.046904
0.021391
0.015013
-0.0031647
-0.026126
-0.010181
-0.0060349
-0.018791
-0.052915
-0.095968
-0.1454
-0.1454
-0.13487
-0.132
-0.1285
-0.12595
-0.14731
-0.13998
-0.079065
-0.09246
-0.072049
-0.070774
-0.059293
-0.058017
-0.095649
-0.046855
0.019478
0.022986
0.0028946
0.010867
0.0016189
-0.0044404
-0.011775
-0.014645
-0.03091
-0.0085862
-0.0060349
0.011824
0.034467
0.019797
0.0025757
-0.014327
0.060936
0.11419
0.081346
0.10303
0.070822
0.060298
0.03351
0.022029
0.016289
0.046904
0.017246
0.0073593
-0.009224
-0.055785
-0.064714
-0.048769
-0.053234
-0.022299
-0.015283
-0.047493
-0.037607
-0.0085862
0.0035324
0.013738
0.075606
0.070822
0.043396
0.069547
0.060936
0.078795
0.052007
-0.012413
0.030321
0.03064
0.073693
0.074649
0.017883
-0.013051
-0.00029452
-0.021024
-0.050363
-0.085125
-0.075238
-0.06312
-0.067903
-0.065033
-0.037288
0.11037
0.05679
0.024262
0.033829
0.041164
0.0089539
0.029045
0.08326
0.061255
0.077201
0.07146
0.06859
0.0099106
-0.043666
-0.078746
-0.063439
-0.037288
-0.0864
-0.13392
-0.10553
-0.09533
-0.092778
-0.11191
-0.11861
-0.10426
-0.097881
-0.11765
-0.09246
-0.091184
-0.094692
-0.070774
-0.095968
-0.058974
-0.058336
-0.040158
0.0013
0.0041702
0.0095917
0.028088
0.022348
0.026175
0.061574
0.047542
0.075925
0.15119
0.10367
0.079114
0.049774
0.059661
0.035742
0.019478
0.031596
0.025537
0.032234
0.047223
0.010548
-0.019429
-0.090546
-0.04558
-0.053871
-0.058974
-0.043028
-0.053871
-0.057061
-0.050682
-0.040477
-0.026126
-0.034099
-0.015602
0.034786
0.10239
0.11547
0.10208
0.13939
0.18595
0.1767
0.18595
0.13524
0.16107
0.11419
0.12376
0.031596
0.065082
0.062212
-0.045899
-0.0018891
-0.050044
-0.11319
-0.12339
-0.11829
-0.16485
-0.17952
-0.1285
-0.11446
-0.15241
-0.14667
-0.13328
-0.11255
-0.10458
-0.074282
-0.075557
-0.080022
-0.072687
-0.034099
-0.02198
-0.04558
-0.057698
-0.025488
-0.011456
-0.013689
-0.014645
-0.035056
-0.079703
-0.051958
-0.029315
0.0044891
0.035423
0.020116
0.014694
0.023305
-0.0063538
0.0076782
0.028088
0.032872
0.03925
0.025856
0.072417
0.075287
0.024262
0.013419
0.018521
0.054877
0.059661
0.086449
0.074012
0.024899
-0.0028458
0.076563
0.095378
0.069228
0.042758
0.049137
0.042758
0.025856
-0.022299
-0.036331
-0.027083
0.0051269
-0.0018891
-0.0050782
0.022348
-0.016559
-0.0015702
0.031915
0.06572
0.081028
0.069547
0.11356
0.11451
0.056471
0.032872
0.0099106
-0.029634
-0.0041214
0.016289
0.012781
-0.063758
-0.13519
-0.1269
-0.067266
-0.097243
-0.1033
-0.11478
-0.11829
-0.050682
-0.039202
-0.068541
-0.059612
-0.06886
-0.090227
0.0003433
0.0060837
-0.0076295
-0.035056
-0.04271
-0.038245
-0.02804
-0.030272
-0.025807
-0.02804
-0.043347
-0.026764
-0.023894
-0.058655
-0.093416
-0.085443
-0.060887
-0.037607
-0.052915
-0.038245
-0.048131
-0.053234
-0.015283
0.0131
0.042121
0.034786
0.040526
0.03064
0.042439
0.064125
0.089638
0.087406
0.051369
0.021391
0.030959
0.079433
0.032553
0.02777
0.031915
0.037018
0.089
0.084217
0.026494
0.029045
0.070503
0.14832
0.1362
0.11388
0.089
0.013738
0.023943
0.06572
0.048818
0.02777
0.032553
0.017246
-0.0098618
0.010867
0.020116
-0.056742
-0.077471
-0.017516
-0.057379
-0.058336
-0.063439
-0.053234
-0.08927
-0.012413
-0.019748
-0.053234
-0.062163
-0.051001
-0.053871
-0.04845
-0.045261
-0.009224
-0.021661
-0.057379
0.0057648
-0.03091
-0.044942
-0.025807
-0.065671
-0.06312
-0.053234
-0.055147
-0.094373
-0.061206
-0.059293
-0.051001
-0.066628
-0.06886
-0.072049
-0.054509
-0.047174
-0.055785
-0.063439
-0.01337
0.033191
0.034786
-0.005716
-0.0038025
0.021391
0.022986
0.055196
0.060936
0.065082
0.028407
-0.017835
0.037018
0.034467
0.032553
0.020754
-0.0050782
-0.037288
-0.079384
-0.050363
-0.047812
-0.043028
-0.050044
-0.013051
-0.022618
0.018521
0.1311
0.21178
0.19679
0.18882
0.12886
0.10048
0.079114
0.15948
0.14385
0.12121
0.21561
0.1464
0.074968
-0.0038025
-0.028996
-0.044623
-0.069179
-0.096286
-0.10522
-0.11032
-0.13838
-0.10298
-0.10107
-0.10362
-0.1521
-0.13679
-0.12212
-0.15401
-0.169
-0.067903
-0.058017
-0.091503
-0.10904
-0.10777
-0.039839
-0.018791
-0.023575
-0.026445
-0.051001
-0.028996
0.018521
0.014056
-0.002208
-0.021343
-0.034099
-0.056423
-0.022299
-0.013689
0.019797
0.041483
0.063487
0.036699
-0.0079484
0.019478
0.014056
0.0054459
0.016927
0.049455
0.057109
0.022029
-0.0073105
-0.031229
0.0099106
0.013419
0.01597
0.042439
0.074649
0.10622
0.12791
0.096973
0.042758
0.05105
0.036699
0.043077
0.034148
0.025537
0.016608
0.079114
0.044034
-0.01911
-0.074601
-0.089908
-0.079065
-0.084168
-0.0089051
0.068909
0.097611
0.065401
0.068909
0.035423
0.01597
0.0095917
0.013419
0.052963
0.064125
0.019797
-0.045899
0.0025757
-0.043666
-0.072368
-0.068541
-0.094054
-0.10362
-0.083849
-0.052596
-0.041434
-0.023894
-0.028359
-0.040477
-0.045261
-0.032186
-0.012413
0.012143
-0.00029452
-0.010819
-0.031229
0.0079971
0.011186
-0.03665
-0.026764
-0.046218
-0.076833
-0.077152
-0.074282
-0.052277
-0.033142
-0.070455
-0.053234
-0.03091
-0.024532
0.038612
0.06859
0.035104
0.041483
0.053282
0.042758
0.018202
0.073055
0.10495
0.098886
0.10335
0.13524
0.10526
-0.0098618
0.043715
0.044991
-0.002208
-0.021024
-0.01624
-0.0060349
0.016289
0.056153
0.042758
0.048818
0.032234
-0.005716
-0.0053971
0.008635
-0.014327
-0.0031647
0.031596
0.021072
-0.015283
0.041802
0.095378
0.019478
0.0003433
-0.00029452
-0.0105
-0.031229
-0.013051
-0.049088
-0.10043
-0.086719
-0.032823
-0.049088
-0.10362
-0.096286
-0.1202
-0.1167
-0.12563
-0.11542
-0.097881
-0.073963
-0.041115
-0.040477
-0.019429
-0.014327
-0.012094
-0.0047593
0.004808
-0.020705
-0.038883
-0.021343
0.00066221
-0.048131
-0.02198
-0.020067
-0.019429
-0.0066727
-0.02804
-0.038564
-0.040796
-0.063439
-0.032186
-0.0076295
0.014375
0.035742
0.082622
0.071141
0.050731
0.095378
0.13205
0.10654
0.075606
0.10526
0.17351
0.12727
0.11069
0.099205
0.056153
0.056471
0.030321
-0.022299
-0.05132
-0.04558
-0.058974
-0.095011
-0.12244
-0.026126
-0.036969
-0.039839
-0.0095429
-0.026764
-0.027402
-0.0098618
-0.019429
-0.0060349
-0.0031647
0.0019378
-0.0031647
-0.02804
0.027451
0.0028946
-0.024532
-0.03091
-0.059931
-0.048131
-0.043028
-0.039839
-0.017197
-0.043985
-0.049088
-0.043028
-0.01337
-0.0105
-0.01337
-0.032186
-0.056104
-0.069498
-0.015283
-0.06025
-0.080341
-0.070136
-0.044942
-0.053871
-0.047174
-0.031229
-0.024851
-0.03091
-0.06599
-0.051958
-0.032823
-0.03378
-0.053234
-0.033461
-0.027402
0.12823
0.11643
0.11643
0.069547
0.04531
0.037656
0.03638
0.070503
0.11547
0.10813
0.069866
0.062531
0.043715
-0.027721
-0.062163
-0.061844
-0.057698
-0.055466
-0.089589
-0.073325
-0.064077
-0.032186
-0.009224
0.10718
0.10718
0.034148
0.0089539
0.030959
0.035423
0.059023
0.061255
0.020116
0.015332
-0.017197
-0.023575
-0.011775
-0.039839
-0.031867
-0.055785
-0.059293
0.0054459
0.076882
0.050412
0.06285
0.05392
0.0076782
0.052645
0.061574
0.024262
0.029045
-0.002208
-0.028996
-0.03665
-0.011137
-0.052277
-0.076514
-0.13105
-0.15433
-0.13232
-0.13998
-0.13743
-0.11542
-0.11446
-0.11606
-0.10394
-0.09533
-0.10904
-0.09533
-0.091503
-0.080341
-0.064077
-0.053552
0.004808
-0.015921
-0.015283
0.019478
0.019797
-0.011456
0.026813
0.070185
0.087087
0.095378
0.06859
0.061574
0.066358
0.062212
0.07146
0.072417
0.00066221
0.044672
0.040845
0.025537
0.029045
-0.0085862
-0.0089051
-0.03665
-0.064714
-0.071093
-0.050044
-0.027721
-0.060569
-0.055466
-0.04845
-0.045899
-0.016878
-0.022299
0.0057648
0.0016189
0.028407
0.033829
0.037018
0.075606
0.050412
0.064763
0.12631
0.094422
0.052645
0.039888
0.027451
0.075925
0.076882
0.079752
0.046266
-0.072049
0.0099106
0.011824
-0.024532
-0.039839
-0.062801
-0.060887
-0.10553
-0.073963
-0.10043
-0.10681
-0.095968
-0.082573
-0.074919
-0.050044
0.044991
0.090595
0.11292
0.084536
0.042758
0.053601
0.037018
0.048818
0.03925
0.077201
-0.026764
-0.060569
0.0073593
-0.012094
-0.097243
-0.14604
-0.15337
-0.16549
-0.17601
-0.1792
-0.15624
-0.16326
-0.14285
-0.11893
-0.092778
-0.044623
-0.023256
-0.02804
-0.025807
0.04818
0.088362
0.060936
0.06859
0.077201
0.11515
0.066358
0.088362
0.10526
0.13907
0.069866
0.036699
0.036699
0.022029
-0.016559
-0.047174
-0.08066
-0.096924
-0.043985
-0.03952
0.010548
0.0041702
-0.012413
2.4388e-05
0.022986
-0.020705
-0.011775
0.028407
0.042439
0.024899
-0.030591
0.013738
0.0095917
-0.0095429
-0.038564
-0.037607
-0.071093
-0.040158
-0.043028
-0.048131
-0.043028
-0.021343
0.011505
0.053282
0.076563
0.023943
0.030959
0.02171
0.034148
0.042121
0.0131
0.030321
0.09506
0.065082
0.0089539
-0.039202
0.0092728
0.07433
-0.00029452
-0.044623
-0.074601
-0.04845
-0.079065
-0.073963
-0.060569
-0.069179
-0.096286
-0.084806
-0.094692
-0.11032
-0.10171
-0.062163
0.0016189
-0.01337
-0.0095429
0.033191
0.098249
0.094741
0.05679
0.064444
0.063169
0.051369
0.11706
0.027132
0.10303
0.057747
0.017564
-0.0095429
-0.016559
-0.015283
-0.016559
-0.021343
-0.018791
0.019478
-0.0018891
-0.0031647
-0.010819
-0.002208
0.0003433
0.0038513
0.010548
-0.025488
0.023305
0.020754
-0.047812
-0.090546
-0.020386
-0.035056
-0.031548
-0.077152
-0.090227
-0.097243
-0.12467
-0.094373
-0.061844
-0.092778
-0.11446
-0.075557
-0.070774
-0.061525
-0.058017
-0.045899
0.03351
0.04531
0.052007
0.022667
0.019797
0.043396
0.064763
0.034148
0.025218
0.096973
0.058704
0.03351
0.019797
0.0095917
0.0073593
-0.017197
-0.041753
-0.043347
-0.011137
-0.0066727
-0.038883
-0.049088
-0.049407
-0.043985
-0.056104
-0.026445
-0.01911
-0.017197
-0.011775
0.022029
0.047223
0.0022568
0.021391
0.11164
0.14736
0.037975
0.096335
0.069547
0.12249
0.02458
0.048818
0.019159
0.0067215
0.0041702
-0.027721
-0.024213
-0.0085862
-0.050044
-0.087995
-0.10298
-0.080022
-0.075876
-0.069498
-0.036012
0.030002
0.058385
0.0041702
-0.00061343
0.023624
0.020754
0.004808
-0.014645
-0.031548
-0.02517
-0.02517
0.0022568
0.004808
-0.020705
-0.073006
-0.066309
-0.067903
-0.01337
-0.041434
-0.081298
-0.078109
-0.052915
-0.053871
-0.072687
-0.072049
-0.03378
-0.022937
-0.055147
-0.049726
-0.034737
-0.042072
-0.060887
-0.048131
-0.044304
-0.016878
0.0092728
0.0073593
0.0044891
0.0032135
0.0060837
-0.0066727
0.035104
0.047861
0.031915
0.042758
0.043396
0.030002
0.026494
0.032234
0.052645
0.011824
0.023624
0.0003433
-0.00061343
-0.011456
-0.041753
-0.010819
0.016608
0.11579
0.13173
0.099524
0.092827
0.089319
0.069228
0.070185
0.061893
0.072098
0.12057
0.12567
0.10813
0.052007
-0.0066727
-0.052277
-0.10075
-0.093097
-0.093416
-0.10266
-0.091822
-0.094373
-0.099794
-0.10522
-0.063758
-0.034737
-0.023575
-0.0047593
0.031915
-0.010819
-0.018791
-0.0044404
0.0060837
-0.0041214
0.071779
0.051688
-0.014964
-0.10777
-0.056423
0.040526
-0.0038025
-0.049088
-0.072687
-0.059612
-0.066628
-0.046218
-0.06025
-0.051639
-0.046218
-0.053234
-0.055147
-0.059293
-0.05132
-0.037288
-0.013689
0.030959
0.044353
0.014056
0.032234
0.0022568
0.034148
0.052963
0.032234
0.031596
0.037975
0.066995
0.10718
0.069866
0.016289
0.010867
0.026813
0.055515
0.058066
0.020435
0.026175
0.031596
0.024899
0.03064
0.0131
0.016289
-0.00061343
-0.026445
-0.052915
-0.06025
-0.056742
-0.040477
0.088362
0.082622
0.02777
0.062531
0.052963
0.05105
0.034786
0.069228
0.06859
0.046266
0.062531
0.1059
0.072417
0.0003433
-0.051001
-0.050682
-0.030591
-0.052596
-0.073644
-0.12084
-0.0864
-0.065352
-0.064395
-0.061525
-0.046536
-0.048769
-0.049088
-0.069179
-0.062163
-0.03378
-0.037926
0.017564
0.019159
0.027132
0.034467
0.0076782
-0.02804
-0.0041214
0.046266
0.034148
0.064125
0.0067215
0.023305
0.035742
0.028088
0.021072
0.026175
-0.017835
0.0013
-0.014008
-0.017835
-0.01624
-0.017516
-0.037926
-0.032186
0.0025757
0.014056
-0.011456
0.032234
-0.029634
-0.029634
-0.015283
-0.028996
-0.023575
-0.01337
-0.028996
-0.022618
-0.011775
-0.013051
-0.043028
-0.0105
-0.0050782
0.017564
-0.017197
-0.020705
-0.024851
0.015651
0.050731
0.0067215
0.028407
0.010867
0.012781
0.078157
0.058704
0.032234
0.028088
0.036061
0.055196
0.075606
0.057109
0.017883
0.058704
0.01597
-0.028359
-0.021024
-0.033142
-0.028678
-0.058017
-0.070774
-0.071093
-0.089908
-0.072368
-0.057698
-0.059931
-0.058336
-0.058017
-0.055785
-0.059612
-0.014645
0.032553
0.072417
0.054558
0.022986
-0.0012513
0.029364
0.020116
0.02171
0.062212
0.081028
0.064125
0.022667
0.049137
0.041164
-0.0063538
-0.036012
-0.035694
-0.03952
-0.050044
-0.048131
-0.067266
-0.083849
-0.073325
-0.085762
-0.079384
-0.088952
-0.072049
0.021072
0.0095917
-0.023575
-0.011137
0.0054459
0.012462
0.028726
0.05392
0.072098
0.071779
0.060617
0.03925
0.033829
0.008635
-0.049088
0.030959
0.081665
0.014375
-0.0050782
-0.0063538
-0.015921
-0.016559
-0.0098618
-0.0063538
-0.020067
0.04818
0.024262
-0.00093234
-0.0098618
0.023305
0.021391
0.008316
0.042758
0.065401
0.11164
0.082941
0.060298
0.0131
0.014375
0.0044891
0.036699
0.04818
-0.032186
-0.043985
-0.057698
-0.024532
-0.055785
-0.0864
-0.082892
-0.09533
-0.1049
-0.052277
-0.017516
-0.04845
-0.050044
-0.037607
-0.03665
-0.031867
0.008635
-0.014964
-0.036969
-0.012413
0.066358
0.081346
0.072736
0.061574
0.023624
-0.0085862
0.011505
0.074968
0.048499
0.008635
0.04531
0.013419
0.011824
-0.040158
-0.056423
-0.10107
-0.10681
-0.094054
-0.08353
-0.093735
-0.062801
-0.059931
-0.061206
-0.065671
-0.044942
-0.044623
-0.028996
-0.0098618
-0.002208
0.004808
0.037656
0.013738
0.014694
0.029045
0.038294
0.030959
0.044991
0.037656
0.027451
0.039888
0.036061
0.037975
0.044034
0.012781
0.013738
-0.02804
-0.020386
-0.019748
-0.053552
-0.10011
-0.057379
-0.043985
-0.075238
0.0051269
0.074012
0.053601
0.030959
0.057109
0.090276
0.084854
0.08326
0.1177
0.13556
0.12376
0.1228
0.060617
0.011824
0.010867
0.078157
0.015651
-0.038245
-0.049726
-0.014964
-0.072368
-0.047174
-0.048131
-0.085762
-0.08066
2.4388e-05
-0.021661
-0.052596
-0.042391
-0.041434
-0.064714
-0.062482
-0.041753
-0.059612
-0.097881
-0.009224
-0.02198
-0.044623
-0.060569
-0.05132
-0.043028
-0.040796
-0.041115
-0.048131
-0.016878
-0.013689
-0.023894
0.069228
0.056471
0.0070404
-0.028359
0.029683
0.026494
0.012462
0.040526
0.031278
0.05679
0.033191
-0.012094
-0.015283
-0.020067
-0.026126
-0.01624
-0.021024
-0.0082673
-0.0076295
0.00098112
-0.0031647
-0.0047593
0.019797
0.15183
0.15757
0.11419
0.23219
0.21019
0.14385
0.14226
0.12631
0.10718
0.075925
0.05105
0.075925
0.03064
0.058066
-0.0028458
-0.074919
-0.095011
-0.132
-0.13647
-0.15688
-0.15752
-0.13934
-0.14476
-0.13487
-0.12977
-0.13743
-0.13456
-0.1167
-0.11893
-0.11319
-0.076833
-0.062163
-0.057061
-0.057061
-0.044942
-0.00061343
0.013419
0.026494
0.052326
0.059342
0.10271
0.091552
0.075606
0.061574
0.057747
0.055515
0.052326
0.094741
0.10909
0.059661
0.028726
0.026494
0.047223
0.11547
0.11005
0.069228
-0.0085862
0.021391
0.018521
0.051688
0.051369
0.045629
0.031915
-0.026126
-0.027402
-0.046855
-0.057698
-0.061844
-0.032504
-0.06599
-0.040158
-0.038245
-0.043985
-0.049088
-0.062163
-0.031229
-0.037288
-0.048131
-0.050044
-0.041434
-0.029315
-0.011775
-0.016878
0.013738
-0.0076295
-0.030272
-0.029953
-0.075238
-0.073963
-0.066309
-0.033142
-0.036331
-0.062163
-0.04845
-0.023894
-0.047812
-0.039202
-0.018153
0.024262
0.081984
0.098249
0.081346
0.06572
0.059342
0.087087
0.078476
0.065401
0.057109
0.079433
0.026813
-0.031229
-0.014964
0.026175
-0.0089051
-0.0085862
-0.068541
-0.056104
-0.056742
-0.054828
-0.079065
-0.03378
2.4388e-05
0.037337
0.055515
0.034148
0.066358
0.045629
0.026813
0.028407
0.018521
0.046904
0.094422
0.055834
0.094422
0.11132
0.058704
0.008635
0.051688
0.043715
-0.0028458
-0.0079484
-0.0069916
-0.043028
-0.10107
-0.066628
-0.024851
-0.047812
-0.1049
-0.11223
-0.11574
-0.11032
-0.091184
-0.10139
-0.094054
-0.078109
-0.061844
-0.061844
-0.022299
0.056153
0.03925
0.0073593
0.076244
0.148
0.11675
0.10303
0.10303
0.11069
0.09793
0.13588
0.083898
0.066995
0.045629
-0.0047593
-0.009224
-0.043347
-0.066628
-0.13169
-0.12658
-0.10107
-0.0079484
0.0022568
-0.028359
-0.025488
-0.025488
-0.014008
0.0003433
0.018202
0.0054459
0.069547
0.020435
-0.0041214
-0.0015702
-0.061844
-0.050044
-0.044623
-0.081935
-0.10681
-0.11542
-0.097881
-0.083211
-0.081298
-0.065352
-0.06312
-0.027083
0.092189
0.079433
0.037018
0.028726
0.024899
0.030002
0.017564
0.054239
0.075925
0.078157
0.060617
0.041483
-0.03665
-0.040477
0.0025757
-0.044304
-0.064077
-0.084487
-0.091184
-0.097243
-0.098838
-0.10394
-0.054509
-0.058655
-0.051958
-0.064714
-0.076833
-0.029953
0.014056
0.019478
0.030321
0.037656
0.030002
0.02777
0.045947
0.066358
0.1059
0.071779
0.063806
0.049774
0.024899
0.048818
0.02458
-0.0050782
-0.0018891
0.01884
0.035742
0.040207
0.062531
0.061574
0.035423
-0.0041214
-0.010181
-0.024851
0.10271
0.10845
0.064125
0.070503
0.020116
0.069866
0.043715
0.031278
0.040845
0.016289
0.010867
0.0028946
0.0038513
-0.049088
-0.092778
-0.12531
-0.089589
-0.087357
-0.11383
-0.12435
-0.11574
-0.11128
-0.10936
-0.075876
-0.045261
-0.0015702
0.032553
0.035423
0.044034
0.0076782
0.032872
0.074012
0.092189
0.066039
0.021391
-0.0041214
-0.0079484
0.019478
-0.033142
-0.005716
-0.069179
-0.081617
-0.083211
-0.079065
-0.096924
-0.098519
-0.091503
-0.10107
-0.10553
-0.094373
-0.10362
-0.075557
-0.058336
-0.043028
-0.054828
0.0073593
0.068271
0.025856
0.030959
0.03351
0.10399
0.10431
0.081028
0.14098
0.13269
0.055834
0.098249
0.063806
0.018202
0.042121
0.092827
0.061574
0.032553
0.0076782
0.0016189
-0.035056
-0.040158
-0.00029452
0.030321
0.014375
-0.017516
-0.017197
-0.020067
-0.031229
-0.058655
-0.043985
-0.071093
-0.040158
0.0019378
-0.044623
-0.029634
0.049455
-0.0050782
-0.0044404
-0.022299
0.0032135
-0.00093234
0.016608
0.03351
0.0067215
0.0044891
-0.029953
-0.01624
-0.012094
-0.029315
-0.044304
-0.0028458
-0.021024
-0.011456
-0.026126
-0.02804
-0.050682
-0.064077
-0.026445
-0.052277
-0.036331
-0.022937
-0.059293
-0.10713
-0.071093
-0.056104
-0.071093
-0.06886
0.015651
0.0131
0.0028946
0.014375
0.0028946
0.031915
0.065082
0.1008
0.14258
0.13811
0.14449
0.091552
0.13811
0.11069
0.10303
0.10239
0.041802
0.052007
0.054239
0.058385
0.035742
-0.011775
-0.028996
-0.043985
-0.090546
-0.066309
0.0038513
0.038612
0.020435
-0.026445
-0.047493
-0.052277
-0.029953
-0.017835
0.019478
0.043396
-0.0060349
-0.0044404
-0.0044404
0.021391
-0.016559
-0.066947
-0.075557
-0.091503
-0.088952
-0.10394
-0.0982
-0.086081
-0.06025
-0.09246
-0.13998
-0.052277
-0.053234
-0.039202
0.0035324
0.00098112
-0.012094
-0.00061343
0.037975
0.061574
0.045629
0.043396
0.039569
0.046904
0.030959
0.036699
0.061893
0.086449
0.045629
0.035423
0.023305
-0.0105
-0.012094
-0.0044404
0.055515
0.025218
-0.031229
-0.0060349
0.0028946
0.052645
0.01597
0.033829
0.016927
0.051369
0.08613
0.098886
0.12185
0.10335
0.048499
0.017246
0.067952
0.084217
0.043077
0.01597
-0.041434
-0.057698
-0.074919
-0.074282
-0.088952
-0.11702
-0.11415
-0.092778
-0.081298
-0.10904
-0.10522
-0.10298
-0.069179
-0.082573
-0.023575
-0.022618
-0.067266
-0.097562
-0.091184
-0.040477
-0.034099
-0.039839
-0.039839
-0.038245
-0.028359
-0.046218
0.025537
0.015013
-0.026764
-0.034099
-0.025807
0.0051269
-0.014645
0.01023
0.015332
0.00098112
0.057109
0.042439
0.0044891
0.00098112
0.023305
0.028726
0.03064
0.047542
0.052963
0.037018
0.011505
0.012143
0.021072
0.025856
0.0051269
0.035104
0.042439
0.01884
0.0032135
-0.046218
-0.059931
-0.046218
-0.0018891
0.047542
0.050412
0.013738
-0.011775
-0.028996
-0.0063538
0.0099106
0.047223
0.043396
0.0095917
0.073055
0.11164
0.040207
0.019478
0.02458
0.033829
0.082303
0.12886
0.077838
-0.010181
0.012462
0.031915
-0.0073105
-0.066947
-0.060569
-0.088952
-0.086719
-0.10585
-0.07779
-0.09246
-0.0864
-0.10266
-0.097243
-0.058974
-0.031867
-0.059293
-0.061525
-0.046855
-0.043028
-0.018472
-0.020067
-0.040158
-0.043985
-0.020705
-0.05132
-0.054509
-0.070774
0.058385
0.025218
-0.00061343
0.028726
0.049137
0.010548
-0.0089051
0.023943
0.052326
0.066039
0.069547
0.034467
-0.0041214
0.0070404
0.01023
0.0016189
0.05392
0.01597
-0.034737
-0.023575
0.0131
0.050093
0.032872
0.17
0.28672
0.27046
0.22741
0.12791
0.048818
0.03638
0.17798
0.20285
0.1716
-0.0018891
0.0038513
0.036699
-0.0085862
-0.075557
-0.13679
-0.21492
-0.22162
-0.23852
-0.24522
-0.24968
-0.24809
-0.24235
-0.23023
-0.21205
-0.1977
-0.19036
-0.17442
-0.14476
-0.12945
-0.1151
-0.096924
-0.087357
-0.067903
-0.022937
-0.0015702
-0.00029452
-0.0041214
0.004808
0.0044891
0.035104
0.045629
0.017564
0.053601
0.042758
0.039569
0.043077
0.088362
0.081984
0.055196
0.076563
0.055515
0.075606
0.10845
0.10239
0.19647
0.21848
0.21975
0.30809
0.23123
0.18499
0.19105
0.19201
0.16841
0.1244
0.080071
0.16107
0.13046
0.091233
0.077201
0.016608
0.014056
-0.064395
-0.12212
-0.13519
-0.11797
-0.088314
-0.072687
-0.062163
-0.10617
-0.11096
-0.088633
-0.096924
-0.088633
-0.11574
-0.14221
-0.15433
-0.14317
-0.17123
-0.13998
-0.15018
-0.13902
-0.08927
-0.11542
-0.099157
-0.076195
-0.074601
-0.072368
-0.078427
-0.057379
-0.052596
-0.036969
-0.034099
-0.043985
-0.046855
-0.042072
-0.033142
-0.00093234
0.055515
0.09187
0.061574
0.067952
0.099843
0.13588
0.14258
0.13779
0.094103
0.067314
0.11993
0.10016
0.089957
0.097292
0.031915
-0.009224
-0.023894
-0.018472
-0.035694
-0.035694
-0.041115
-0.080979
-0.093416
-0.058336
-0.051639
-0.010819
0.050731
0.010867
-0.012413
0.069866
0.11483
0.11419
0.13205
0.089638
0.077838
0.090595
0.10782
0.13524
0.13205
0.081984
0.077201
0.030002
-0.033142
0.015013
-0.015921
-0.086081
-0.10553
-0.12276
-0.1049
-0.10171
-0.11
-0.1269
-0.11159
-0.0982
-0.1033
-0.071093
-0.036969
-0.046855
-0.064077
-0.044304
0.010867
0.032872
-0.015283
0.0044891
-0.018791
-0.01337
0.03351
0.052645
0.023943
0.027451
-0.022618
0.017564
0.022986
0.018202
-0.035375
-0.045899
0.0079971
0.035742
0.020435
-0.042072
-0.05419
-0.047812
-0.053234
-0.075557
-0.068541
-0.021343
-0.040796
-0.053871
-0.016559
-0.0044404
-0.042072
-0.065352
-0.02517
-0.016878
-0.028359
-0.035694
0.025218
0.0076782
0.0054459
0.037656
0.030321
0.033829
0.041483
0.12025
0.23538
0.18117
0.12025
0.079752
0.057109
0.053282
0.032553
0.048499
0.081028
0.021391
-0.028678
-0.065033
-0.045899
-0.071093
-0.11159
-0.14412
-0.14189
-0.12084
-0.042072
0.011186
-0.018791
-0.043666
-0.038883
-0.036331
0.029045
0.031278
0.018202
0.033829
-0.0018891
-0.064714
0.03351
0.045947
0.0064026
-0.028359
-0.072049
-0.066628
-0.025488
-0.028996
-0.02198
0.035742
-0.0012513
-0.026764
-0.03378
-0.025807
-0.05132
-0.045261
0.021391
0.040207
-0.0044404
-0.014645
0.00098112
-0.0089051
-0.010819
-0.013689
0.023943
0.01884
0.014694
0.030002
0.0131
0.008316
0.030002
0.10239
0.032872
0.028407
0.035104
0.031596
0.019797
0.017564
0.035423
0.016608
0.0035324
-0.016559
0.014056
-0.0060349
-0.010181
0.090595
0.059023
0.030959
0.017246
-0.00093234
-0.0038025
-0.00029452
0.027132
0.061255
0.12599
0.10686
0.021391
0.074012
0.048499
-0.03378
-0.025488
-0.043985
-0.043985
-0.057698
-0.071093
-0.062163
-0.10553
-0.12913
-0.079065
-0.059612
-0.082892
-0.087038
-0.087676
-0.1049
-0.096605
-0.084168
-0.073006
-0.054828
-0.032823
-0.012413
-0.021024
-0.029315
-0.056423
-0.044304
0.12312
0.1818
0.11324
0.082622
0.065082
0.037337
0.037018
0.11037
0.099205
0.01884
0.032553
0.075925
-0.0069916
-0.047493
-0.070774
-0.073644
-0.089908
-0.10585
-0.10011
-0.090546
-0.036012
0.027132
0.011186
-0.0085862
0.011824
0.040207
-0.00061343
0.063169
0.052326
0.0070404
0.019478
0.035104
0.0076782
0.016927
0.020435
0.059342
-0.023575
-0.020067
-0.014964
-0.023575
0.014375
0.014056
-0.024213
-0.0069916
0.021072
-0.0041214
-0.029953
-0.038883
-0.043028
-0.019429
-0.031548
-0.011137
-0.0105
-0.018153
-0.037607
-0.023894
-0.026445
-0.037288
-0.024532
-0.033142
-0.047493
-0.052915
-0.06312
-0.051001
-0.046536
-0.023575
-0.020386
-0.045899
-0.057379
-0.038245
-0.02804
0.084536
0.1059
0.074649
0.07752
0.062212
0.09187
0.064444
0.057109
0.040526
0.008316
0.01023
0.010867
-0.014327
-0.057379
-0.06312
-0.063758
-0.075876
-0.081617
-0.10745
-0.083849
-0.067266
-0.021343
-0.0041214
0.025218
0.064763
0.070185
0.063806
0.10782
0.092508
0.08039
0.10782
0.087725
0.081028
0.08326
0.047861
-0.0098618
-0.047174
0.015651
0.054877
-0.026764
-0.097243
-0.10777
-0.13487
-0.13105
-0.12882
-0.10617
-0.073006
-0.0079484
2.4388e-05
0.00098112
-0.026126
-0.020067
0.03064
0.037656
0.053601
0.035742
0.028726
0.041164
0.090595
0.1582
0.093784
0.064444
0.052963
0.064763
0.047223
0.030959
0.013419
0.015332
0.014375
-0.011137
-0.012413
-0.033461
-0.064714
-0.075876
-0.083849
-0.061844
-0.08353
-0.074919
-0.1202
-0.042391
-0.017516
-0.016878
-0.022299
-0.01911
-0.049726
-0.046536
-0.01337
0.0016189
0.0044891
-0.0050782
-0.029953
-0.025488
-0.044304
-0.014008
-0.031867
-0.034099
-0.047812
-0.043028
0.046585
0.038612
-0.0095429
-0.018472
0.060617
0.054877
0.0067215
-0.018472
-0.028678
2.4388e-05
-0.0034836
0.008635
0.035104
0.036061
0.0041702
-0.020386
-0.01624
-0.0095429
0.0003433
0.0095917
-0.00093234
0.01023
-0.0063538
0.0073593
0.0079971
0.10973
0.11866
0.056471
0.083579
0.088362
0.079752
0.056153
0.050412
0.056471
-0.010181
0.043077
0.097611
0.067314
0.004808
-0.046855
-0.085762
-0.13041
-0.12626
-0.13743
-0.15752
-0.14636
-0.14253
-0.072049
-0.0864
-0.10043
-0.10266
-0.091822
-0.052915
-0.013689
0.022986
0.09506
0.075925
0.037018
0.017246
0.022986
0.037018
0.0003433
0.016927
0.021391
0.05392
0.022986
-0.033142
-0.017516
0.062531
0.015332
-0.032186
-0.042391
-0.05132
-0.079703
-0.02198
-0.0053971
-0.010819
0.022029
0.033829
0.051369
0.008635
0.016608
0.0076782
-0.02517
0.01023
0.070822
0.069547
0.054239
-0.0018891
-0.049726
-0.0031647
-0.0041214
-0.067585
-0.061525
-0.052915
-0.06599
-0.04271
-0.025807
-0.0047593
-0.0085862
0.020435
0.053282
0.037018
0.043396
0.047542
0.051369
0.069547
0.089638
0.074649
0.075925
0.038294
0.0095917
-0.024851
-0.062801
-0.079703
-0.037607
-0.06312
-0.088952
-0.07173
-0.060569
-0.075876
-0.074282
-0.068541
-0.064714
-0.055466
-0.054828
-0.0069916
0.079433
0.13811
0.11675
0.061574
0.053601
0.051369
0.074968
0.081028
0.11292
0.1126
0.020435
0.072736
0.09506
0.071141
0.025537
-0.017835
-0.049726
-0.064395
0.018521
0.039569
0.018521
0.0003433
-0.025488
-0.0066727
-0.0015702
0.010548
0.021072
-0.035056
-0.025807
-0.030272
0.004808
0.0035324
-0.033142
-0.047812
-0.063758
-0.079384
-0.068222
-0.062482
-0.086719
-0.0864
-0.050682
-0.03952
-0.082892
-0.057698
-0.054509
-0.057379
-0.082254
-0.087676
-0.091184
-0.087995
-0.047493
-0.039839
-0.04845
-0.028996
0.038931
0.036699
0.021391
0.015651
0.051369
0.050731
0.081665
0.14034
0.10271
0.078795
0.12759
0.1244
0.058704
0.037337
0.080709
0.066039
0.064763
0.026175
0.023624
0.018521
0.024899
0.034467
-0.018153
-0.06599
-0.0047593
-0.032504
-0.071093
-0.005716
-0.028359
-0.05419
-0.046218
-0.028678
-0.011456
-0.060569
0.0003433
0.069228
0.026494
0.0019378
-0.044623
-0.015602
0.00098112
-0.01624
-0.022299
0.038294
0.03925
-0.04845
-0.085762
-0.05132
-0.034099
-0.015921
-0.049088
-0.051958
-0.0073105
-0.015921
-0.015602
0.018521
0.022348
0.00098112
0.042121
0.029683
-0.020386
-0.014327
-0.027721
-0.033461
-0.027721
-0.019748
0.0032135
-0.0015702
0.011505
0.030002
0.0060837
0.0076782
0.02171
0.052007
0.067952
0.067952
0.066358
0.058066
0.060617
0.031915
-0.0041214
-0.030591
0.0131
0.0095917
-0.0076295
-0.031229
-0.037288
-0.051958
-0.034099
-0.056104
-0.085762
-0.042391
-0.049088
-0.074919
-0.055466
-0.055147
-0.061206
-0.041115
0.0070404
-0.0060349
0.020754
0.0051269
0.0064026
-0.002208
0.008316
0.022348
0.01023
0.0019378
0.041483
0.073374
0.054239
0.028726
-0.013051
0.028407
0.013738
0.0022568
-0.0069916
-0.013051
-0.028678
0.075606
0.10526
0.05105
0.060617
0.071141
0.050093
0.043077
0.051688
0.076244
0.084854
-0.0044404
-0.014645
-0.0031647
-0.0089051
-0.034418
-0.044304
-0.081617
-0.10139
-0.089908
-0.079065
-0.077471
-0.060887
-0.077471
-0.088314
-0.084168
-0.076195
-0.059931
-0.073644
-0.069817
-0.055466
-0.0079484
-0.035056
-0.02804
0.020116
0.018521
0.021391
0.0067215
-0.0079484
0.023305
0.028726
0.0131
0.041164
0.028407
0.011824
0.019159
0.028407
0.010548
0.004808
-0.0044404
-0.010181
0.0064026
0.048499
0.096016
0.052645
0.1008
0.06285
0.053601
0.058704
0.074968
0.08613
0.092189
0.094741
0.023305
-0.0031647
0.044034
0.046266
0.024262
0.023624
0.0089539
-0.03091
-0.029634
-0.020386
0.0076782
-0.02804
-0.05132
-0.050682
-0.031548
-0.0044404
-0.032186
-0.060569
-0.056742
-0.03378
-0.029315
-0.070455
-0.095011
-0.071411
-0.045261
-0.054509
-0.069817
-0.076195
-0.0864
-0.082254
-0.078746
-0.055147
-0.047174
-0.052596
0.024899
0.023624
-0.0069916
-0.012094
0.021391
0.026175
0.029364
0.011186
0.041164
0.081346
0.052326
0.032234
-0.0105
-0.0050782
0.0044891
-0.035056
-0.057379
-0.058655
-0.080341
-0.0047593
-0.020386
-0.041434
-0.016559
0.0016189
0.0051269
-0.0073105
0.0003433
0.039888
0.12472
0.12185
0.078476
0.076244
0.042758
0.074012
0.079752
0.080709
0.09187
0.12249
0.15374
0.21625
0.15693
0.052963
0.019478
0.024262
0.027451
0.018202
0.0028946
-0.012732
-0.10745
-0.049726
-0.05419
-0.074282
-0.11191
-0.13679
-0.13456
-0.12467
-0.12148
-0.10617
-0.1033
-0.070136
-0.029315
-0.05132
0.014375
-0.0073105
-0.025488
0.0019378
0.089
0.10622
0.11324
0.059979
0.09187
0.075925
0.019159
0.05679
0.070503
0.052963
-0.032186
-0.03665
0.013419
0.017564
-0.062801
-0.12116
-0.13838
-0.12403
-0.12339
-0.12563
-0.12467
-0.11542
-0.097881
-0.043028
-0.0028458
-0.024532
-0.020067
-0.0063538
0.014375
0.024899
0.045629
0.049774
0.067633
0.053601
0.049137
0.069228
0.09187
0.10941
0.13014
0.088681
0.049137
0.025537
0.053282
0.057109
0.11132
0.072098
0.056153
0.0044891
-0.0105
-0.044623
-0.054828
-0.050044
-0.07779
-0.063439
-0.066947
-0.068541
-0.097243
-0.11574
-0.10585
-0.0982
-0.10841
-0.12467
-0.10904
-0.087676
-0.019429
0.018202
0.011186
0.031596
0.042121
0.031596
0.085811
0.092189
0.12886
0.15151
0.079752
0.072417
0.079114
0.1228
0.086449
0.042439
-0.033142
0.0060837
-0.02198
-0.061844
-0.061844
-0.053552
-0.061206
-0.073963
-0.08927
-0.083211
-0.051639
-0.06025
-0.057379
-0.035694
-0.039202
-0.0085862
0.023305
-0.011137
-0.022299
-0.029315
-0.029315
-0.00093234
0.015651
0.0089539
0.02777
0.008316
0.079114
0.062531
0.057747
0.063806
0.067633
0.042121
0.032234
0.019478
0.092189
0.069547
0.037018
0.011505
-0.0028458
-0.0060349
-0.020705
-0.052277
2.4388e-05
0.016927
0.012462
-0.040477
-0.099476
-0.097243
-0.04271
-0.020067
-0.0031647
0.037656
0.034786
-0.014645
0.011505
0.01884
0.02458
0.013419
0.023624
0.055834
0.12823
0.079114
0.062531
0.0089539
0.0019378
-0.00061343
-0.052915
-0.035694
-0.0085862
-0.057698
-0.067903
-0.074601
-0.067903
-0.069817
-0.086719
-0.082892
-0.099476
-0.073325
-0.002208
0.037337
0.032234
0.0051269
-0.0018891
0.0060837
0.0064026
-0.011137
-0.012094
-0.0105
-0.0028458
0.0051269
-0.013051
-0.052277
-0.065033
-0.052596
-0.06886
-0.073325
-0.080979
-0.049726
0.059023
0.040845
-0.017835
-0.028678
-0.011775
-0.012094
0.050412
0.069547
0.05679
0.055196
0.065401
0.098249
0.088681
0.048499
0.03351
0.0041702
-0.023894
0.044034
0.10399
0.055196
0.017883
-0.03378
-0.020705
-0.022299
-0.036969
-0.043347
-0.041753
-0.034737
-0.027083
-0.063758
-0.08353
-0.076195
-0.062801
-0.077471
-0.090865
-0.099794
-0.10107
-0.091503
-0.095649
-0.081298
-0.043347
-0.017835
-0.048131
-0.054509
-0.0031647
-0.00061343
0.014694
-0.0076295
0.02458
0.039888
0.077838
-0.0098618
0.0032135
0.085492
0.040207
0.012781
0.032872
0.024899
-0.020067
-0.019748
-0.0044404
-0.00029452
0.008316
0.017564
0.039888
0.023624
-0.047493
-0.022618
-0.015921
-0.009224
0.14226
0.23347
0.2357
0.18212
0.14162
0.14194
0.12759
0.15438
0.17542
0.17192
0.095697
0.1346
0.14353
0.071779
-0.039839
-0.082573
-0.14349
-0.13743
-0.1454
-0.16549
-0.17793
-0.13679
-0.16772
-0.1623
-0.14317
-0.12913
-0.11446
-0.099794
-0.080022
-0.13105
-0.066309
-0.033142
-0.023894
-0.064714
-0.0864
-0.029634
-0.027721
-0.018153
-0.022937
-0.015921
-0.00029452
-0.012413
-0.013689
-0.018791
-0.060887
-0.027402
-0.0050782
-0.0053971
-0.033461
-0.052915
-0.077471
-0.095011
-0.077471
-0.059293
-0.036012
-0.017516
0.020116
0.054239
0.051369
0.1008
0.11675
0.13269
0.10782
0.15725
0.14672
0.12408
0.13971
0.082622
0.043715
0.088681
0.04531
0.051369
0.030002
-0.034737
-0.041434
-0.04271
-0.022299
-0.053871
-0.082573
-0.082573
-0.069498
-0.042391
-0.028678
-0.039202
-0.050363
-0.072368
-0.0085862
0.0064026
-0.024851
-0.00093234
0.090914
0.037975
0.004808
0.036061
0.065082
0.10239
0.043077
0.055515
-0.0044404
-0.023256
0.037018
-0.0098618
-0.0050782
-0.033142
-0.069498
-0.088633
-0.087357
-0.087676
-0.091503
-0.094692
-0.093735
-0.076833
-0.091184
-0.059293
-0.053552
-0.062801
-0.034099
-0.047493
-0.046855
-0.056423
0.039888
0.10239
0.043396
0.016289
0.02777
0.03351
0.041164
0.036699
0.084854
0.13333
0.089638
0.049455
0.10941
0.081346
0.040845
0.050093
0.067633
0.072736
0.03351
0.031278
-0.016559
-0.025488
0.0064026
0.0092728
-0.024851
-0.073006
-0.099157
-0.098838
-0.10266
-0.1202
-0.13998
-0.13966
-0.12339
-0.12212
-0.11191
-0.098838
-0.10075
-0.067903
0.019159
0.064763
0.057428
0.033829
0.040207
0.052963
0.04531
0.029683
0.032872
0.054877
0.078476
0.071141
0.013738
0.0022568
0.031596
0.012143
-0.019748
-0.031867
-0.0073105
0.0131
0.069547
0.099205
0.059023
0.050093
0.014694
0.032553
0.050412
0.042439
-0.017835
-0.034099
0.18659
0.20763
0.065082
-0.0018891
0.0060837
-0.010181
-0.022618
0.03638
0.076882
0.097292
0.035104
0.011505
0.017246
-0.023256
-0.040158
-0.031867
-0.05132
-0.049088
-0.061525
-0.050044
-0.066947
-0.059612
-0.034737
-0.085762
-0.08353
-0.068541
-0.056104
-0.042391
-0.050682
-0.072049
-0.052277
-0.05132
-0.041753
0.02171
-0.00061343
-0.029953
-0.049726
-0.057698
-0.012413
0.022986
-0.014645
0.0070404
0.021391
0.023305
0.0064026
0.00066221
-0.037607
-0.055466
-0.036012
-0.0066727
-0.016559
-0.043666
-0.071411
-0.021024
-0.022937
-0.027083
-0.064077
-0.081617
-0.073644
-0.070774
-0.066628
-0.067585
-0.065033
-0.058336
-0.037926
0.026175
0.059661
0.051369
0.089957
0.096973
0.059342
0.081984
0.088681
0.094422
0.14321
0.056471
0.14194
0.10845
0.12599
0.050093
-0.005716
0.031596
0.030002
-0.0073105
0.0013
0.034467
0.026175
-0.026764
-0.032823
-0.052915
-0.063758
-0.031548
-0.042072
-0.044304
-0.071411
-0.064077
-0.094054
-0.10235
-0.057379
-0.043028
0.027132
-0.0066727
-0.022937
0.015013
0.037018
0.049137
0.07433
0.10877
0.14321
0.13237
0.14003
0.11101
0.09506
0.083579
0.033829
0.030002
0.051688
0.059661
0.040526
-0.037926
-0.043985
-0.012732
-0.0028458
-0.023575
-0.11096
-0.14572
-0.092141
-0.10235
-0.079703
-0.076833
-0.12084
-0.063758
-0.07779
-0.11159
-0.066947
-0.0105
-0.0105
-0.012732
-0.014327
-0.034418
-0.0098618
-0.016878
0.049455
0.0028946
-0.02198
0.008635
-0.022937
-0.053871
-0.056423
-0.05132
-0.065352
-0.06886
-0.01624
-0.042391
-0.030272
-0.0073105
-0.028678
-0.027721
-0.0089051
-0.018472
-0.017516
-0.04558
-0.015283
-0.018472
-0.018153
-0.020386
-0.01624
-0.035375
-0.032504
0.0095917
0.070185
0.078157
0.066039
0.082303
0.066358
0.12025
0.12504
0.12408
0.14385
0.17957
0.14896
0.1177
0.072098
0.10495
0.059661
0.020754
0.09506
0.041802
0.012781
-0.015921
-0.036012
-0.088952
-0.083211
-0.071411
-0.081617
-0.12626
-0.13105
-0.10107
-0.0864
-0.070774
-0.074601
-0.020067
-0.014964
-0.026764
0.0067215
0.064125
0.045629
-0.015283
0.016289
0.075606
0.048818
0.019159
0.076882
0.01597
-0.06599
-0.045261
-0.0015702
-0.038883
-0.068222
-0.058974
-0.058974
-0.072687
-0.077471
-0.066947
-0.062482
-0.066628
-0.057698
-0.056104
-0.056742
-0.05419
-0.020386
-0.022937
-0.034099
-0.037926
-0.036331
0.008316
0.031278
0.039569
0.054877
0.044991
0.048818
0.020754
0.043077
0.052007
0.04531
0.11132
0.11132
0.099843
0.061574
0.044353
0.054877
0.046904
0.024262
-0.02804
0.03925
0.028407
0.0076782
0.0064026
-0.0076295
-0.081935
-0.066947
-0.061206
-0.063758
-0.079703
-0.047174
-0.043028
-0.032504
-0.021024
-0.014008
-0.0105
0.0044891
0.024899
0.021072
-0.024213
-0.005716
0.023943
0.013419
-0.0063538
-0.021024
-0.045899
-0.067266
-0.058017
-0.041753
-0.044942
-0.039202
-0.036331
-0.031229
-0.020067
0.0041702
0.0032135
0.012781
0.019478
0.041164
0.029364
0.025856
0.022986
0.0099106
0.088362
0.074968
0.10335
0.080071
0.011824
0.029683
0.034467
0.055834
0.11611
0.11675
0.096016
0.079752
0.056471
0.023624
0.067633
0.059661
0.050731
0.026175
0.017883
0.029364
0.015013
-0.011456
0.029364
0.043396
0.038294
0.022667
-0.0041214
-0.04845
-0.023894
-0.039839
-0.053871
-0.049088
-0.087357
-0.090865
-0.068222
-0.07173
-0.062482
-0.076514
-0.095011
-0.075876
-0.086719
-0.076514
-0.079703
-0.063758
-0.060887
-0.02517
-0.041753
-0.04271
-0.030272
-0.0060349
-0.03665
-0.035056
0.00098112
0.0038513
2.4388e-05
-0.012094
-0.0105
0.0028946
0.015332
-0.0066727
0.026175
0.02458
0.010548
-0.013689
-0.028996
-0.02517
-0.027721
-0.042391
-0.02517
-0.026445
-0.031229
-0.034099
-0.0050782
-0.0047593
0.0041702
0.089638
0.077201
0.057109
0.049137
0.022029
0.04818
0.07433
0.053601
0.030959
0.041483
0.046585
0.062212
0.040207
0.080071
0.044034
0.022348
0.10239
0.079114
0.032872
0.031596
0.052963
0.037018
0.024899
0.01597
-0.017197
-0.049088
-0.017197
-0.0031647
-0.059612
-0.092778
-0.089589
-0.037926
-0.025807
-0.044304
-0.057698
-0.070774
-0.062801
-0.065671
-0.056423
-0.039202
-0.019429
-0.044304
-0.055785
-0.043985
-0.050682
-0.074919
-0.021024
0.038294
0.020435
0.03351
0.02777
0.032872
0.018202
0.043077
0.084536
0.11547
0.070185
0.032553
0.052326
0.048499
0.068271
-0.0028458
0.0028946
-0.012094
0.010548
0.059342
0.052326
0.03064
0.036699
0.054877
0.030002
0.073055
0.058385
0.028407
0.038612
0.0060837
-0.0063538
0.0054459
-0.024851
-0.022299
-0.0063538
-0.052915
-0.11159
-0.076833
-0.10809
-0.085125
-0.052596
-0.083849
-0.10745
-0.09533
-0.046855
-0.078427
-0.10585
-0.053552
-0.032186
-0.04845
-0.06025
-0.053234
-0.072049
-0.051958
-0.035056
-0.030272
-0.040796
-0.065352
-0.051639
-0.058017
-0.047812
-0.055785
-0.058336
-0.059931
-0.052277
-0.055147
-0.024532
-0.021024
-0.011456
0.0051269
0.0035324
-0.0082673
0.013419
0.028726
0.033191
0.051369
0.081028
0.055515
0.050412
0.052645
0.095697
0.10431
0.16873
0.18308
0.11069
0.099205
0.096335
0.13205
0.093465
0.025218
0.039569
0.035742
0.043077
0.030321
-0.035375
-0.080341
-0.086719
-0.065033
-0.078746
-0.07779
-0.024532
-0.013689
-0.035056
-0.029315
0.0013
-0.0053971
-0.014645
0.031596
0.10271
0.082622
0.093784
0.088681
0.019797
0.032234
0.072098
0.028407
0.014375
0.042758
0.055515
0.0131
0.010548
-0.0012513
-0.046855
-0.069817
-0.040477
-0.063758
-0.070136
-0.10617
-0.15018
-0.11893
-0.11542
-0.082573
-0.035375
-0.023575
-0.03378
-0.047174
-0.04558
-0.035056
-0.044304
-0.033461
-0.005716
-0.0018891
-0.014327
-0.0050782
-0.041434
-0.072049
-0.052915
-0.043028
-0.062163
-0.070774
-0.050044
-0.034099
-0.044304
-0.0076295
0.0003433
-0.0038025
0.012462
0.0092728
0.027451
0.05105
0.069866
0.08039
0.079752
0.070503
0.15214
0.21242
0.16586
0.11515
0.12472
0.15757
0.18308
0.148
0.14385
0.12599
0.10909
0.052963
0.017564
-0.052915
-0.01624
-0.055466
-0.075557
-0.10585
-0.13838
-0.15784
-0.13774
-0.132
-0.12084
-0.11415
-0.1336
-0.12499
-0.11064
-0.091503
-0.085443
-0.087038
-0.082254
-0.090865
-0.091184
-0.062801
-0.04845
-0.065033
-0.024851
0.016608
0.022029
0.031915
0.023624
0.0076782
0.01023
0.031596
0.03638
0.11356
0.072098
0.03925
-0.020705
-0.011775
0.048499
0.030321
-0.01911
-0.031548
-0.015283
-0.0044404
-0.021024
-0.024532
0.0060837
0.12153
0.11388
0.095378
0.084536
0.08613
0.050731
0.027451
0.089638
0.12472
0.25101
0.1193
0.092508
0.11483
0.050412
-0.00061343
-0.0047593
2.4388e-05
-0.0025269
-0.019429
-0.076514
-0.056104
-0.080979
-0.1151
-0.086719
-0.078427
-0.054509
-0.063758
-0.071093
-0.046855
-0.043028
-0.0015702
0.038294
0.016608
-0.029315
-0.00093234
0.017564
0.008635
-0.015921
-0.028996
-0.035056
-0.016878
-0.035694
-0.060569
-0.063439
-0.055785
-0.03665
-0.012094
0.011186
0.050412
0.028726
0.024899
0.046266
0.027132
0.053282
0.094741
0.10495
0.059979
0.041164
0.045947
0.043396
0.04531
0.029045
0.028088
-0.032504
-0.011456
-0.029315
-0.012413
0.061893
0.0028946
-0.040796
-0.051639
-0.051001
-0.085762
-0.065671
-0.082573
-0.045899
-0.067266
-0.085443
-0.085762
-0.078746
-0.095649
-0.089908
-0.071411
-0.09246
-0.087676
-0.040796
-0.015283
-0.0031647
0.046904
0.023305
0.071141
0.06285
0.072736
0.13492
0.16873
0.12823
0.13939
0.091552
0.085811
0.043396
0.043715
0.063806
0.029045
-0.042072
-0.062482
-0.098519
-0.12148
-0.093735
-0.11159
-0.1454
-0.13966
-0.12435
-0.045261
-0.028678
0.008635
-0.0031647
0.020435
0.08039
0.061255
0.057747
0.050093
0.030002
0.004808
0.081028
0.094741
0.078795
0.0041702
-0.031548
-0.092778
-0.046218
-0.002208
0.0067215
0.011824
-0.029953
-0.06886
-0.076514
-0.076514
-0.088952
-0.066947
-0.075238
-0.085125
-0.045899
-0.037288
-0.061206
-0.065671
-0.098838
-0.073644
-0.061206
-0.036969
-0.036331
-0.03665
-0.035694
-0.037288
-0.026445
-0.017835
-0.0063538
0.0092728
0.012143
0.014694
-0.00061343
0.0079971
0.03351
0.046904
0.042439
0.075606
0.07146
0.073055
0.044034
0.053601
0.076882
0.097611
0.075606
0.0054459
-0.009224
0.0003433
0.016289
0.00098112
0.020754
-0.016878
-0.033461
-0.043028
-0.047174
-0.010181
-0.01911
-0.029315
-0.023894
0.0095917
-0.023256
-0.041753
-0.036012
-0.017835
-0.012094
-0.0025269
0.023624
0.040526
0.078157
0.071779
0.038931
0.03638
0.048818
0.075287
0.064125
0.022348
0.040207
0.037018
0.035104
-0.005716
-0.030272
0.0038513
-0.018153
-0.040796
-0.064714
-0.077152
-0.019748
0.026175
-0.014645
-0.03378
-0.0063538
-0.028359
-0.018791
-0.013051
-0.01624
0.0016189
-0.011775
-0.0015702
-0.012094
-0.035056
-0.027402
-0.033461
-0.051639
-0.018153
-0.023894
-0.036969
-0.043985
-0.035375
-0.03091
-0.038883
-0.03665
-0.026445
-0.0073105
2.4388e-05
0.023624
0.071141
0.090276
0.072417
0.11993
0.10271
0.13046
0.19233
0.25133
0.24048
0.17542
0.15757
0.17925
0.13078
0.11388
0.088681
0.11419
0.05392
0.0067215
-0.023575
-0.0066727
-0.043985
-0.10139
-0.099476
-0.099157
-0.13009
-0.11287
-0.090546
-0.066628
-0.049407
-0.07173
-0.002208
0.012781
0.012143
0.026494
0.034467
0.031596
0.022986
0.026494
0.067633
0.08039
0.057747
0.11515
0.072736
0.015332
0.0035324
-0.049726
-0.068541
-0.090227
-0.027402
-0.027083
-0.017835
-0.029634
-0.079384
-0.066947
-0.032186
-0.067585
-0.061525
-0.015602
-0.023256
-0.045261
-0.04558
-0.065352
-0.082254
-0.069817
-0.059293
-0.061206
-0.081298
-0.065352
-0.064714
0.026175
0.039888
0.042758
0.088362
0.082622
0.06572
0.065401
0.073374
0.098568
0.097611
0.044672
0.044991
0.070503
0.02458
-0.011456
-0.032823
-0.06599
-0.088633
-0.11446
-0.10968
-0.11191
-0.12722
-0.11765
-0.10585
-0.097562
-0.099476
-0.099476
-0.098519
-0.09533
-0.063439
-0.064395
-0.061525
-0.077471
-0.044304
-0.038245
-0.014645
0.00098112
0.023624
0.021391
0.019478
0.032553
0.043396
0.13492
0.15757
0.16937
0.17351
0.14385
0.13492
0.13014
0.15374
0.11675
0.14321
0.15597
0.13205
0.11164
0.066995
0.06285
0.016927
0.019797
-0.015921
-0.076195
-0.10203
-0.11574
-0.11446
-0.1033
-0.074919
-0.087676
-0.09246
-0.10107
-0.12977
-0.062482
0.0051269
-0.032504
-0.050682
-0.02198
-0.012413
0.015332
0.031278
0.02458
0.012462
0.020116
0.025218
0.019478
0.040526
0.030959
-0.0060349
-0.0060349
-0.012094
-0.026126
-0.019429
-0.016559
-0.029953
-0.058974
-0.058655
-0.058974
-0.069179
-0.037607
-0.024213
-0.037288
-0.035375
-0.026445
-0.022937
-0.0082673
0.012143
0.041483
0.02777
0.0089539
0.0073593
-0.011775
0.019159
0.0032135
-0.032186
-0.00093234
0.031596
0.038612
0.02171
0.069866
0.061255
0.079752
0.13205
0.12472
0.094422
0.054877
0.084536
0.047861
0.092189
0.12217
0.10813
0.086449
0.017246
-0.053871
-0.093097
-0.1269
-0.089908
-0.032823
-0.049407
-0.046536
-0.050682
-0.08353
-0.083211
-0.066628
-0.073644
-0.059293
-0.069817
-0.03665
-0.015283
-0.039202
-0.012413
-0.06312
-0.074601
-0.078746
-0.043985
-0.032186
-0.045899
-0.03665
-0.043666
-0.036969
-0.025488
0.014375
0.049137
0.028088
0.0092728
0.015013
0.033191
0.041483
0.052645
0.056471
0.072417
0.053601
0.042758
0.056471
0.055515
0.035104
0.010548
0.0089539
0.00098112
-0.019748
-0.048131
-0.069179
-0.0050782
0.017883
0.010867
-0.028678
-0.042072
-0.028359
-0.034099
-0.014645
0.0060837
-0.0076295
-0.038883
-0.0082673
0.0092728
-0.034737
-0.025488
-0.034737
-0.053552
-0.037607
-0.031229
-0.012413
-0.011775
0.031278
0.03925
0.0041702
0.0041702
0.027132
0.01597
-0.022299
0.081028
0.087087
0.11419
0.060936
0.046585
0.0019378
0.086768
0.083579
0.019159
0.03925
0.13779
0.08326
0.052645
0.078157
0.047223
-0.010819
-0.072687
-0.018153
0.024262
-0.0079484
-0.051958
-0.10681
-0.11191
-0.10681
-0.093735
-0.098519
-0.095968
-0.08066
-0.070774
-0.063758
0.0032135
-0.0025269
-0.04845
-0.031229
-0.00029452
-0.0063538
0.031915
0.029045
-0.020386
0.031596
0.045947
-0.009224
-0.030591
-0.010181
0.008635
0.0022568
0.0013
0.004808
-0.017835
-0.010819
-0.0079484
-0.032504
-0.048769
-0.066628
-0.066309
-0.053552
-0.029634
-0.032186
-0.045899
-0.018791
0.0003433
-0.029634
-0.045261
0.041164
0.064444
0.070185
0.098249
0.099843
0.13524
0.19424
0.19169
0.19392
0.207
0.10016
0.046585
0.085492
0.11388
0.11738
0.092189
0.078795
0.023624
-0.046855
-0.091822
-0.099794
-0.15241
-0.13392
-0.13583
-0.17761
-0.19579
-0.17729
-0.15401
-0.16772
-0.15241
-0.13487
-0.11351
-0.10107
-0.06025
-0.034099
0.0041702
0.031596
0.030959
0.044353
0.042439
-0.0073105
-0.0060349
0.031596
0.0035324
0.012781
0.032553
0.021072
0.0019378
-0.046218
-0.060569
-0.059612
-0.085762
-0.078109
-0.048131
-0.02517
-0.024213
-0.00061343
0.025218
0.082622
0.15597
0.19169
0.17925
0.12536
0.11164
0.12217
0.14832
0.17638
0.14736
0.057747
0.087406
0.066677
0.066358
0.0067215
-0.065033
-0.14317
-0.15943
-0.1285
-0.13774
-0.12977
-0.12116
-0.096605
-0.093097
-0.053234
-0.019748
0.03064
0.018521
0.06572
0.094103
0.10016
0.061255
0.070503
0.016927
0.013419
0.056153
0.03638
0.0079971
0.061574
-0.021661
-0.080022
-0.070774
-0.063758
-0.075557
-0.074282
-0.073644
-0.055785
-0.047812
-0.034099
-0.055785
-0.054828
-0.034418
-0.038883
-0.021343
-0.035056
-0.047174
-0.033461
0.045947
0.025218
-0.0079484
-0.0066727
-0.025488
-0.027083
-0.036331
-0.024851
-0.0105
-0.012732
-0.05132
-0.043028
-0.038564
-0.023256
-0.02517
-0.023894
-0.023256
-0.014008
0.062531
0.052326
0.059979
0.052326
0.0060837
0.0095917
0.03064
0.062212
0.07433
0.084854
0.049137
0.037975
0.018202
0.029364
-0.00061343
-0.0066727
0.013419
0.014056
0.0070404
0.0060837
0.065082
0.092189
0.10813
0.065401
0.027451
0.00098112
0.019797
0.017246
0.0095917
-0.0034836
0.061574
0.11866
0.058066
0.034786
0.02458
-0.034737
-0.080979
-0.060569
-0.03378
-0.02198
-0.017835
-0.012094
-0.045261
-0.074601
-0.071411
-0.067903
-0.031867
-0.032504
-0.077152
-0.06599
-0.059293
-0.095649
-0.077152
-0.05419
-0.060569
-0.070136
-0.079703
-0.093735
-0.088314
-0.090227
-0.092141
-0.075557
-0.077152
-0.09246
-0.13105
-0.048131
-0.012732
0.014056
0.010867
-0.022299
-0.0053971
0.0025757
0.0035324
0.018202
0.031596
0.034786
-0.021661
-0.053234
0.03064
0.048499
0.0051269
-0.0018891
-0.0060349
0.0060837
0.0057648
-0.015602
0.012781
0.052007
0.050731
0.029045
0.10399
0.059342
0.01023
-0.014008
0.09187
0.11228
0.10941
0.073055
0.033829
-0.0105
0.02171
0.056471
0.059023
0.012143
-0.0038025
-0.037607
-0.045261
-0.087995
-0.08066
-0.058974
-0.063439
-0.041115
0.059342
0.044991
0.018521
-0.023256
-0.039202
-0.015921
0.008635
0.0035324
0.016289
-0.024213
-0.017197
-0.012413
-0.055466
-0.0089051
-0.045261
-0.079384
-0.038564
-0.050682
-0.011456
0.023943
0.022348
0.004808
0.021072
0.03064
0.037656
0.026813
-0.021343
0.022667
0.016608
0.014375
-0.040477
-0.06599
-0.040477
-0.036331
-0.065033
-0.020705
-0.013051
-0.030591
-0.029953
-0.054509
-0.0098618
-0.020386
-0.010181
-0.0095429
-0.0034836
-0.0031647
-0.041753
-0.038564
-0.026445
-0.014964
0.016927
-0.0073105
-0.018791
0.037018
0.028407
0.043396
0.064444
0.096335
0.064125
0.028407
0.07752
0.066039
0.066677
0.028726
-0.010819
-0.017516
-0.0015702
0.028088
0.0038513
0.023624
-0.039839
-0.02804
-0.026445
-0.040796
-0.053871
-0.037288
-0.031229
-0.080341
-0.11096
-0.083211
-0.045261
-0.075876
-0.10266
-0.11478
-0.12977
-0.13105
-0.10362
-0.075557
-0.053234
-0.064714
-0.071093
-0.051639
-0.030591
-0.017197
-0.0031647
0.026175
0.042758
0.026813
0.035742
0.027132
0.0095917
0.011824
0.042439
0.032553
0.060936
0.065082
0.038612
0.015332
0.018202
0.059661
0.07752
0.035423
0.0060837
-0.020067
0.027132
0.068271
0.080709
0.092189
0.087087
0.052645
0.03638
0.054558
0.063806
0.084854
0.054239
0.043077
0.02171
0.032872
-0.022937
-0.028678
-0.023575
0.0057648
0.012781
0.10431
0.11037
0.10048
0.050731
0.022029
0.022029
0.021072
-0.0098618
0.064444
0.067633
0.040526
0.032553
-0.02517
-0.090865
-0.096605
-0.10585
-0.13073
-0.10809
-0.091822
-0.071093
-0.085443
-0.067266
-0.059612
-0.082254
-0.070455
-0.025807
-0.024851
-0.035375
-0.036969
-0.10936
-0.047174
-0.054828
-0.057379
-0.032504
-0.052596
-0.081298
-0.057061
-0.053234
-0.067266
-0.027083
0.010548
0.056153
0.037656
0.023943
0.024899
0.0073593
0.012143
0.041483
0.050412
0.063806
0.035104
0.0131
0.0057648
0.016608
0.030959
0.072736
0.014056
0.02777
0.0092728
0.015651
-0.032504
-0.052915
-0.00061343
-0.010819
-0.042072
-0.028996
-0.020067
-0.038245
-0.042391
-0.029315
-0.01624
0.032553
0.023305
0.021391
0.099205
0.11547
0.12823
0.13747
0.13747
0.090276
0.080709
0.081984
0.10112
0.070822
0.10845
0.11643
0.053601
-0.014645
0.035104
-0.010819
-0.059931
-0.084806
-0.072687
-0.10522
-0.086081
-0.082573
-0.092141
-0.12977
-0.10203
-0.10011
-0.11383
-0.099157
-0.061206
-0.085125
-0.075876
-0.058017
-0.043028
-0.055147
-0.08353
-0.093735
-0.043028
-0.011775
-0.033142
-0.077471
-0.0864
-0.060887
-0.08066
-0.042391
-0.061206
-0.059931
-0.064395
-0.08353
-0.0063538
-0.0044404
-0.036331
-0.0089051
0.028088
0.063169
0.048818
0.032872
0.030002
0.055515
0.093146
0.10463
0.11292
0.15119
0.1059
0.11101
0.14162
0.1177
0.075287
0.018202
0.03638
0.074012
0.054239
2.4388e-05
-0.024532
-0.070774
-0.018472
-0.012094
0.027451
0.022348
-0.028996
-0.01624
-0.031548
0.0019378
0.016289
0.025218
0.035104
0.018202
-0.0095429
-0.028678
0.008635
-0.015602
-0.011775
-0.0012513
0.031596
0.004808
-0.047812
-0.048131
-0.042072
-0.021661
-0.021343
-0.019429
-0.01911
-0.013689
-0.090865
-0.068541
-0.073963
-0.075876
-0.094054
-0.097881
-0.095968
-0.10394
-0.11319
-0.094373
-0.072687
-0.055466
-0.048769
-0.041115
-0.020386
-0.0063538
-0.020705
-0.010181
-0.022299
-0.040158
-0.023575
-0.023575
-0.019748
0.016927
-0.009224
-0.038883
-0.057379
-0.044304
0.015332
0.012462
-0.020705
-0.03665
-0.027721
-0.015921
-0.0079484
0.0028946
0.020116
0.036699
0.081028
0.15852
0.12472
0.096973
0.082622
0.093784
0.090595
0.091233
0.14545
0.14321
0.12025
0.050412
-0.026445
-0.017516
-0.0034836
-0.021661
-0.072049
-0.099157
-0.11319
-0.10011
-0.064077
-0.080341
-0.051639
-0.0069916
0.01023
0.042439
0.057747
0.0051269
-0.012413
-0.029953
-0.011775
0.058704
0.082941
0.028088
-0.011456
-0.0076295
-0.015602
-0.029953
-0.051001
-0.015602
-0.0025269
0.026175
0.017246
-0.0038025
-0.040158
-0.012094
0.083579
0.077201
0.069547
0.076563
0.035104
-0.034099
-0.014327
0.031278
0.021072
0.0032135
0.046585
0.015332
-0.034099
-0.040796
-0.057698
-0.062482
-0.071093
-0.065352
-0.091184
-0.095968
-0.15273
-0.071411
-0.038245
-0.019748
-0.028996
-0.029953
-0.022937
0.0051269
0.026813
0.084536
0.063806
0.046266
0.023624
0.016927
0.030959
0.050412
0.016608
0.03351
0.049137
0.012462
0.037656
0.046585
0.043396
0.031915
0.020435
-0.010819
0.03925
0.050412
0.038294
0.040526
0.013419
-0.009224
-0.0050782
-0.02517
-0.044304
-0.031548
-0.062163
-0.081298
-0.086719
-0.06886
-0.066628
-0.045261
-0.032823
-0.050363
-0.033461
0.0025757
0.010867
0.022029
0.033191
-0.013051
-0.058017
-0.041115
-0.0105
0.040207
0.022348
-0.005716
2.4388e-05
-0.020705
-0.046218
-0.015283
-0.0060349
-0.042072
-0.036012
-0.036331
-0.041115
-0.093097
-0.092141
-0.076514
-0.059612
-0.056742
-0.050044
-0.023894
-0.023256
0.032234
0.10495
0.11069
0.11547
0.11547
0.080709
0.064125
0.059979
0.080709
0.076563
0.096335
0.044991
0.025856
0.027132
-0.030272
-0.08066
-0.11957
-0.099476
-0.10394
-0.083849
-0.084487
-0.047812
-0.066628
-0.042391
-0.039202
-0.03378
-0.034099
-0.022618
0.054239
0.066677
0.040845
0.011824
0.027451
0.017564
0.017246
0.027132
0.066995
0.058385
0.025856
2.4388e-05
0.0057648
-0.011137
-0.055466
-0.069817
-0.078746
-0.019748
-0.016559
-0.021024
-0.052277
0.008316
0.056153
0.012462
0.0044891
-0.017835
-0.01624
0.017246
0.054239
0.06285
0.020116
-0.014008
0.0025757
0.020435
-0.0050782
-0.050363
-0.073006
-0.023894
-0.013051
0.014375
-0.0034836
-0.054509
-0.050044
-0.028996
0.016289
0.008635
-0.011775
-0.011456
0.0089539
0.025856
0.0038513
-0.022299
-0.047174
-0.020386
0.013419
0.046266
0.05392
0.065401
0.040845
-0.0082673
-0.032504
0.023943
0.041483
0.013419
0.008316
0.0025757
-0.048769
-0.031229
-0.042391
-0.030591
-0.050044
-0.060887
-0.036331
-0.0095429
-0.0060349
-0.044942
-0.059293
-0.058974
-0.023256
-0.010181
-0.005716
0.0095917
-0.038245
-0.058336
-0.017516
-0.014327
-0.0069916
0.0073593
-0.014645
-0.050682
-0.0012513
0.0070404
-0.0038025
-0.014645
-0.0060349
0.0067215
0.0099106
0.034148
0.078476
0.020754
0.081346
0.064444
0.032872
0.023305
0.030959
0.035104
0.011824
0.035742
0.1126
0.089
0.029045
-0.023894
-0.068541
-0.077152
-0.089908
-0.096605
-0.088952
-0.064077
-0.079703
-0.093416
-0.066309
0.0028946
0.02171
-0.016878
-0.014327
0.049137
0.037975
0.045629
0.088681
0.10016
0.069228
0.033191
0.0089539
0.053282
0.052963
0.037337
-0.0082673
-0.076833
-0.093097
-0.042072
-0.047174
-0.044942
-0.060569
-0.050363
-0.061206
-0.062482
-0.05132
-0.042391
-0.031229
-0.031548
-0.027721
0.0025757
0.0013
0.037018
0.028407
0.053601
0.046585
0.046585
0.027132
-0.015921
-0.014327
0.00098112
0.0073593
0.026813
-0.0079484
-0.0095429
-0.017835
-0.0105
0.042758
-0.0015702
-0.0050782
0.031596
0.043715
0.0022568
0.022348
0.057747
0.044353
0.061255
0.012781
-0.014964
-0.010819
-0.029315
-0.074282
-0.095011
0.0051269
0.045947
-0.0015702
-0.025488
-0.034418
-0.014645
-0.0028458
0.02458
0.02777
-0.0038025
0.0099106
0.019797
0.031596
0.052326
-0.0047593
-0.074601
-0.093097
-0.024532
-0.013051
0.013738
-0.00061343
-0.030591
-0.050682
-0.047493
-0.03378
-0.011456
-0.0082673
-0.019748
-0.020705
-0.073006
-0.046218
-0.051639
-0.074919
-0.0041214
-0.024532
-0.047174
-0.026445
0.02171
0.027451
0.031915
0.04818
0.056153
0.0073593
0.046266
0.069228
0.066358
0.027132
0.04531
0.03638
0.019797
0.11005
0.079752
0.030002
0.008635
2.4388e-05
0.0041702
0.012781
0.03638
0.025537
0.022986
0.014375
0.0070404
-0.0069916
-0.064077
-0.10394
-0.11765
-0.11415
-0.10968
-0.10011
-0.081935
-0.072049
-0.078746
-0.07779
-0.058655
-0.023894
-0.035375
0.015332
0.008635
-0.014327
0.015013
0.026494
0.019159
0.020754
0.011824
0.022029
0.07146
0.019797
0.00098112
-0.012094
0.012143
0.055196
0.016608
-0.013689
0.0013
0.021391
0.044672
0.011505
-0.023575
-0.049407
-0.06025
-0.023894
-0.035056
-0.040796
-0.0015702
0.004808
0.079433
0.12025
0.20732
0.17638
0.16203
0.088681
0.10845
0.082303
0.094741
0.067314
0.044991
0.094741
0.050093
0.017883
-0.00093234
-0.056104
-0.11478
-0.18367
-0.19036
-0.16103
-0.15943
-0.16134
-0.15018
-0.11733
-0.092141
-0.094373
-0.099794
-0.11446
-0.082892
-0.026764
-0.022299
-0.02198
-0.022937
-0.022618
-0.02517
-0.0095429
0.039888
0.070185
0.026175
-0.0069916
0.0051269
0.011505
-0.0041214
-0.017516
-0.0015702
-0.0041214
0.01023
-0.013689
-0.028359
-0.054509
-0.036331
-0.0082673
0.013738
0.0013
-0.0089051
-0.0015702
0.050731
0.058066
0.074968
0.044991
0.0044891
0.034148
0.052645
0.050093
0.037656
0.022986
0.074649
0.13173
0.06285
0.010548
0.0064026
0.054877
0.071779
0.076882
0.032553
-0.0028458
-0.0028458
-0.029315
0.0022568
0.024262
0.090276
0.096973
0.05392
0.068271
0.090914
0.16267
0.10367
0.079752
0.05679
0.070503
0.066995
0.035104
0.00066221
-0.033142
-0.093416
0.0025757
-0.017197
-0.11191
-0.17538
-0.17346
-0.16262
-0.15528
-0.14667
-0.17091
-0.14189
-0.13041
-0.11957
-0.08353
-0.078427
-0.077471
-0.059612
-0.06025
-0.041753
-0.0012513
0.041483
0.014694
-0.0015702
-0.012094
-0.01911
0.021072
0.0003433
-0.0015702
0.022667
0.025218
-0.0060349
-0.04558
-0.071411
-0.063439
-0.063758
-0.062163
-0.064714
-0.067266
-0.030272
-0.0085862
0.028088
0.034467
0.04531
0.060936
0.12823
0.20668
0.19424
0.17415
0.09506
0.07752
0.070822
0.12344
0.16299
0.1244
0.10271
0.058704
0.0041702
-0.052915
-0.030591
-0.065033
-0.069179
-0.08353
-0.10011
-0.06886
-0.041434
-0.032823
-0.028678
-0.0098618
-0.0069916
-0.049088
-0.0085862
0.041483
0.018521
0.0092728
0.024899
0.011824
0.016608
0.0016189
-0.024213
-0.018791
-0.025807
-0.057061
-0.079065
-0.090546
-0.093735
-0.063439
-0.043347
-0.043028
-0.041753
-0.04271
-0.026126
-0.015602
-0.021343
-0.0085862
0.0019378
-0.022299
-0.029953
-0.011456
-0.017197
-0.0038025
-0.027083
-0.058974
-0.073644
-0.044623
-0.041753
-0.062801
-0.068222
-0.061525
-0.044623
-0.048131
-0.049407
-0.064077
-0.064395
-0.063439
-0.061525
-0.03665
-0.047812
-0.035056
-0.023575
0.0032135
0.0044891
0.041164
0.084536
0.12982
0.1295
0.10845
0.10112
0.08326
0.13333
0.15661
0.12855
0.11738
0.072417
0.034467
0.023624
0.03925
0.028407
0.04531
0.072098
0.019478
0.010867
-0.0063538
-0.0073105
0.016927
0.00066221
0.02171
0.067314
0.062212
0.022029
-0.0028458
-0.020705
-0.0060349
0.0057648
0.0092728
-0.013689
0.026494
0.0054459
-0.034737
-0.081298
0.028726
0.032553
-0.012094
-0.053871
-0.078427
-0.085762
-0.087357
-0.094054
-0.10936
-0.11957
-0.12595
-0.14795
-0.13966
-0.13806
-0.12371
-0.11542
-0.089908
-0.098519
-0.085443
-0.064714
-0.055785
-0.02804
0.044034
0.079114
0.055834
0.05679
0.093146
0.070503
0.054877
0.07146
0.044672
0.071779
0.017883
0.037656
0.094741
0.07752
0.0032135
0.060936
0.037656
0.015651
-0.027721
-0.046536
-0.034099
-0.032823
-0.034099
0.033829
0.083579
0.03351
0.064444
0.032234
0.031596
0.041483
0.10813
0.09793
0.070503
0.076244
0.076244
0.013419
0.020754
0.022348
0.03638
0.0079971
0.008635
0.0022568
0.0076782
-0.052596
-0.088952
-0.12244
-0.083211
-0.081617
-0.050044
-0.050682
-0.094373
-0.10043
-0.11319
-0.11861
-0.087676
-0.061844
-0.081298
-0.035375
-0.03665
-0.032823
0.0095917
0.03064
0.020116
0.01597
0.029045
0.020754
0.023305
0.020754
0.017246
0.0076782
0.054877
0.061893
-0.024532
0.010548
0.0089539
0.021072
0.026813
0.10208
0.095697
0.06859
0.011186
0.023624
-0.021024
0.0060837
0.028407
0.044353
0.018202
-0.015602
-0.034737
-0.070774
-0.07779
-0.067585
-0.053552
-0.053552
0.025218
0.016608
0.012781
0.0057648
0.082622
0.088362
0.067314
0.071141
0.050093
0.052007
0.093784
0.093146
0.12312
0.074012
0.052963
0.0025757
-0.0095429
-0.013689
0.0013
-0.036012
-0.011775
-0.022618
-0.043985
-0.066628
-0.083849
-0.10043
-0.07173
-0.087995
-0.11893
-0.088952
-0.082892
-0.063758
-0.073006
-0.074601
-0.075557
-0.08353
-0.068222
-0.055147
-0.071411
-0.033461
-0.04271
-0.10171
-0.066947
-0.035056
-0.012094
-0.026126
-0.038564
-0.032504
-0.041115
-0.050682
-0.0047593
0.020754
0.064444
0.042758
0.022986
0.027451
0.031915
0.01884
0.019159
0.047861
0.044353
0.043715
0.042439
0.04818
0.053282
0.038931
0.044353
0.032234
-0.0034836
0.022348
0.094422
0.095697
0.087406
0.056153
0.023624
-0.01337
0.0060837
0.030002
0.074649
0.037018
-0.021343
0.042439
0.022667
0.011505
0.041164
0.0013
0.0051269
-0.0031647
-0.024851
0.052326
0.030321
0.049137
0.022986
0.0064026
-0.002208
0.0054459
0.032553
0.044034
-0.005716
-0.032823
-0.032504
-0.063439
-0.0018891
-0.0028458
-0.041434
-0.058974
-0.067266
-0.07779
-0.073325
-0.079703
-0.036012
-0.030272
-0.093097
-0.047493
-0.035056
-0.009224
0.0051269
