-0.012732
-0.0105
-0.010181
-0.0031647
0.0079971
-0.0018891
-0.0015702
0.0019378
-0.0041214
-0.0105
-0.012094
-0.020067
-0.023894
-0.025488
-0.023256
-0.017197
-0.020386
-0.016559
-0.011775
-0.013689
-0.0098618
0.0057648
-0.0015702
-0.0076295
-0.0041214
-0.012413
-0.018153
-0.018472
-0.024213
-0.031867
-0.024213
-0.025807
-0.025807
-0.026445
-0.024851
-0.017835
-0.015602
-0.013689
-0.0095429
-0.012094
-0.017516
-0.016878
-0.023575
-0.02517
-0.029315
-0.031548
-0.044304
-0.034099
-0.029953
-0.032823
-0.029953
-0.026445
-0.02517
-0.019748
-0.0089051
-0.017835
-0.017516
-0.014645
-0.020386
-0.023894
-0.027721
-0.032823
-0.036012
-0.038564
-0.034737
-0.028359
-0.032186
-0.026445
-0.021024
-0.023256
-0.017835
-0.0028458
-0.012094
-0.016559
-0.011456
-0.017835
-0.020705
-0.020705
-0.028678
-0.035375
-0.025488
-0.026126
-0.026126
-0.025807
-0.021661
-0.012094
-0.010181
-0.0076295
-0.0028458
-0.0034836
-0.0085862
-0.0073105
-0.012094
-0.014645
-0.014327
-0.020705
-0.02804
-0.019748
-0.013689
-0.018791
-0.013689
-0.0095429
-0.0089051
-0.0031647
0.0067215
0.0003433
0.0028946
0.004808
0.00098112
-0.0047593
-0.0095429
-0.01337
-0.015921
-0.01911
-0.014964
-0.009224
-0.012094
-0.0082673
-0.0015702
-0.0044404
0.0038513
0.017883
0.008635
0.0051269
0.0092728
0.004808
-0.00029452
-0.0012513
-0.0066727
-0.014964
-0.005716
-0.0044404
-0.0041214
-0.0038025
-0.00029452
0.0060837
0.0099106
0.0131
0.02171
0.020116
0.013738
0.017246
0.010548
0.0060837
0.0070404
0.0025757
-0.0069916
0.0038513
0.0089539
0.004808
0.008316
0.012781
0.015651
0.022029
0.029683
0.023943
0.024899
0.026813
0.023624
0.01884
0.015332
0.011186
0.0067215
0.0016189
0.0060837
0.014375
0.011824
0.016608
0.020754
0.017246
0.024262
0.038612
0.029364
0.026175
0.029045
0.025537
0.020435
0.021072
0.012781
0.0038513
0.013419
0.014694
0.017246
0.01597
0.021391
0.028407
0.028407
0.031278
0.040207
0.038612
0.031915
0.032872
0.028088
0.022986
0.023624
0.016608
0.004808
0.014694
0.020435
0.012781
0.015013
0.017883
0.022029
0.029364
0.03638
0.028407
0.027451
0.026494
0.02171
0.017883
0.013738
0.0092728
0.0054459
-0.0034836
0.00098112
0.0064026
0.0025757
0.0060837
0.0089539
0.0054459
0.011186
0.023624
0.0131
0.008635
0.012462
0.0051269
2.4388e-05
-0.0038025
-0.0105
-0.01911
-0.012094
-0.012094
-0.012094
-0.013051
-0.011137
-0.0063538
-0.0098618
-0.0038025
0.0067215
0.00066221
-0.0073105
-0.0063538
-0.014645
-0.01911
-0.019748
-0.026445
-0.037926
-0.031229
-0.027402
-0.031229
-0.030591
-0.027721
-0.024851
-0.019429
-0.014008
-0.019748
-0.019429
-0.020067
-0.022299
-0.026764
-0.031229
-0.037607
-0.040158
-0.047493
-0.041753
-0.035375
-0.036969
-0.032823
-0.028678
-0.030591
-0.022618
-0.0105
-0.019748
-0.023256
-0.017516
-0.024851
-0.02804
-0.028996
-0.036331
-0.043028
-0.035694
-0.035056
-0.033142
-0.03378
-0.029953
-0.023256
-0.022937
-0.01911
-0.0069916
-0.011456
-0.016878
-0.015921
-0.020705
-0.022937
-0.021343
-0.028996
-0.039202
-0.028359
-0.02517
-0.026126
-0.022937
-0.019429
-0.016559
-0.0089051
-0.0034836
-0.0073105
-0.0060349
-0.0053971
-0.0069916
-0.011456
-0.014645
-0.01624
-0.020705
-0.028359
-0.021024
-0.014645
-0.015921
-0.012094
-0.0089051
-0.0095429
-0.002208
0.011505
0.0016189
-0.00029452
0.0051269
-0.0012513
-0.0028458
-0.005716
-0.014645
-0.01911
-0.013689
-0.01337
-0.0098618
-0.0105
-0.0085862
-0.0031647
-0.002208
0.0035324
0.013738
0.0067215
0.0013
0.0019378
-0.005716
-0.0085862
-0.0076295
-0.013689
-0.026764
-0.014645
-0.012413
-0.017197
-0.01337
-0.011137
-0.0082673
-0.0031647
0.0028946
-0.0012513
-0.0012513
-0.0028458
-0.0047593
-0.0098618
-0.011775
-0.017835
-0.02198
-0.029315
-0.022618
-0.017197
-0.019429
-0.015602
-0.01337
-0.014645
-0.0085862
0.0051269
-0.0050782
-0.0085862
-0.0044404
-0.0098618
-0.01337
-0.01624
-0.025488
-0.030272
-0.024851
-0.024213
-0.021024
-0.022299
-0.019429
-0.014327
-0.01337
-0.010181
0.0016189
-0.0047593
-0.010819
-0.009224
-0.015283
-0.019748
-0.018153
-0.025488
-0.035694
-0.026445
-0.022618
-0.026445
-0.026445
-0.019748
-0.01624
-0.010181
0.0003433
-0.0050782
-0.0044404
-0.0031647
-0.0041214
-0.011456
-0.016878
-0.020067
-0.023256
-0.030591
-0.023575
-0.015921
-0.020067
-0.018791
-0.015283
-0.017835
-0.012413
-0.00061343
-0.0105
-0.011775
-0.0082673
-0.012413
-0.014964
-0.018472
-0.024213
-0.028678
-0.024213
-0.021661
-0.018472
-0.018791
-0.014645
-0.0076295
-0.0073105
0.0003433
0.012143
0.0057648
0.0003433
0.0038513
-0.0038025
-0.0041214
-0.0018891
-0.0098618
-0.019429
-0.0076295
-0.0050782
-0.009224
-0.0063538
-0.00093234
0.0044891
0.0095917
0.014694
0.013419
0.016289
0.016289
0.013738
0.0095917
0.0073593
0.004808
0.0019378
-0.0079484
0.0013
0.0076782
0.0035324
0.0073593
0.015013
0.020116
0.027451
0.039569
0.059023
0.090276
0.099524
0.081346
0.075925
0.072098
0.059979
0.04531
0.054877
0.061574
0.073374
0.071141
0.070503
0.070185
0.016608
0.026494
0.041164
0.023943
0.0067215
0.0079971
0.0076782
0.00066221
-0.009224
-0.017197
-0.026126
-0.015921
-0.0063538
-0.012732
-0.015921
-0.024213
-0.012732
-0.0089051
-0.0050782
2.4388e-05
-0.00061343
-0.0041214
2.4388e-05
-0.0015702
-0.0025269
-0.0050782
-0.0044404
-0.013689
-0.0031647
0.0079971
0.008316
0.014694
0.023624
0.024262
0.030959
0.044353
0.037337
0.03638
0.042439
0.038931
0.03638
0.033829
0.029364
0.030002
0.033829
0.034786
0.042121
0.049455
0.049774
0.055515
0.055834
0.058704
0.070822
0.062531
0.056153
0.05679
0.057428
0.040526
0.037337
0.027132
0.018521
0.026813
0.019478
0.013738
0.015332
0.018521
0.019159
0.023305
0.031915
0.034467
0.025218
0.023943
0.025537
0.02171
0.021072
0.01884
0.010548
0.0016189
0.011505
0.017883
0.011824
0.014056
0.019797
0.01884
0.028088
0.038612
0.027132
0.025856
0.030002
0.020435
0.016289
0.016289
0.010548
0.0070404
0.0057648
0.011824
0.01597
0.012781
0.018202
0.025856
0.022986
0.028726
0.039888
0.03351
0.026494
0.030002
0.02458
0.018202
0.01597
0.012462
0.0070404
0.012143
0.0089539
0.0057648
0.0076782
0.0054459
0.01023
0.017883
0.022986
0.025856
0.020116
0.0076782
0.0057648
0.0041702
-0.005716
-0.012413
-0.014327
-0.022618
-0.015602
-0.017835
-0.022618
-0.016559
-0.017835
-0.014964
-0.005716
0.0067215
0.00066221
-0.0089051
-0.005716
-0.0066727
-0.0105
-0.012732
-0.020705
-0.025807
-0.020067
-0.019748
-0.015921
-0.018472
-0.016559
-0.011456
-0.014964
-0.013051
0.00066221
-0.0060349
-0.010819
-0.0089051
-0.017516
-0.022299
-0.024532
-0.03378
-0.042072
-0.031548
-0.033142
-0.035375
-0.034418
-0.017516
-0.017197
-0.01624
-0.011775
-0.0050782
-0.0069916
-0.00061343
-0.0044404
-0.011137
-0.0015702
0.0038513
0.0003433
-0.015602
-0.011775
-0.0060349
-0.018791
-0.02517
-0.0038025
-0.002208
0.0013
0.0035324
-0.020386
-0.040796
-0.037926
-0.037607
-0.044942
-0.050682
-0.057061
-0.056104
-0.075876
-0.079384
-0.068222
-0.069817
-0.06886
-0.063758
-0.056742
-0.052596
-0.055466
-0.065671
-0.055785
-0.049088
-0.052915
-0.06312
-0.071093
-0.079065
-0.083849
-0.067903
-0.065352
-0.067266
-0.063439
-0.060569
-0.053234
-0.049407
-0.046855
-0.038883
-0.041753
-0.044623
-0.043028
-0.049088
-0.050682
-0.051001
-0.057061
-0.068222
-0.057698
-0.052277
-0.052277
-0.048131
-0.044942
-0.045899
-0.035056
-0.018791
-0.022299
-0.021343
-0.020067
-0.019429
-0.01337
-0.0085862
-0.01624
-0.020386
-0.02198
-0.025488
-0.021343
-0.021661
-0.01624
-0.020067
-0.012094
-0.0082673
-0.00029452
-0.018153
-0.031229
-0.032186
-0.040796
-0.046855
-0.035694
-0.050044
-0.061206
-0.052277
-0.053871
-0.04845
-0.050044
-0.046218
-0.039202
-0.032823
-0.028678
-0.020067
-0.018153
-0.026764
-0.028996
-0.034737
-0.036331
-0.034418
-0.043347
-0.054828
-0.041434
-0.036969
-0.042391
-0.035375
-0.038245
-0.036331
-0.027402
-0.021024
-0.02804
-0.02804
-0.022618
-0.014645
-0.010819
0.0131
0.017883
0.012462
0.01884
0.016289
0.014694
0.020435
0.020116
0.021072
0.021391
0.035742
0.042439
0.025856
-0.011775
-0.017835
-0.047174
-0.050363
-0.061844
-0.084487
-0.088952
-0.086081
-0.087995
-0.097562
-0.10171
-0.095968
-0.091184
-0.085762
-0.082254
-0.075238
-0.077471
-0.076833
-0.075876
-0.078427
-0.08353
-0.082892
-0.090546
-0.098519
-0.082254
-0.060569
-0.05419
-0.058336
-0.056742
-0.047493
-0.03952
-0.032823
-0.028678
-0.016559
-0.019748
-0.029634
-0.02198
-0.014327
-0.026764
-0.05132
-0.049088
-0.040796
-0.029953
-0.036331
-0.035694
-0.032504
-0.0076295
-0.0066727
0.00066221
-0.0105
-0.012413
-0.0105
-0.0015702
-0.0047593
0.0054459
-0.0079484
-0.02198
-0.021661
-0.017197
-0.014008
-0.02517
-0.01911
-0.01337
0.010548
0.0079971
-0.010819
-0.026126
-0.034418
-0.031548
-0.043666
-0.046536
-0.049407
-0.061206
-0.056742
-0.04845
-0.052277
-0.073644
-0.078109
-0.057379
-0.04271
-0.034099
-0.017516
-0.016559
-0.010181
-0.00061343
0.014694
0.01023
0.019478
0.032872
0.042439
0.028726
0.041802
0.047861
0.068909
0.082941
0.071779
0.06285
0.088681
0.10112
0.063487
0.052326
0.057747
0.046904
0.033191
0.017564
-0.031548
-0.049407
-0.03952
-0.047493
-0.062163
-0.07173
-0.080979
-0.098838
-0.10171
-0.091822
-0.083211
-0.086719
-0.090546
-0.095968
-0.08066
-0.069179
-0.064077
-0.049088
-0.016559
0.037018
0.024262
0.019159
0.051369
0.062212
0.072736
0.089
0.10048
0.10144
0.10048
0.09506
0.096654
0.058385
0.037975
0.0067215
-0.0079484
-0.018472
-0.02804
-0.032823
-0.053552
-0.058336
-0.058974
-0.067903
-0.068541
-0.058974
-0.058336
-0.070774
-0.065352
-0.074601
-0.056423
-0.051958
-0.064395
-0.058017
-0.043347
-0.051001
-0.049407
-0.036969
-0.031867
0.00098112
0.01023
0.015332
0.023624
0.0092728
0.019478
0.040845
0.072098
0.085173
0.085811
0.1059
0.11675
0.10144
0.10016
0.10048
0.11451
0.11579
0.11866
0.12695
0.096335
0.083579
0.056153
0.073055
0.068909
0.056471
0.03638
0.0022568
-0.0028458
0.0003433
0.025218
0.10622
0.16905
0.16745
0.15374
0.13078
0.14927
0.11993
0.11579
0.15597
0.2003
0.17798
0.17447
0.11388
0.079114
0.0022568
-0.051639
-0.054828
-0.068222
-0.075876
-0.084487
-0.099476
-0.11064
-0.11829
-0.13073
-0.14253
-0.14412
-0.12786
-0.13966
-0.11893
-0.10394
-0.10298
-0.096924
-0.068541
-0.057379
-0.054509
-0.041434
-0.03665
-0.022299
0.011186
0.022029
0.012143
0.023943
0.026175
0.027132
0.008635
0.026175
0.015651
0.042758
0.050093
0.052963
0.05105
0.044353
0.034148
0.038294
0.059342
0.13747
0.13333
0.11515
0.13779
0.13588
0.098568
0.068271
0.089319
0.099843
0.096335
0.10782
0.10718
0.10686
0.061255
0.046585
0.044672
0.069547
0.098568
0.099524
0.087087
0.079752
0.13684
0.08326
0.065401
0.057109
0.029045
0.05679
0.061893
0.06572
0.030002
0.0022568
0.010867
0.010867
-0.010181
-0.00061343
0.0003433
-0.019429
0.0057648
0.024262
0.017564
0.022348
0.031596
0.066995
0.053282
0.054558
0.06572
0.052963
0.070185
0.087406
0.067952
0.049137
0.037656
0.0003433
0.0028946
-0.0079484
-0.034099
-0.044942
-0.060569
-0.10872
-0.15624
-0.10968
-0.075238
-0.048769
-0.055785
-0.085762
-0.092778
-0.094054
-0.074919
-0.028359
-0.03091
-0.025807
0.012462
0.051688
0.1126
0.10718
0.11388
0.19488
0.17957
0.21688
0.17798
0.14353
0.18085
0.19711
0.18946
0.18021
0.13078
0.080709
0.074968
0.049774
-0.040158
-0.095011
-0.080979
-0.12148
-0.13169
-0.11446
-0.10235
-0.11128
-0.047812
-0.01337
0.1126
0.12408
0.097292
0.074012
0.078795
0.1429
0.17989
0.27461
0.28385
0.34891
0.24909
0.11611
0.059661
0.085492
0.077201
0.028726
0.019797
-0.018791
-0.018153
-0.1336
-0.14604
-0.1926
-0.23661
-0.22895
-0.2315
-0.20567
-0.17793
-0.23374
-0.21205
-0.19579
-0.15018
-0.070774
0.022348
0.10654
0.078795
0.11451
0.087406
0.014694
0.012462
0.081346
0.12759
0.14896
0.1311
0.04531
-0.028678
-0.0098618
0.028407
0.030959
0.0079971
0.021391
0.29374
0.19966
0.14226
0.097292
0.092827
0.11738
0.13652
0.17511
0.10654
0.11005
0.14736
0.074968
0.015332
-0.032504
-0.056423
-0.13456
-0.14667
-0.14125
-0.14891
-0.10522
-0.080022
-0.073963
-0.027721
-0.014645
0.0041702
0.0019378
-0.0018891
0.038612
0.077201
0.10686
0.063169
0.016927
2.4388e-05
0.18021
0.12759
0.05105
0.082303
0.087087
0.0076782
-0.025488
-0.074601
-0.049407
-0.027402
-0.071093
-0.034099
-0.026126
-0.0034836
-0.052915
-0.059931
-0.1336
-0.12116
-0.041434
-0.075557
-0.10522
-0.053871
-0.040796
-0.038245
-0.11255
-0.078746
-0.092141
-0.096286
-0.073325
-0.10075
-0.10139
-0.027721
0.031915
0.092189
0.11515
0.15661
0.15406
0.064763
0.17925
0.17287
0.13971
0.13173
0.1464
0.14481
0.066358
0.047223
0.12918
0.12249
0.097611
0.13333
0.013419
-0.038245
-0.10809
-0.076833
0.028726
0.081028
0.10813
0.032872
-0.079703
-0.12626
-0.23374
-0.20567
-0.15241
-0.18335
-0.19674
-0.24617
-0.228
-0.27488
-0.3428
-0.32558
-0.32494
-0.24681
-0.18749
-0.21843
-0.18175
-0.16613
-0.18175
-0.23406
-0.18654
-0.14125
-0.048769
0.23251
0.33647
0.20508
0.13971
0.20126
0.15597
0.10367
0.10909
0.17032
0.28768
0.23219
0.18372
0.06859
0.024262
0.099205
0.092508
0.17957
0.40568
0.32053
0.17861
0.17638
0.16394
0.10303
0.088362
0.1783
0.23825
0.26568
0.16681
0.085811
-0.0098618
-0.17601
-0.15688
-0.1403
-0.22098
-0.27488
-0.28381
-0.3326
-0.27615
-0.19898
-0.23501
-0.20312
-0.17187
-0.21205
-0.087038
-0.017835
-0.13551
-0.17952
-0.19547
-0.20759
-0.17282
-0.18399
-0.21588
-0.2433
-0.25064
-0.26882
-0.28157
-0.2618
-0.23661
-0.11638
-0.16134
-0.19706
-0.13998
-0.010181
0.0057648
0.0076782
0.011824
0.012143
0.013419
0.059661
0.061255
0.36741
0.62286
0.77051
0.58204
0.52336
0.43597
0.40153
0.34285
0.38622
0.4044
0.42386
0.35114
0.37698
0.43215
0.40281
0.21625
0.0095917
-0.14636
-0.28125
-0.3798
-0.33228
-0.32431
-0.31952
-0.30581
-0.39
-0.43943
-0.51533
-0.48344
-0.45697
-0.47802
-0.51597
-0.44039
-0.33611
-0.36513
-0.3782
-0.32463
-0.34376
-0.30804
-0.27137
-0.16581
0.14959
0.37283
0.19328
0.14959
0.11005
0.030321
-0.01337
0.01884
0.15278
0.15693
0.1598
0.0057648
-0.032823
0.021072
0.029364
-0.041753
-0.090546
-0.13966
-0.18877
-0.19036
-0.20153
-0.17601
-0.033461
0.038294
0.08326
0.013419
0.043077
0.078157
0.055196
0.017246
-0.0098618
0.22294
0.20413
0.082941
0.075925
0.026175
0.25164
0.45798
0.36071
0.25324
0.085492
0.077838
0.13684
0.041164
0.03351
0.24495
0.048499
-0.11797
-0.062163
0.02458
-0.010181
-0.16836
-0.26595
-0.26212
-0.29082
-0.38554
-0.35843
-0.30613
-0.26977
-0.22832
-0.22353
-0.27519
-0.25861
-0.22385
-0.15784
-0.24745
-0.26212
-0.26754
-0.23214
-0.2382
-0.2044
-0.13806
-0.02517
0.045947
-0.0012513
0.072098
0.023624
0.064125
0.026494
-0.017835
0.031915
0.1834
0.15183
0.27397
0.28545
0.29725
0.43087
0.1531
0.22549
0.29757
0.23697
0.14226
0.10144
0.075925
0.13173
0.091233
0.063806
0.043396
0.055515
-0.0028458
-0.098519
-0.083211
-0.18399
-0.17219
0.0070404
0.10463
0.097611
0.1008
0.091233
0.04531
-0.087038
-0.11351
-0.065352
-0.0034836
0.042121
0.14513
0.050412
-0.11064
-0.14604
-0.17825
-0.28412
-0.13902
-0.20599
-0.26244
-0.07779
-0.065033
-0.11064
-0.19706
-0.17825
-0.20312
-0.19547
-0.23948
-0.20727
-0.18431
-0.23916
-0.22002
-0.25861
-0.080022
-0.11032
-0.16772
-0.17665
-0.13456
-0.095011
-0.079065
-0.065033
0.057109
0.0095917
0.04818
0.24718
0.35433
0.30139
0.18978
0.27843
0.34253
0.36932
0.3352
0.35688
0.3352
0.29916
0.29852
0.39069
0.46723
0.55844
0.44714
0.27142
0.13269
0.099843
0.062531
0.053282
0.060617
-0.066947
0.015651
0.13301
0.081665
0.015013
-0.070455
-0.12339
-0.1387
-0.11064
-0.15624
-0.14444
-0.16421
-0.20185
-0.17123
-0.22385
-0.12531
-0.029953
-0.087357
-0.095968
0.036699
-0.00061343
-0.1387
-0.12244
-0.062482
-0.01624
-0.066628
-0.071411
0.046904
0.092508
0.17319
0.081984
0.30139
0.26568
0.18499
0.012781
0.078157
0.02458
0.069547
0.12344
0.092827
-0.005716
-0.092778
-0.097243
-0.022299
-0.19929
-0.23246
-0.25734
-0.3023
-0.30964
-0.38171
-0.41488
-0.35173
-0.23182
-0.17219
-0.18622
-0.132
0.07146
0.26536
0.17415
0.1834
0.22007
0.35338
0.29757
0.28322
0.29629
0.22071
0.21019
0.33584
0.27269
0.21943
0.097292
0.054558
0.0089539
-0.012413
-0.15847
-0.077152
0.02777
-0.12403
-0.18048
-0.19228
-0.15528
-0.26977
-0.34695
-0.18526
0.062212
-0.093735
-0.16358
-0.11446
-0.020067
-0.057061
-0.092141
-0.083849
-0.069817
-0.084487
-0.029634
-0.016878
-0.078427
-0.096605
-0.073644
0.066995
0.33392
0.27907
0.16426
0.016927
0.0076782
0.1665
0.41014
0.37028
0.34317
0.087725
0.099843
0.049774
0.24877
0.20381
0.053282
-0.082892
-0.21173
-0.14093
-0.11159
-0.22481
-0.23246
-0.20982
-0.32909
-0.40148
-0.32367
-0.25797
-0.24586
-0.32654
-0.31059
-0.050044
-0.036331
-0.11159
0.011186
0.085811
0.057428
0.11898
0.15661
0.14226
0.11388
0.13492
0.25866
0.21433
0.21146
0.056471
0.11451
0.26536
0.17638
0.081665
0.035423
-0.09533
-0.20344
-0.18622
-0.092141
-0.040158
-0.091184
-0.13902
-0.046218
-0.10075
-0.17282
-0.08066
-0.15879
-0.25638
-0.1639
-0.00029452
0.089638
0.036061
-0.079384
0.019159
0.055515
0.05679
0.038931
-0.052915
0.0003433
0.011505
0.23921
0.23219
0.012143
-0.074282
-0.10968
-0.14795
-0.062801
-0.13105
-0.21652
-0.18781
-0.24075
-0.16326
-0.13615
0.079752
0.28991
0.18244
0.15151
0.065401
-0.002208
0.18627
0.21242
0.25483
0.26823
0.22422
0.12855
0.05105
0.12217
0.10495
0.20859
0.16713
0.021391
-0.071093
-0.13966
-0.13551
-0.20121
-0.23406
-0.21907
-0.13456
-0.03665
0.0092728
-0.057379
-0.12626
-0.20248
-0.24139
-0.28412
-0.17857
-0.21269
-0.14986
0.11834
0.37124
0.26855
0.24048
0.15501
0.19711
0.13907
0.090914
0.13333
0.18212
0.10399
0.19137
0.17542
-0.013689
-0.13519
-0.24713
-0.34567
-0.22226
-0.3259
-0.38905
-0.38554
-0.32622
-0.22481
0.022667
0.3757
0.17766
0.051369
0.020754
0.015013
0.091233
0.077201
0.082941
0.12599
0.26408
0.17383
0.11388
-0.13934
-0.17729
-0.29561
-0.32112
-0.40786
-0.32463
-0.21588
-0.051958
0.034148
-0.098838
-0.13679
-0.1269
-0.050682
0.022029
0.057428
0.13779
0.083898
0.088362
-0.043985
-0.043666
-0.060569
-0.066309
-0.13073
-0.014645
0.061574
-0.0028458
-0.01337
-0.050682
-0.093735
-0.059293
-0.094692
-0.015602
0.017564
-0.011137
-0.052596
-0.13487
0.0022568
-0.021343
-0.11893
-0.0044404
-0.15273
-0.051001
-0.21109
-0.21365
-0.11446
0.288
0.35784
0.52527
0.21656
0.1346
0.10495
0.12982
0.1295
0.14385
0.044353
0.011505
0.045947
-0.046855
-0.19451
-0.15847
-0.22194
-0.18622
-0.18175
-0.24713
-0.18112
0.032553
0.21242
0.0060837
-0.0095429
0.019478
0.12504
0.09506
0.10431
0.0073593
0.035104
-0.097562
-0.097243
-0.040158
-0.11989
-0.049726
-0.14604
-0.25128
-0.33898
-0.20216
-0.19068
-0.084806
-0.088314
-0.1521
-0.19706
-0.012732
-0.05132
-0.1151
-0.12371
-0.19132
-0.16613
-0.15592
-0.18941
-0.19483
-0.21492
-0.14731
-0.16453
-0.23916
-0.14572
0.074012
0.059023
-0.015602
0.054877
0.37666
0.41269
0.16841
0.038612
0.17957
0.21019
0.30171
0.2188
0.17287
0.098249
0.013738
-0.0041214
-0.0031647
-0.024851
0.098249
-0.057061
-0.22576
-0.23565
-0.085125
0.03925
0.11005
-0.11765
-0.012094
0.079114
0.10877
0.081346
-0.0038025
-0.024213
-0.0015702
0.02777
0.12695
0.031915
-0.066947
0.034148
0.050412
-0.1049
-0.17123
-0.17442
-0.20503
-0.091822
0.052963
-0.022299
-0.10522
-0.027083
-0.10011
-0.13264
0.029045
-0.0063538
0.16203
0.27237
0.15597
0.079114
0.12408
0.059342
-0.0063538
0.073693
0.045947
-0.014008
0.13684
-0.070136
-0.15146
-0.17187
-0.28349
-0.32303
-0.36545
-0.28125
-0.29943
-0.31346
-0.084487
0.066995
-0.017516
0.050412
0.5444
0.53165
0.44746
0.26281
0.17638
0.20253
0.26918
0.3234
0.25451
0.25133
0.18435
0.037018
-0.088314
-0.23119
-0.26499
-0.35939
-0.38681
-0.39415
-0.29018
0.039888
-0.081935
-0.052915
-0.005716
-0.068222
-0.087995
-0.099794
0.059023
0.016608
0.0016189
0.026494
0.16299
0.03351
-0.063758
-0.16995
-0.16039
-0.19674
-0.35875
-0.31857
-0.13487
-0.12339
-0.068541
-0.12052
-0.086081
-0.049726
-0.048769
0.013738
0.0089539
-0.041115
0.13429
0.17287
0.082941
0.084536
0.1362
0.14991
0.26281
0.27014
0.20859
0.22964
0.14321
0.097292
0.094103
0.070503
0.16299
0.071141
-0.045261
-0.058974
0.020754
-0.088952
-0.095968
-0.20599
-0.078746
-0.084806
-0.11191
-0.18207
-0.21333
-0.10235
-0.035056
0.31128
0.47392
0.25675
0.096973
0.13779
0.19137
0.059023
-0.085443
0.11643
0.077201
0.15055
-0.11128
-0.12403
-0.14189
-0.24458
-0.34344
-0.34057
-0.29433
-0.36449
-0.427
-0.41456
-0.21747
-0.20886
-0.2044
-0.30804
-0.29943
-0.1218
-0.070455
0.047542
-0.081935
-0.21333
-0.25223
-0.19611
-0.13392
-0.048769
-0.041753
-0.17251
-0.08927
0.033191
-0.0079484
-0.13073
-0.10203
-0.049088
-0.012413
0.095378
0.015332
-0.084168
-0.051001
-0.013689
-0.0050782
0.12089
0.33807
0.19424
-0.043347
0.030959
0.0131
-0.0044404
-0.10553
0.075606
0.13684
0.055515
-0.094054
-0.073006
-0.0095429
0.070503
-0.094054
-0.22353
-0.20503
-0.1438
-0.11542
-0.049407
-0.069817
0.07146
0.20253
0.32627
0.2239
0.098249
0.074649
0.052963
0.079433
0.11419
-0.1033
-0.046855
0.10367
-0.10011
-0.061206
-0.17888
-0.28189
-0.24522
-0.094054
0.11419
0.050093
-0.091184
0.09793
0.055834
0.081346
0.03351
0.025856
0.066995
-0.023256
0.13301
0.1059
-0.085762
-0.096605
-0.17378
-0.24617
-0.34791
-0.38394
-0.38618
-0.39829
-0.37948
-0.36608
-0.33483
-0.30294
-0.26116
-0.25861
-0.22162
-0.20376
-0.2516
-0.05419
-0.053234
-0.11191
-0.074601
-0.071093
0.12408
0.12504
0.12408
0.052326
0.11643
0.088044
0.13684
0.15884
0.1346
0.15406
0.25834
0.12121
0.044353
0.29342
0.096973
-0.03091
0.2003
0.21593
0.17734
0.21306
0.33871
0.24559
0.27588
0.17798
0.15533
0.17798
0.12057
0.026813
0.11706
0.057747
0.062531
-0.016878
0.008635
-0.026126
-0.11032
-0.084168
0.16618
0.16618
-0.042072
-0.17538
-0.12276
-0.13966
-0.084806
-0.13902
-0.17984
-0.0041214
-0.036331
-0.10777
-0.22066
-0.25734
-0.26435
-0.27966
-0.27392
-0.26244
-0.22863
-0.16581
-0.037288
0.18117
0.41269
0.34381
0.057747
-0.035375
0.10877
0.17511
0.036699
0.12982
0.23889
0.28003
0.18404
-0.017197
-0.05132
-0.1454
-0.13456
-0.093735
-0.1438
-0.19993
-0.18144
-0.21715
-0.13647
-0.10777
-0.01337
0.038612
0.096973
0.08326
0.024899
0.085173
0.0041702
0.12057
0.16267
0.13556
0.11834
0.11196
0.029683
-0.0069916
-0.065352
-0.11542
-0.13232
-0.081617
-0.053552
-0.10936
-0.10841
-0.18941
-0.17187
-0.08927
-0.043028
-0.053871
-0.070455
0.065401
0.14513
0.11069
0.078157
-0.10713
0.022029
0.10877
0.12185
0.10112
0.050093
0.012781
0.1008
0.23315
0.36773
0.34158
0.13779
0.023624
0.052007
0.071141
0.1362
0.16777
0.08613
-0.066309
0.14577
0.1346
0.028407
0.018202
-0.094373
-0.079703
0.079114
0.0041702
-0.0982
-0.11223
-0.013051
0.089319
0.017883
-0.018472
-0.10809
0.043396
-0.075557
-0.1033
-0.088633
-0.08066
-0.16708
-0.15879
-0.15018
-0.14891
-0.14061
-0.15433
-0.14093
-0.044304
-0.015921
0.030002
-0.07779
-0.10681
-0.069498
-0.023256
-0.014645
0.038294
0.12153
0.054877
0.10239
0.15852
0.11196
0.087725
0.049774
0.0016189
-0.0098618
-0.025807
-0.021661
0.014694
-0.031229
-0.045899
-0.081298
-0.1202
-0.13424
-0.095968
0.1244
0.069228
0.060298
0.068271
0.041164
0.042121
0.059342
0.065082
0.017246
0.03925
0.24016
0.23538
0.16363
0.17287
0.1598
0.0044891
-0.013689
-0.06599
-0.089908
-0.084168
0.082622
0.060298
0.06285
0.019797
-0.039839
0.05392
0.0060837
-0.1269
-0.11096
-0.098838
-0.062801
-0.13743
-0.12371
-0.068541
-0.053552
-0.11415
-0.22034
-0.11542
-0.12754
-0.1336
-0.18622
-0.22863
-0.19898
-0.1521
-0.15624
-0.16134
-0.10841
-0.06025
-0.017835
-0.070455
-0.11319
-0.078109
0.023305
0.11037
0.066039
0.22358
0.43693
0.26089
0.15533
0.20604
0.21401
0.22294
0.17798
0.1193
0.19328
0.20891
0.19679
0.14098
0.024899
0.036699
0.0073593
-0.079065
-0.1269
-0.14731
-0.17027
-0.132
-0.14859
0.11164
0.1649
0.13014
0.13269
0.11324
0.17766
0.096335
0.045629
-0.00061343
0.10909
0.22071
0.11643
-0.031867
0.058385
-0.0105
-0.1623
-0.15018
-0.13934
-0.17857
-0.26754
-0.26786
-0.2095
-0.2028
-0.20759
-0.15178
-0.11064
-0.02198
0.11451
0.10431
0.049774
-0.018153
-0.038883
-0.020386
-0.012094
0.07433
0.0064026
0.041164
0.046266
-0.011775
0.0131
-0.09533
-0.063758
-0.084487
-0.014327
-0.057379
-0.12626
-0.091184
-0.11191
-0.025807
-0.037607
-0.0044404
0.067952
0.051369
0.096654
0.10909
0.067952
0.18467
0.15788
0.051369
0.038612
0.10335
0.1126
0.22645
0.20955
0.046904
-0.0044404
0.026175
0.025218
-0.091184
-0.088633
-0.09533
-0.11319
-0.094692
-0.053871
-0.12339
-0.13296
-0.013689
0.33456
0.23347
0.034467
0.0070404
0.075925
0.020435
-0.033142
0.012143
0.017883
0.092189
0.10016
-0.0076295
-0.015283
-0.081298
-0.1572
-0.18494
-0.17442
-0.15369
-0.091822
-0.11574
-0.16421
-0.089908
-0.15241
0.052645
0.16076
0.032234
0.11292
0.067952
0.051369
0.015013
0.060936
0.0044891
0.011824
0.05679
0.080071
0.028726
-0.035375
-0.078109
-0.11542
-0.19961
-0.14827
-0.12371
-0.1438
-0.11319
-0.072368
0.038612
-0.049088
-0.024532
-0.0069916
0.017883
0.052963
0.16363
0.12791
0.090595
0.42992
0.35912
0.14513
0.12344
0.17128
0.15119
0.15119
0.12918
0.070822
0.11738
0.055515
-0.0098618
-0.026764
-0.095649
-0.13551
-0.14572
-0.1403
-0.20057
-0.1926
-0.075876
0.050412
-0.10681
-0.097562
0.030321
0.081665
0.059023
0.021072
0.040526
0.08326
0.11675
0.053601
-0.02517
0.049774
0.017564
-0.091822
-0.00061343
-0.076833
-0.13456
-0.16262
-0.1757
-0.18048
-0.18175
-0.16549
-0.098838
-0.062801
-0.073325
-0.077471
0.00066221
0.08613
0.22039
0.21274
0.15151
0.10176
0.080709
0.093146
0.0019378
0.13078
0.12631
0.11037
0.059342
0.059342
-0.028359
-0.11128
-0.19834
-0.21396
-0.21907
-0.21492
-0.18526
-0.1556
-0.10777
-0.05419
-0.062163
0.030959
0.0016189
0.0079971
0.054239
0.096335
0.15214
0.13397
0.13078
0.061893
0.10431
0.18053
0.39675
0.21784
0.084536
0.01597
-0.0082673
0.12376
0.0057648
0.043715
-0.0034836
0.027132
0.034786
0.02171
-0.040158
-0.017516
-0.041434
-0.079703
0.089638
0.022667
-0.03091
0.027132
0.023943
0.053282
0.12057
0.11388
0.10877
0.10622
0.084217
0.22422
0.15661
0.13333
0.085492
0.06572
0.15597
0.027132
-0.023894
0.004808
0.027451
0.00098112
0.069547
0.14481
0.014694
-0.033142
-0.02804
-0.046855
-0.027721
-0.060569
0.061255
-0.0031647
-0.012094
-0.028996
-0.070455
-0.17506
-0.18973
-0.13838
-0.079065
-0.016878
-0.057698
-0.10809
-0.083211
-0.014008
-0.036969
0.012143
-0.046855
-0.0041214
-0.025488
0.041164
0.022029
0.14545
0.081028
0.12312
0.091552
0.065082
0.017883
0.040207
0.061574
0.029364
0.14226
0.10271
0.06572
-0.041434
0.18627
0.1531
0.12855
0.022348
-0.0018891
-0.018153
0.0003433
0.023305
0.0003433
-0.03378
0.0038513
0.076563
-0.036012
-0.057379
-0.062482
-0.043028
-0.10203
0.049137
-0.018791
-0.094054
-0.12531
0.019478
0.046585
-0.024213
0.014056
0.16107
0.26344
0.15119
0.063487
0.087725
0.10144
0.16107
0.13811
0.070185
-0.069498
-0.029315
0.0019378
0.035423
-0.031548
-0.053871
-0.16358
-0.1859
-0.087357
0.11069
0.096335
-0.002208
-0.057698
-0.066947
0.0013
0.098568
0.01597
0.14321
0.078476
0.017564
-0.073325
0.029364
-0.0044404
-0.049088
-0.036969
-0.13838
-0.14221
-0.23278
-0.19611
-0.14795
-0.014645
0.10782
0.064444
0.11962
0.0079971
-0.048131
-0.029953
-0.039202
-0.058017
-0.043028
-0.034418
-0.041753
-0.037926
-0.049726
-0.10458
-0.1438
-0.18399
-0.2028
-0.23565
-0.24267
-0.16262
-0.087038
-0.024213
-0.036969
0.0019378
-0.054828
-0.036012
-0.0079484
0.045947
0.025537
0.011824
0.12472
0.13907
0.047223
0.1075
0.1244
0.0019378
-0.032504
0.02458
-0.02517
-0.052915
-0.032504
-0.044942
0.047223
0.061893
0.12153
0.14353
0.12185
0.13684
0.19169
0.45224
0.55046
0.39515
0.29693
0.30969
0.28672
0.23857
0.2998
0.24112
0.12057
0.086449
0.19233
0.058704
-0.077152
-0.18462
-0.20759
-0.23437
-0.23597
-0.15975
-0.14636
-0.22066
-0.21588
-0.087676
-0.089908
-0.074601
-0.11478
-0.17984
-0.18781
-0.17442
-0.17251
-0.072049
-0.12339
-0.2028
-0.18909
-0.14699
-0.21524
-0.25415
-0.25989
-0.23884
-0.15911
-0.1269
-0.16613
-0.08927
-0.0079484
0.004808
-0.0063538
0.048818
0.0089539
0.039888
0.066995
0.051369
0.031278
0.072098
0.074968
-0.0066727
0.081346
0.17734
0.1598
0.10813
0.13843
0.17447
0.21688
0.23347
0.22517
0.37698
0.33137
0.40217
0.509
0.45957
0.47456
0.3875
0.27748
0.090914
0.059342
0.16681
0.10845
-0.023575
-0.19515
-0.10011
-0.1674
-0.31825
-0.3546
-0.2736
-0.32112
-0.2685
-0.18048
-0.1623
-0.21141
-0.19387
-0.087357
-0.11478
-0.13583
-0.17219
-0.10362
-0.24841
-0.12403
-0.0060349
-0.076514
-0.16294
-0.2264
-0.27807
-0.22576
-0.15305
-0.18781
-0.20822
-0.13296
0.16745
0.12472
0.03638
-0.015283
-0.030591
-0.012413
0.058704
0.13907
0.15055
0.035423
0.035742
0.12599
0.1598
0.12918
0.020116
-0.025488
-0.054509
-0.090227
-0.094054
-0.050363
-0.08353
-0.1403
-0.2197
-0.046536
-0.0015702
-0.079703
-0.043028
-0.064395
-0.088952
-0.074919
0.015013
-0.026445
-0.052915
-0.0012513
0.033829
-0.00093234
-0.034737
-0.076195
-0.014327
-0.0060349
-0.013689
0.045629
0.13524
0.18021
0.081028
0.032553
0.16394
0.16171
0.12536
0.10048
0.1716
0.21338
0.11292
0.12695
0.096654
0.22868
0.30235
0.1665
0.13588
0.13684
0.061574
-0.053234
-0.056423
-0.061525
0.0013
0.033191
-0.019429
-0.10522
-0.2095
-0.35843
-0.26945
-0.25765
-0.309
-0.32718
-0.3782
-0.36066
-0.32399
-0.2634
-0.15847
-0.17091
-0.1757
-0.18112
-0.15114
-0.11989
-0.10585
-0.067903
-0.11
-0.070455
-0.075557
-0.13169
-0.15688
-0.16772
-0.15433
-0.13328
-0.093097
0.015013
0.029045
-0.058655
-0.057698
0.0016189
-0.0089051
-0.023256
0.22294
0.49083
0.34604
0.28194
0.24846
0.19584
0.21688
0.25707
0.27939
0.35816
0.19839
0.11228
0.19743
0.33775
0.34477
0.2459
0.14577
0.1346
-0.0038025
-0.012732
0.08326
0.059023
0.063169
-0.076514
-0.088633
-0.023256
-0.040158
-0.096924
-0.18749
-0.24554
-0.368
-0.35907
-0.31442
-0.28476
-0.29529
-0.33738
-0.34344
-0.31889
-0.25223
-0.21046
-0.19355
-0.20886
-0.22257
-0.20408
-0.19292
-0.14125
-0.10298
-0.13934
-0.20759
-0.14061
-0.12499
-0.14636
-0.1269
-0.12531
-0.06312
0.0057648
0.034786
0.011505
0.0022568
0.030002
0.04818
0.076882
0.092508
0.10973
0.16618
0.17766
0.17925
0.098249
0.070822
0.015013
-0.018472
0.0041702
0.035104
0.032553
-0.01624
-0.05132
-0.052915
-0.014964
0.058704
0.30171
0.22167
0.18148
0.15533
0.080709
0.11132
0.15725
0.20859
0.39228
0.40568
0.25228
0.16777
0.11419
0.10877
0.13014
0.0076782
-0.053234
-0.10266
-0.17346
-0.17761
-0.16039
-0.29465
-0.25957
-0.28062
-0.28986
-0.38235
-0.31857
-0.26531
-0.25638
-0.19387
-0.19738
-0.15241
-0.18718
-0.086081
-0.0082673
-0.0050782
-0.090227
-0.093735
-0.023575
-0.055147
-0.084806
-0.073963
-0.070136
-0.088952
-0.16932
-0.16772
-0.049407
-0.10266
-0.11574
-0.15433
-0.15847
-0.16804
-0.13392
-0.16421
-0.11542
-0.041753
-0.050682
-0.11542
-0.084168
-0.010819
-0.023894
-0.029315
0.064763
0.11101
0.14417
0.27142
0.24846
0.15852
0.12185
0.11738
0.088044
0.14353
0.28385
0.31288
0.12791
0.13333
0.12631
0.053282
0.0095917
0.20572
0.29948
0.33488
0.25834
0.17511
0.1716
0.17351
0.1362
0.10495
0.086768
-0.0089051
-0.092778
-0.032823
-0.062801
-0.12754
-0.18367
-0.28476
-0.37469
-0.41392
-0.42732
-0.40882
-0.41839
-0.40244
-0.38809
-0.36991
-0.3495
-0.31665
-0.30262
-0.24171
-0.22544
-0.20121
-0.20918
-0.22226
-0.13487
-0.021343
0.015651
0.0032135
0.072736
0.041164
0.012462
0.058066
0.042758
0.063487
0.061574
0.054239
-0.0095429
-0.011775
-0.099157
-0.14954
-0.080979
-0.060569
-0.11159
-0.12945
-0.072049
-0.09246
-0.06886
-0.01911
0.029045
0.10622
0.17989
0.19552
0.17255
0.13173
0.14896
0.1885
0.15852
0.092508
0.069547
0.18914
0.14353
0.072417
0.043715
-0.066628
-0.094054
-0.10203
-0.14859
-0.044623
-0.055466
-0.027721
-0.023894
0.029045
-0.015921
-0.027721
0.038612
0.2223
0.26631
0.19839
0.11228
0.074012
0.06572
-0.0098618
0.026813
0.046904
0.069547
0.036061
-0.073963
-0.15433
-0.1741
-0.24458
-0.22672
-0.24873
-0.25574
-0.22257
-0.2079
-0.22576
-0.25606
-0.21237
-0.21811
-0.18016
-0.16836
-0.095011
-0.08353
-0.069498
-0.043985
-0.040796
-0.028359
-0.0044404
0.018521
0.041164
0.013738
0.044034
-0.00061343
0.030002
0.015332
-0.015283
-0.0073105
-0.0047593
-0.049088
-0.074601
-0.055466
-0.01624
-0.034099
-0.011775
0.083579
0.11515
0.19169
0.15916
0.14353
0.16745
0.21848
0.21465
0.24718
0.28035
0.21816
0.1716
0.15374
0.20317
0.17893
0.16426
0.089319
0.027451
-0.0079484
0.015013
0.012462
-0.0044404
-0.029315
-0.076195
-0.080979
-0.079384
-0.10841
-0.067266
-0.077152
-0.068541
-0.041434
-0.02517
-0.046536
-0.041434
-0.043028
-0.024851
0.02458
0.016289
-0.018153
0.022348
0.01884
-0.050682
-0.042391
0.0038513
0.01023
-0.048131
-0.058655
-0.092141
-0.10171
-0.036012
-0.022299
-0.037607
-0.0047593
-0.041434
-0.067585
-0.054828
0.013738
0.016608
0.062531
0.063169
-0.0063538
0.0025757
-0.039202
-0.048131
-0.036331
-0.035375
-0.028359
-0.018791
-0.026126
-0.053234
-0.087995
-0.11287
-0.10968
-0.060569
-0.073644
-0.06886
-0.05419
-0.044942
-0.051001
0.052645
0.10144
0.093784
0.09187
0.089957
0.099524
0.11515
0.13747
0.1952
0.1716
0.1228
0.12823
0.13971
0.10654
0.047223
0.0057648
-0.0073105
0.014694
0.018521
-0.0028458
-0.023256
-0.043985
-0.058017
-0.0034836
-0.035375
-0.017197
0.038294
0.051369
0.052007
0.052326
0.095378
0.072098
0.080071
0.054558
0.059979
0.045629
0.033829
0.054877
0.030959
0.0051269
-0.0034836
-0.0095429
-0.0864
-0.09533
-0.10936
-0.13519
-0.14859
-0.13487
-0.14093
-0.14253
-0.12913
-0.13583
-0.14061
-0.12818
-0.1033
-0.087038
-0.067903
-0.048131
-0.047174
-0.046218
-0.051639
-0.038564
-0.044623
-0.031867
-0.026126
-0.028678
-0.037288
-0.025488
-0.0015702
-0.018472
-0.01337
0.0025757
0.013738
0.033191
0.028088
0.011505
0.0131
0.018202
0.033829
0.020116
0.0054459
0.0070404
0.033829
0.063806
0.091233
0.11515
0.10176
0.096335
0.084854
0.081665
0.10431
0.11037
0.10271
0.11037
0.072417
0.044034
0.074649
-0.00093234
-0.01337
-0.055785
-0.068541
-0.076195
-0.094054
-0.10936
-0.10298
-0.091503
-0.09533
-0.090227
-0.079703
-0.08353
-0.083211
-0.074282
-0.074919
-0.073006
-0.067266
-0.065671
-0.067585
-0.048131
-0.053552
-0.05132
-0.027083
-0.02517
-0.019429
-0.0095429
-0.00093234
-0.012094
-0.0089051
-0.0012513
-0.0079484
-0.017197
-0.012732
-0.013689
-0.026764
-0.031229
-0.020386
-0.016878
-0.021343
-0.020386
-0.017835
-0.021024
-0.017516
-0.0015702
-0.0089051
-0.011775
-0.0079484
-0.01337
-0.0053971
-0.0082673
-0.018791
-0.022937
-0.0095429
-0.017835
-0.014327
-0.0034836
0.020116
0.03351
0.027132
0.037975
0.058704
0.06285
0.055834
0.04818
0.054558
0.024899
0.041164
0.059979
0.034786
0.038931
0.045947
0.018202
0.00066221
0.0079971
-0.0034836
0.00098112
-0.002208
-0.020386
-0.02804
-0.027083
-0.039839
-0.062482
-0.070136
-0.070455
-0.075238
-0.081617
-0.075238
-0.062163
-0.063439
-0.056742
-0.043028
-0.043347
-0.032823
-0.016559
-0.021661
-0.020386
-0.0015702
-0.0066727
-0.010819
-0.01911
-0.028996
-0.028359
-0.031867
-0.024532
-0.023894
-0.028996
-0.03091
-0.02517
-0.02198
-0.015283
-0.011775
-0.01624
-0.020705
-0.017516
-0.021661
-0.024213
-0.022618
-0.027083
-0.039839
-0.028359
-0.02198
-0.02517
-0.018472
-0.017197
-0.012413
-0.0079484
0.00098112
-0.005716
-0.0034836
-0.0018891
-0.0041214
-0.010181
-0.011775
-0.015602
-0.014327
-0.021343
-0.013051
-0.0079484
-0.014008
-0.014964
-0.010181
-0.0095429
0.0022568
0.016289
-0.00061343
-0.0050782
0.0016189
-0.005716
-0.0105
-0.011456
-0.016878
-0.028678
-0.028359
-0.021343
-0.016559
-0.019748
-0.013051
-0.014327
-0.016559
-0.0098618
0.0038513
-0.0041214
-0.0105
-0.0105
-0.017197
-0.019748
-0.021024
-0.026445
-0.038564
-0.027402
-0.022299
-0.028359
-0.02517
-0.020386
-0.01911
-0.010819
-0.0012513
-0.0047593
-0.0079484
-0.0038025
-0.012413
-0.023894
-0.023894
-0.018153
-0.022618
-0.034418
-0.029953
-0.023575
-0.02804
-0.024851
-0.015921
-0.021661
-0.01624
-0.0012513
-0.0095429
-0.0089051
-0.0066727
-0.019748
-0.029634
-0.017835
-0.023894
-0.034737
-0.03378
-0.035694
-0.033142
-0.032186
-0.029634
-0.023894
-0.024851
-0.022618
-0.012094
-0.018791
-0.023256
-0.022299
-0.028678
-0.030272
-0.031867
-0.037607
-0.048131
-0.037288
-0.035694
-0.038245
-0.036012
-0.030591
-0.026126
-0.022618
-0.020705
-0.01911
-0.01911
-0.019748
-0.023575
-0.027721
-0.028996
-0.033142
-0.037288
-0.046218
-0.03952
-0.031229
-0.03378
-0.029634
-0.026126
-0.023575
-0.016878
-0.0034836
-0.013689
-0.020067
-0.009224
-0.017516
-0.026126
-0.028678
-0.029634
-0.029953
-0.027721
-0.033142
-0.035694
-0.036969
-0.027721
-0.021024
-0.022937
-0.018791
-0.0076295
-0.013051
-0.019748
-0.014964
-0.022618
-0.024851
-0.025488
-0.031229
-0.040477
-0.028996
-0.023894
-0.02804
-0.025807
-0.022618
-0.018791
-0.012413
-0.005716
-0.0082673
-0.0082673
-0.0089051
-0.011137
-0.017197
-0.020705
-0.022299
-0.024213
-0.037607
-0.029315
-0.021024
-0.024213
-0.021024
-0.018153
-0.019748
-0.012094
-0.00029452
-0.009224
-0.011775
-0.0073105
-0.012094
-0.015921
-0.017197
-0.024213
-0.02804
-0.022299
-0.017835
-0.017835
-0.024851
-0.014645
-0.0082673
-0.0073105
-0.0038025
0.0067215
0.00066221
-0.0060349
-0.0018891
-0.0066727
-0.011137
-0.012732
-0.023256
-0.031867
-0.018791
-0.015602
-0.018472
-0.016878
-0.015283
-0.0085862
-0.0034836
0.00098112
2.4388e-05
0.0003433
-0.0018891
-0.0028458
-0.0085862
-0.0098618
-0.013689
-0.016559
-0.028359
-0.018472
-0.010819
-0.014645
-0.010181
-0.0060349
-0.0095429
-0.00093234
0.013419
0.0019378
0.0028946
0.0060837
2.4388e-05
-0.0025269
-0.0047593
-0.012094
-0.015921
-0.01337
-0.011775
-0.0063538
-0.0079484
-0.0034836
0.0025757
0.0028946
0.0060837
0.01884
0.013419
0.0070404
0.012781
0.0051269
-0.00029452
0.0013
-0.0063538
-0.015602
-0.0034836
-0.002208
-0.0047593
-0.0018891
0.0013
0.0060837
0.011505
0.016289
0.014694
0.015651
0.015013
0.015651
0.012143
0.0095917
0.0057648
-0.002208
-0.017835
-0.0028458
0.011186
0.00098112
0.0054459
0.0038513
0.0041702
0.011186
0.022348
0.010548
0.0079971
0.014375
0.008316
0.0032135
-0.0028458
-0.0095429
-0.015283
-0.012094
-0.0098618
-0.0069916
-0.0076295
-0.0044404
0.0016189
-0.00093234
0.0044891
0.019478
0.011186
0.0038513
0.0070404
0.0019378
-0.00061343
-0.0018891
-0.0095429
-0.020067
-0.0069916
-0.005716
-0.0095429
-0.0066727
-0.0034836
0.0003433
0.0067215
0.011824
0.012462
0.0092728
0.0064026
0.0054459
0.0016189
-0.0047593
-0.0076295
-0.0098618
-0.022299
-0.014327
-0.0073105
-0.012413
-0.009224
-0.0041214
-0.0053971
2.4388e-05
0.011505
0.0028946
0.0003433
0.004808
-0.0012513
-0.0034836
-0.0063538
-0.014008
-0.016878
-0.015921
-0.015283
-0.0098618
-0.010819
-0.0082673
-0.0012513
-0.0012513
0.0035324
0.016289
0.008635
0.0016189
0.0032135
-0.0025269
-0.0060349
-0.0079484
-0.015921
-0.024213
-0.015602
-0.015283
-0.017835
-0.017835
-0.012413
-0.010181
-0.0076295
-0.002208
-0.00061343
-0.0038025
-0.0073105
-0.0060349
-0.013051
-0.020386
-0.02198
-0.024851
-0.035694
-0.023575
-0.017516
-0.023894
-0.021024
-0.015602
-0.017835
-0.0085862
0.0044891
-0.005716
-0.0015702
2.4388e-05
-0.0069916
-0.011456
-0.011137
-0.016559
-0.020386
-0.020067
-0.015602
-0.011775
-0.011456
-0.0098618
-0.0041214
-0.0060349
2.4388e-05
0.014694
0.011186
0.0064026
0.010867
0.0073593
0.00098112
-0.0063538
-0.012413
-0.017516
-0.0050782
-0.0031647
-0.0047593
-0.0028458
-0.0025269
0.0013
0.0035324
0.0064026
0.01023
0.0022568
2.4388e-05
0.0035324
-0.0095429
-0.014964
-0.016878
-0.028678
-0.041753
-0.034737
-0.031229
-0.039839
-0.031548
-0.032186
-0.036012
-0.029634
-0.021024
-0.032823
-0.033461
-0.023575
-0.028996
-0.036969
-0.036969
-0.043028
-0.044304
-0.04271
-0.040796
-0.036012
-0.032823
-0.023575
-0.01337
-0.015921
-0.0105
0.00098112
-0.011775
-0.016878
-0.0073105
-0.011775
-0.016878
-0.018472
-0.024532
-0.032504
-0.027402
-0.025807
-0.029315
-0.024213
-0.02198
-0.015283
-0.0085862
-0.0095429
-0.0012513
-0.0012513
-0.0044404
-0.00093234
-0.0076295
-0.010819
-0.011456
-0.016559
-0.026764
-0.016559
-0.012094
-0.017516
-0.0105
-0.0089051
-0.0095429
-0.0038025
0.0076782
-0.0031647
-0.00093234
0.0022568
-0.0038025
-0.012413
-0.014964
-0.025488
-0.029315
-0.029953
-0.02804
-0.019748
-0.02517
-0.025488
-0.014327
-0.019748
-0.012413
0.0051269
-0.00093234
-0.0038025
0.019159
0.020754
0.0057648
0.0099106
-0.002208
-0.012732
-0.0066727
0.0022568
0.0054459
0.0095917
0.013419
0.013738
0.0041702
0.0003433
-0.002208
-0.0095429
-0.026764
-0.029953
-0.02517
-0.030272
-0.04271
-0.048131
-0.049407
-0.04558
-0.050044
-0.056104
-0.046218
-0.045899
-0.041115
-0.025807
-0.011775
-0.022618
-0.018791
-0.018791
-0.028359
-0.025488
-0.022618
-0.022299
-0.028996
-0.028359
-0.024532
-0.012413
0.017883
0.040845
0.03638
0.065082
0.069228
0.12121
0.10208
0.094741
0.099843
0.09187
0.087406
0.093784
0.066677
0.040845
0.044034
0.046904
0.022667
-0.022618
-0.044623
-0.038245
-0.051639
-0.074601
-0.065671
-0.073963
-0.085762
-0.090227
-0.0982
-0.096286
-0.093097
-0.097881
-0.10968
-0.097562
-0.08927
-0.090227
-0.084806
-0.079065
-0.072368
-0.061844
-0.03665
-0.023575
-0.022299
-0.017516
-0.0105
0.0095917
0.028726
0.033829
0.028088
0.036061
0.041483
0.05392
0.075925
0.054239
0.054239
0.056153
0.057747
0.068909
0.031596
-0.0031647
-0.016878
-0.022618
-0.031548
-0.040796
-0.058017
-0.073644
-0.069498
-0.082573
-0.081935
-0.080022
-0.072368
-0.055147
-0.050363
-0.048131
-0.035056
-0.033142
-0.039202
-0.038245
-0.034418
-0.034099
-0.028678
-0.028678
-0.03952
-0.036331
-0.027083
-0.027083
-0.023894
-0.026445
-0.018472
-0.0063538
0.0025757
-0.0028458
-0.0079484
-0.0034836
-0.005716
-0.010819
-0.0066727
-0.015283
-0.017835
-0.016878
-0.01337
-0.0050782
-0.0050782
-0.00029452
0.0070404
0.0057648
0.014375
0.029045
0.019159
0.013738
0.022986
0.017883
0.012781
0.0131
0.0044891
-0.002208
0.008635
0.0076782
0.0076782
0.010867
0.015332
0.019159
0.022348
0.023305
0.034467
0.028088
0.022029
0.025537
0.01884
0.014694
0.016289
0.0067215
-0.0028458
0.0079971
0.012143
0.0070404
0.0095917
0.01023
0.016289
0.021391
0.028088
0.020435
0.022029
0.023624
0.020435
0.0131
0.012462
0.0089539
0.0044891
-0.002208
0.0013
0.0076782
0.0051269
0.011505
0.01597
0.0131
0.019797
0.033829
0.023305
0.01884
0.02458
0.017883
0.011824
0.011186
0.0041702
-0.0038025
0.0019378
0.0022568
0.0099106
0.0073593
0.0057648
0.015651
0.016289
0.016927
0.022348
0.019159
0.014694
0.015651
0.010548
0.0076782
0.004808
-0.002208
-0.015921
-0.0047593
0.0054459
-0.0018891
0.0032135
0.0070404
0.011186
0.01597
0.023943
0.018202
0.016927
0.013738
0.015013
0.0095917
0.0028946
-0.002208
-0.0063538
-0.013689
-0.0105
-0.00029452
0.008316
0.01023
0.015332
0.026813
0.032553
0.046266
0.030959
0.037656
0.04818
0.037337
0.028726
0.031596
0.022029
0.013738
0.019478
0.010867
0.0019378
-0.0028458
0.0013
0.0013
-0.0018891
-0.0047593
0.00098112
0.0044891
-0.0038025
-0.0050782
-0.012413
-0.016878
-0.0041214
0.017564
0.040845
0.044672
0.035742
0.033829
0.041483
0.044353
0.042758
0.060617
0.07146
0.06572
0.062531
0.05105
0.019159
-0.0018891
0.0028946
-0.01911
-0.026445
-0.053552
-0.059293
-0.044623
-0.050682
-0.053871
-0.050682
-0.05419
-0.046536
-0.032823
-0.038883
-0.03952
-0.032186
-0.035056
-0.037288
-0.037926
-0.045899
-0.055466
-0.040477
-0.039202
-0.038564
-0.038564
-0.035056
-0.027402
-0.024851
-0.020386
-0.0098618
-0.014008
-0.017516
-0.014327
-0.016878
-0.017197
-0.014327
-0.019748
-0.030591
-0.014645
-0.0073105
-0.009224
-0.0034836
-0.00061343
0.0041702
0.010548
0.020435
0.011824
0.0092728
0.011824
0.0073593
0.0003433
-0.0015702
-0.0095429
-0.015283
-0.020067
-0.014645
-0.0082673
-0.014008
-0.0044404
0.0025757
-0.00029452
0.010548
0.029045
0.014375
0.015332
0.026813
0.026175
0.021391
0.019159
0.01597
0.010548
0.013738
0.015013
0.021072
0.020435
0.021391
0.027451
0.032234
0.037018
0.043396
0.032872
0.020754
0.025856
0.0131
0.01023
0.022029
0.017883
0.0099106
0.017883
0.014694
0.0092728
0.01023
0.019797
0.037018
0.044034
0.047542
0.044034
0.040207
0.031915
0.028726
0.03638
0.034148
0.037018
0.044034
0.030002
0.018202
0.027132
0.032553
0.044353
0.081028
0.074649
0.074968
0.12344
0.11962
0.11706
0.10431
0.09187
0.10239
0.08613
0.069547
0.065082
0.052645
0.057428
0.038931
0.028726
0.01023
-0.0041214
-0.022299
-0.019748
-0.011456
-0.026126
-0.03665
-0.039839
-0.048769
-0.048131
-0.044942
-0.052596
-0.061525
-0.050363
-0.038245
-0.043347
-0.041753
-0.027083
-0.028996
-0.0050782
0.0073593
0.0035324
0.0025757
0.015651
0.017883
0.011505
0.021391
0.019478
0.02777
0.052326
0.1362
0.10048
0.098249
0.10782
0.10654
0.071779
0.057109
0.10271
0.12663
0.13779
0.13652
0.13014
0.079433
0.046585
0.030002
0.0079971
-0.015283
-0.022618
-0.042072
-0.043028
-0.060887
-0.04271
-0.075238
-0.095649
-0.075876
-0.089908
-0.10617
-0.10075
-0.080022
-0.096605
-0.067266
-0.062482
-0.073325
-0.050363
-0.045261
-0.056104
-0.046855
-0.051958
-0.04271
-0.033461
-0.031867
-0.061525
-0.039202
-0.054828
-0.059612
-0.089589
-0.096924
-0.093735
-0.086719
-0.096605
-0.093735
-0.077152
-0.074919
-0.059931
-0.042391
-0.035375
-0.012413
0.0131
-0.014008
-0.030591
-0.002208
-0.011456
-0.017516
-0.0053971
-0.026764
-0.03091
-0.027721
-0.019429
-0.00029452
-0.002208
0.0041702
-0.0066727
-0.03378
-0.028678
-0.056742
-0.075557
-0.057698
-0.027721
-0.073006
-0.073963
-0.077471
-0.12499
-0.16071
-0.14986
-0.13105
-0.16326
-0.15401
-0.11829
-0.1033
-0.069179
-0.062801
-0.051958
-0.010819
-0.016559
0.011824
0.021072
0.030959
0.071141
0.070503
0.052963
0.058066
0.067314
0.076563
0.074968
0.031596
0.0025757
0.052326
0.081028
0.052963
0.058704
0.029364
0.027451
0.015651
0.0099106
0.059023
0.077201
0.082303
0.076244
0.1244
0.13811
0.17096
0.17128
0.16267
0.16937
0.18276
0.18946
0.18148
0.1598
0.15661
0.1311
0.10303
0.065401
0.079752
0.039888
-0.0085862
-0.051639
-0.051639
-0.014964
0.0038513
-0.018791
-0.047493
-0.07779
-0.060887
-0.045261
0.0016189
-0.017516
0.0019378
0.10622
0.13779
0.13301
0.10973
0.1346
0.15661
0.22358
0.22964
0.29087
0.30363
0.27429
0.25037
0.13939
0.12695
0.1531
0.098568
0.061893
0.02171
0.054877
0.054239
0.0035324
0.0095917
0.08613
0.017883
0.010548
0.0131
0.026175
0.10239
0.069866
0.06285
0.04818
0.14194
0.13397
0.076563
0.060298
0.0057648
-0.066628
-0.10298
-0.14349
-0.14667
-0.16326
-0.13647
-0.132
-0.15305
-0.23182
-0.22768
-0.13232
-0.15528
-0.16836
-0.094692
-0.058974
-0.027083
-0.027721
0.0003433
0.10239
0.15693
0.19871
0.21975
0.14832
0.21338
0.1783
0.06285
0.044034
0.1008
0.14481
0.053282
-0.05132
-0.12945
-0.20503
-0.23246
-0.2449
-0.20057
-0.25128
-0.29305
-0.30166
-0.32176
-0.28062
-0.2213
-0.19419
-0.19132
-0.14349
-0.10617
-0.14093
-0.095011
-0.0063538
0.14417
0.19169
0.14513
0.16171
0.18308
0.17574
0.28035
0.31734
0.39037
0.37028
0.22805
0.16713
0.069547
0.022986
-0.022299
0.043077
-0.047812
-0.16358
-0.061206
-0.053234
-0.10841
-0.075557
-0.15688
-0.16421
-0.13998
-0.10043
0.088681
0.17319
0.16618
0.13684
0.096335
0.049774
0.048499
0.031596
0.069547
0.06572
0.059661
0.00098112
-0.10553
-0.16262
-0.16198
-0.13966
-0.057698
-0.079065
-0.034418
-0.078109
-0.088314
-0.080022
-0.021343
0.039888
0.0035324
0.0054459
0.04531
0.11324
0.15757
0.28354
0.21369
0.1582
0.16937
0.22135
0.23697
0.2239
0.33265
0.32786
0.28577
0.21306
0.16267
0.20763
0.16363
0.12312
0.16107
0.08613
0.010548
-0.040796
-0.014008
0.031278
-0.088314
-0.096286
-0.062163
-0.071411
-0.043347
-0.02198
-0.095968
-0.1269
-0.02517
0.0044891
-0.061206
-0.019429
0.086449
0.21465
0.23634
0.19679
0.14449
0.11738
0.13142
0.11802
0.092827
0.14896
0.1177
-0.0038025
0.1126
0.20955
0.04818
0.004808
0.12185
0.19839
0.10813
0.084854
-0.0025269
0.032872
-0.0095429
-0.026445
0.038294
-0.023894
-0.073644
-0.024532
0.020435
-0.17984
-0.22927
-0.31633
-0.38267
-0.3208
-0.37501
-0.3849
-0.34759
-0.34727
-0.32239
-0.29401
-0.30804
-0.20025
-0.055785
-0.024532
-0.087357
-0.075876
-0.056104
-0.037607
0.02171
0.008316
0.052326
0.16107
0.30969
0.23889
0.10208
0.042758
-0.0076295
-0.01624
-0.087357
-0.051639
0.013419
0.14577
0.14609
0.12536
0.26344
0.21082
0.063806
-0.017516
-0.0066727
0.096973
0.28098
0.25228
0.15757
0.11356
0.089
-0.0044404
0.10845
0.11037
-0.02198
-0.10904
-0.01624
0.13588
0.19265
0.41333
0.32436
0.2475
0.24144
0.1665
0.097292
0.15151
0.14927
0.14864
0.10016
-0.014645
-0.12212
-0.21333
-0.24936
-0.20472
-0.2398
-0.28604
-0.33834
-0.33993
-0.37087
-0.35365
-0.26244
-0.22353
-0.1639
-0.18335
-0.26276
-0.28795
-0.22608
-0.23342
-0.21141
-0.17027
-0.23948
-0.25797
-0.26499
-0.26116
-0.24617
-0.16071
-0.048769
-0.020386
-0.044623
0.00066221
0.0003433
0.10463
0.14258
0.2003
0.25866
0.45925
0.72618
0.76573
0.54408
0.48572
0.54058
0.45925
0.47169
0.63529
0.61967
0.61074
0.36358
0.19552
0.15119
0.057109
0.014694
0.13588
0.049137
0.02458
-0.053552
-0.053871
-0.11319
-0.15401
0.0028946
0.091233
0.089
0.018202
0.1075
0.28194
0.20317
0.08613
0.098249
0.0022568
-0.17091
-0.25829
-0.24458
-0.14667
-0.25191
-0.31729
-0.40403
-0.4305
-0.48344
-0.56349
-0.54372
-0.57082
-0.55297
-0.53574
-0.49397
-0.49652
-0.39351
-0.25478
-0.26627
-0.30326
-0.33706
-0.24267
-0.13998
-0.038883
-0.021024
0.023943
0.011186
0.047223
0.15597
0.31
0.46627
0.63402
0.33201
0.24941
0.18308
0.10335
0.13971
0.23825
0.26536
0.2172
0.19934
-0.023256
-0.057698
0.092508
0.11706
-0.036012
-0.097243
-0.10362
-0.0018891
0.073055
0.057428
0.11164
0.073055
0.075925
0.19041
0.10718
0.18276
0.090276
0.080071
-0.072049
-0.11574
-0.12913
-0.089589
-0.12403
-0.072049
-0.18335
-0.079065
-0.1285
-0.08353
-0.026764
-0.021661
0.16937
0.04818
0.019478
-0.050682
-0.06312
0.045629
0.061574
0.041164
-0.13424
-0.2449
-0.3629
-0.3208
-0.32335
-0.368
-0.43943
-0.40403
-0.42317
-0.4203
-0.073644
0.32404
0.25324
0.0051269
-0.084487
-0.031229
-0.011456
0.11451
0.23442
0.20987
0.14577
0.60117
0.54696
0.31192
0.054239
-0.024213
-0.13583
-0.17984
-0.18207
-0.12658
-0.22608
-0.22162
-0.30294
-0.23533
-0.27105
-0.34567
-0.31378
-0.3495
-0.41105
-0.32271
-0.15146
-0.005716
0.037337
0.10271
0.12567
0.18691
0.26249
0.22167
0.25196
0.29246
0.32754
0.29023
0.38622
0.3419
0.23219
0.19169
0.14162
0.12759
0.19073
0.369
0.34827
0.16012
-0.014964
-0.0031647
0.14927
0.18467
0.11675
0.1834
0.060617
0.15693
-0.01337
-0.038883
-0.06312
-0.20408
-0.28476
-0.19611
-0.13041
-0.12403
-0.23756
-0.30677
-0.2567
-0.29656
-0.34025
-0.34089
-0.23501
-0.14125
-0.1521
-0.26467
-0.15911
-0.16294
-0.087357
-0.028678
-0.11446
-0.13328
0.019797
0.03638
0.022986
-0.047174
-0.12307
-0.088314
-0.024851
-0.092778
-0.087038
-0.19483
-0.13838
-0.19292
-0.22481
0.036699
0.23857
0.21784
0.48572
0.50837
0.53292
0.34253
0.29055
0.22964
0.3521
0.23666
0.4752
0.45224
0.32499
0.15374
0.043077
-0.0105
-0.052596
-0.047493
-0.22672
-0.26148
-0.31346
-0.30964
-0.25351
-0.25893
-0.27232
-0.18048
-0.082573
-0.04558
-0.22353
-0.2618
-0.30932
-0.28476
-0.24107
-0.20248
-0.2044
-0.31442
-0.37087
-0.27551
-0.10043
0.038612
0.061893
0.1834
0.23729
0.091233
-0.055785
-0.040477
0.011824
0.042758
-0.14349
-0.017835
0.013419
0.15119
-0.050682
-0.20376
-0.24139
-0.23119
-0.27711
-0.27966
-0.27392
-0.29816
-0.2044
-0.1285
-0.11957
0.085492
-0.0012513
-0.053552
0.14864
0.18659
0.41971
0.30363
0.091233
0.0032135
0.077201
0.077838
-0.0085862
-0.12786
-0.095011
-0.06312
-0.056104
-0.037607
-0.22672
-0.33834
-0.28189
-0.099157
-0.016878
-0.23693
-0.2669
-0.18526
0.10526
0.094103
0.14034
0.15661
0.20859
0.23123
0.15629
0.22007
0.18946
0.13779
0.24559
0.10495
0.061255
-0.0031647
0.12855
0.042121
-0.071411
-0.11128
-0.078427
-0.022618
-0.14763
-0.2315
-0.17155
-0.068222
-0.21524
-0.26467
-0.071411
-0.010819
-0.17123
-0.18048
-0.11287
-0.029315
-0.10298
-0.10904
-0.19036
-0.23916
-0.20472
-0.24873
-0.26658
-0.21907
-0.31984
-0.36226
-0.25032
-0.23948
-0.03665
-0.22321
-0.13073
-0.081298
0.054239
0.062212
0.070503
0.16681
0.19743
0.28928
0.2475
0.23187
0.18244
0.15151
0.1126
0.032553
-0.079065
0.14417
0.088362
0.052645
0.094741
0.082941
0.14481
0.10654
0.19998
0.38654
0.17798
0.01597
-0.069817
-0.071411
0.088681
0.066358
-0.09246
-0.18271
-0.12148
-0.17601
-0.25096
-0.36098
-0.44613
-0.44549
-0.38873
-0.2146
-0.067903
0.1531
0.16394
0.039569
0.20221
0.30458
0.19265
0.11037
0.074012
0.12057
0.17638
0.059023
0.056153
-0.084487
-0.070774
-0.18877
-0.28349
-0.42189
-0.49524
-0.51565
-0.44294
-0.43593
-0.3393
-0.20312
-0.13487
-0.18207
-0.25351
-0.25383
-0.23246
-0.14604
-0.16708
-0.22066
-0.18462
-0.014008
0.004808
-0.054509
-0.21301
-0.25797
-0.04271
0.45766
0.57916
0.14034
0.0099106
0.079752
0.11802
0.16777
0.2121
0.38941
0.37411
0.24527
0.22581
0.15023
0.21146
0.11962
-0.13169
-0.20121
-0.17187
-0.12977
-0.20695
-0.20216
-0.23437
-0.22321
-0.2213
-0.19802
-0.14444
-0.071093
-0.23565
-0.31155
-0.30103
-0.28508
-0.24043
-0.24554
-0.24139
-0.26148
-0.31346
-0.23214
-0.1757
-0.12754
-0.14636
0.052645
0.092827
0.076882
0.024899
0.035104
0.074012
0.028407
0.10526
0.19456
0.46531
0.24559
0.11037
0.17734
0.054558
-0.088952
-0.1218
-0.20918
-0.13902
-0.097243
-0.19929
-0.14859
-0.081617
-0.18718
-0.24841
-0.13902
0.047223
-0.076195
-0.1521
0.020435
0.17447
0.18276
0.012143
-0.065352
-0.067266
0.017564
-0.020705
-0.038245
-0.0069916
-0.090227
-0.19196
-0.24904
-0.22704
-0.26403
-0.29305
-0.2736
-0.23437
-0.049407
-0.1623
-0.19993
-0.13105
0.054239
0.0060837
-0.11351
-0.049088
-0.084806
0.0079971
0.08326
0.060936
0.13588
0.0057648
-0.051639
0.040845
-0.055785
0.020435
-0.032823
-0.011775
0.055196
-0.016878
-0.029315
0.035742
0.0076782
0.054239
0.11451
-0.052915
-0.047493
-0.029953
0.011824
0.15788
-0.0085862
-0.18144
-0.14859
-0.01624
-0.01337
-0.11287
-0.091503
-0.0063538
0.02171
-0.050363
0.014694
-0.089908
-0.091184
-0.034418
-0.053552
-0.13902
-0.032186
0.0092728
-0.028359
-0.035056
-0.058974
-0.087676
-0.15082
-0.15401
0.097611
0.22167
0.011186
-0.086719
-0.10043
-0.019429
-0.036012
-0.16645
-0.10362
-0.049407
0.066358
-0.02198
-0.043985
-0.099794
-0.10841
-0.23055
-0.29656
-0.19196
-0.18399
-0.22385
-0.23756
-0.14954
-0.11446
-0.11351
-0.077152
-0.13169
-0.15401
-0.14189
-0.10745
-0.064395
0.033829
0.066039
0.16044
0.087725
0.089638
0.11515
0.059023
0.028407
0.0054459
0.11101
0.097292
0.12695
0.045947
-0.024213
0.016289
0.011505
0.041483
-0.00061343
-0.063439
-0.0089051
0.031278
0.12695
0.04818
-0.019429
0.063487
0.14226
0.0022568
0.0032135
-0.010819
-0.013051
0.039888
-0.011456
0.0073593
0.020754
-0.12563
-0.065352
-0.012413
-0.026445
-0.029634
-0.099794
0.044034
0.0019378
-0.0038025
-0.024213
-0.071411
-0.12913
-0.086081
0.047542
0.14034
0.081346
0.069228
-0.0085862
0.004808
0.011505
-0.036331
0.0032135
-0.050044
-0.0041214
0.096654
0.016289
0.043077
-0.033461
-0.15465
-0.043347
-0.027402
-0.095649
-0.072368
-0.0076295
0.038931
0.011824
-0.068222
0.031278
0.05679
-0.073006
-0.071411
0.11483
0.07752
-0.028359
-0.060569
-0.043985
-0.06599
-0.030591
-0.12818
-0.038883
0.023943
0.13173
0.041483
0.0025757
-0.11064
-0.098519
-0.06599
-0.059612
-0.0041214
-0.034418
-0.13838
-0.097881
-0.036012
-0.085762
-0.14125
-0.13934
-0.12212
-0.11574
-0.057061
0.18053
0.20795
0.20827
0.11738
0.10431
0.077201
-0.014327
0.10654
0.09187
0.19169
0.2931
0.37028
0.21338
0.041164
-0.043028
0.076563
0.094422
-0.064714
-0.037607
-0.069498
0.028726
0.051688
-0.097881
-0.076514
-0.067266
-0.1285
-0.14827
-0.16166
-0.1623
-0.093735
-0.10681
-0.13456
-0.10809
-0.079384
-0.074601
-0.076514
-0.056104
-0.062801
-0.020386
0.0022568
0.055196
0.026813
0.029683
0.021391
0.022348
0.026494
-0.0050782
0.016289
0.055834
0.065401
0.084854
0.15119
0.065082
0.059661
0.081665
0.12408
0.076244
0.07752
0.048499
0.045947
0.083579
0.10526
0.17542
0.30203
0.24718
0.14704
0.24144
0.18978
0.10335
0.058066
0.030959
0.13684
0.15374
0.025856
-0.0047593
0.019478
-0.0015702
-0.070774
-0.10617
-0.10139
-0.10075
-0.033461
0.057428
-0.080341
-0.10522
-0.026126
0.079752
0.032553
-0.0082673
0.053282
0.050731
0.00098112
0.013419
0.037018
0.034786
-0.02198
-0.032186
-0.02517
-0.03665
-0.052915
-0.062163
-0.0079484
-0.017835
-0.052915
0.0131
-0.043666
-0.080341
-0.066309
-0.050363
-0.061525
-0.03665
-0.022618
-0.029315
0.0073593
0.026175
0.073055
0.028726
-0.025488
0.0032135
0.011505
0.060298
0.059979
0.063487
0.028726
0.02171
0.080709
0.09793
0.10495
0.15055
0.18467
0.20445
0.17511
0.18818
0.2593
0.28354
0.23379
0.13046
0.21656
0.13843
0.12504
0.11675
-0.012732
0.024262
0.0003433
-0.022937
-0.084806
-0.046855
-0.032186
-0.056742
-0.14157
-0.1202
0.015013
-0.011775
-0.045899
-0.0089051
0.08039
0.10973
0.085173
0.059023
-0.00029452
-0.012094
-0.005716
0.011824
0.004808
-0.020067
-0.018791
0.015332
-0.016559
-0.076195
-0.072368
-0.096286
-0.076514
-0.06886
-0.12531
-0.13487
-0.085443
-0.080979
-0.046855
-0.025488
0.027451
0.0073593
0.12249
0.087406
0.059023
0.12185
0.2459
0.21401
0.12855
-0.026764
0.074012
0.14417
0.13652
0.088362
-0.0069916
0.0044891
-0.08066
-0.033142
-0.022937
-0.099794
-0.1454
-0.10713
-0.086719
-0.076514
-0.040158
-0.0044404
0.11834
0.14066
0.24686
0.12823
0.11292
0.09793
0.084217
0.16044
0.16012
0.20349
0.1547
0.084217
0.12472
0.091552
-0.025488
-0.1336
-0.15114
-0.13647
-0.1623
-0.21396
-0.18909
-0.22353
-0.14859
-0.1639
-0.15656
-0.10075
-0.050682
-0.0063538
-0.019429
0.032553
0.012143
0.054239
0.11706
0.31447
0.30395
0.26472
0.14832
0.11419
0.14736
0.1126
0.13046
0.11579
0.0076782
-0.032823
0.038612
0.072417
-0.0105
-0.11191
-0.15624
-0.1674
-0.1639
-0.15241
-0.17123
-0.11128
-0.092141
-0.12307
-0.095968
-0.012094
0.10303
0.053601
0.038294
0.057428
0.10399
-0.0076295
0.026813
0.065082
0.080071
0.10941
0.1228
0.17319
0.020116
-0.045261
-0.03952
0.045629
-0.00029452
0.020116
0.064125
0.084536
0.040207
0.073055
-0.005716
-0.014645
-0.049407
-0.053234
-0.009224
-0.05419
0.039569
-0.036331
-0.14572
-0.17091
-0.15688
-0.17378
-0.14189
-0.14827
-0.13456
-0.073325
-0.063439
-0.082254
-0.087038
-0.053234
-0.059931
0.1126
0.20285
0.099205
0.12025
0.20189
0.16394
0.14098
0.22517
0.2003
0.25579
0.26408
0.23283
0.27078
0.28035
0.19105
0.06572
0.023305
0.072098
-0.0076295
0.020116
-0.066309
-0.099157
-0.085125
-0.045899
-0.041434
-0.071093
-0.12945
-0.11638
-0.063439
-0.11319
-0.16039
0.12153
0.20795
0.21465
0.2947
0.28162
0.1818
0.18627
0.21242
0.1346
0.16107
0.080071
0.17861
0.16076
0.075606
0.016289
-0.061844
-0.16581
-0.2162
-0.16613
-0.14157
-0.21333
-0.12403
-0.18845
-0.06312
0.021391
-0.033142
-0.088633
-0.13615
0.048818
0.087087
0.11164
0.037656
-0.040158
0.026494
0.025856
0.052326
-0.011456
-0.05419
-0.045899
-0.056742
-0.068541
-0.10904
0.032234
0.018521
0.084854
0.11196
0.10845
0.0095917
0.065082
0.13078
0.30841
0.31192
0.16331
0.076563
0.025218
0.11196
0.11228
0.11706
0.022348
0.13907
0.028088
-0.083211
0.078157
-0.0063538
0.049455
-0.032823
-0.036012
-0.0025269
0.019478
0.11037
-0.033142
-0.11638
-0.06312
0.022029
0.037975
0.018521
0.090276
0.064763
0.045629
0.025218
-0.040477
-0.11064
-0.063758
0.0044891
0.024899
-0.14285
-0.081935
-0.0095429
0.011186
-0.1285
-0.16772
-0.15433
-0.022299
-0.029634
0.098249
-0.048131
-0.079384
-0.02804
-0.031867
-0.012094
0.21625
0.16394
0.1311
0.072417
0.042439
0.019478
-0.03665
0.02777
-0.090546
-0.014964
0.017246
-0.045261
-0.079384
-0.064714
0.18148
0.059342
0.044353
0.12472
0.13843
0.13843
0.1193
0.10271
0.10909
0.13747
0.12504
0.072098
0.069866
0.042121
-0.098519
-0.1572
-0.1438
-0.032186
0.15438
0.12312
-0.026764
-0.10936
-0.13711
-0.049407
0.0051269
0.014694
0.062531
0.22613
0.23602
0.095697
-0.0082673
0.049455
0.05392
0.0054459
-0.032186
-0.13487
-0.10043
-0.11159
-0.082573
-0.14285
-0.19005
-0.2028
-0.1977
-0.21014
-0.25478
-0.23565
-0.19866
-0.19164
-0.1792
-0.070455
0.096973
0.074649
0.023943
0.015651
0.036699
0.058704
0.057109
0.10558
0.12567
0.12599
0.050093
0.080071
0.058066
-0.0098618
0.083898
0.12759
0.079752
-0.049726
-0.090546
-0.071093
0.004808
0.092189
0.09793
0.035104
-0.051639
-0.030591
0.037656
0.13173
0.22199
0.28641
0.19584
-0.029634
-0.017516
0.17957
0.35051
0.33201
0.16745
0.10144
0.087406
0.1193
0.092508
-0.04271
-0.091822
-0.057698
-0.078746
-0.14508
-0.15911
-0.21428
-0.24235
-0.088314
-0.11765
-0.1336
-0.25702
-0.16581
-0.19228
-0.18239
-0.13009
-0.11733
-0.14189
-0.13487
-0.11925
-0.084806
-0.15114
-0.20918
-0.044304
0.17479
0.040526
0.023624
0.026813
-0.0053971
-0.01624
0.016289
0.067952
0.083579
0.029683
-0.036331
-0.012094
-0.093735
-0.11191
-0.13424
-0.18941
-0.16198
-0.06886
-0.097562
-0.16134
-0.14412
-0.132
0.011824
0.093465
0.13875
0.061893
0.057109
0.031596
0.072098
0.20636
0.11611
0.050093
0.20476
0.38335
0.1952
0.093465
0.037018
-0.041753
-0.081617
0.064444
0.085492
-0.0085862
-0.10394
-0.12052
-0.044304
-0.051639
-0.11765
-0.06025
-0.10171
-0.10936
-0.017835
-0.020705
-0.02198
-0.13296
-0.22098
-0.095649
-0.05132
-0.13456
-0.13615
-0.10968
-0.13711
-0.18399
-0.21014
-0.19515
-0.13296
-0.13009
-0.17346
-0.14444
-0.14763
-0.14221
-0.14125
-0.11702
-0.06025
-0.097243
-0.11383
-0.053234
-0.049088
-0.094054
-0.16549
-0.11159
-0.064714
-0.061525
-0.044623
0.016289
0.23793
0.25324
0.20381
0.11356
0.080709
0.047861
0.081984
0.10208
0.15087
0.15693
0.070503
0.01023
0.060617
0.11292
0.049774
0.040845
-0.03378
-0.05132
0.019159
0.039569
0.10813
0.1885
0.31702
0.2695
0.24016
0.19552
0.081665
0.060617
0.11324
0.085811
0.004808
-0.062163
-0.036012
-0.061206
-0.078746
-0.1556
-0.18813
-0.19834
-0.14093
-0.23342
-0.27296
-0.27711
-0.22034
-0.22544
-0.22608
-0.094054
-0.053552
0.097292
0.2475
0.14385
0.15661
0.12217
0.044034
-0.00029452
0.0067215
0.028407
0.067952
0.095378
0.20094
0.2762
0.16681
0.032553
0.10622
0.0076782
-0.044942
-0.03952
0.03064
0.0131
-0.060887
0.01023
0.12536
0.16554
0.053282
-0.078109
-0.098838
-0.10235
-0.23948
-0.22321
-0.18845
-0.16708
-0.1167
-0.11542
-0.17027
-0.16964
-0.16772
-0.20982
-0.13487
-0.073963
-0.098519
-0.094054
-0.072368
0.063487
0.081028
0.027451
0.15501
0.30235
0.23793
0.16426
0.12727
0.20158
0.25101
0.23697
0.1598
0.16554
0.13843
0.02458
0.0028946
-0.078746
-0.039202
-0.049407
-0.15241
-0.19961
-0.16485
-0.08927
-0.14093
-0.15752
-0.17857
-0.20121
-0.17219
-0.18526
-0.13487
-0.084168
-0.12913
-0.1167
-0.046218
-0.052915
-0.053234
-0.028996
-0.074601
-0.14795
-0.13838
-0.085762
-0.043985
0.0038513
0.026175
0.069547
0.1346
0.059342
0.01884
-0.0060349
-0.012732
-0.021661
0.0057648
0.01597
-0.015921
-0.040477
-0.060569
-0.044304
-0.018472
-0.046218
-0.070136
-0.059931
-0.022937
-0.054509
-0.086719
-0.072368
-0.063758
0.064125
0.29342
0.22964
0.19647
0.16522
0.14991
0.2223
0.40345
0.37347
0.39547
0.3352
0.1582
0.10622
0.12121
0.14034
0.09187
0.017883
-0.065671
-0.1505
-0.21524
-0.22672
-0.2398
-0.28253
-0.29816
-0.3141
-0.3428
-0.30772
-0.28253
-0.28221
-0.21683
-0.1757
-0.15369
-0.084168
-0.091822
-0.081617
-0.059931
-0.017835
-0.032823
-0.013689
0.037975
0.03638
0.062212
0.083898
0.038931
0.041164
0.037018
0.038294
0.012781
-0.01624
-0.05132
-0.034099
-0.034418
-0.050044
-0.028678
-0.014008
-0.005716
-0.020386
-0.0085862
0.0028946
-0.020386
0.021072
0.1244
0.16076
0.1413
0.1952
0.21369
0.18722
0.14672
0.10941
0.10431
0.070503
0.078157
0.15374
0.17798
0.037018
0.0079971
-0.046536
-0.12786
-0.14349
-0.16039
-0.20185
-0.18112
-0.18048
-0.20312
-0.21683
-0.23437
-0.20567
-0.086081
-0.055466
-0.059293
-0.025807
-0.041753
-0.065671
-0.047174
0.028088
0.032553
0.031596
0.019159
0.031596
-0.0015702
-0.059612
-0.035375
-0.045899
-0.072049
-0.10011
-0.11319
-0.12276
-0.1151
-0.082573
-0.057379
-0.047493
-0.059931
-0.067903
-0.072368
-0.047174
-0.013689
-0.013689
-0.01624
-0.028359
-0.017835
2.4388e-05
0.02171
0.040207
0.059979
0.12312
0.14098
0.18595
0.20859
0.19839
0.20445
0.18499
0.19647
0.19328
0.20572
0.20668
0.14927
0.11866
0.078476
0.053282
0.030959
-0.029634
-0.075876
-0.13774
-0.1218
-0.11574
-0.17601
-0.20025
-0.20695
-0.22257
-0.23055
-0.21492
-0.20312
-0.20248
-0.18144
-0.12499
-0.1151
-0.08066
-0.027721
-0.0105
-0.045261
-0.024851
0.015651
0.034467
0.040207
0.058385
0.081346
0.068271
0.084536
0.11866
0.12631
0.14864
0.078795
0.056471
0.10686
0.12663
0.1547
0.18085
0.1885
0.1649
0.095378
0.034786
0.058066
0.065401
0.058066
-0.0060349
-0.021024
-0.069179
-0.081935
-0.11702
-0.12244
-0.10043
-0.11606
-0.13264
-0.13328
-0.11733
-0.12818
-0.12595
-0.10872
-0.10235
-0.10139
-0.10777
-0.093735
-0.072368
-0.059293
-0.058974
-0.044304
-0.035375
-0.028359
-0.011775
-0.0105
0.0038513
0.03064
0.029045
0.027451
0.04531
0.043077
0.03351
0.019797
0.04531
0.03925
0.040845
0.056471
0.05392
0.046904
0.039888
0.020754
0.032553
0.052326
0.048818
0.052007
0.008635
-0.005716
-0.0060349
-0.00061343
0.022029
0.02777
0.01023
0.0057648
0.0057648
0.00098112
-0.002208
0.019159
0.029683
0.074968
0.095697
0.073693
0.056471
0.037656
0.0025757
2.4388e-05
0.031596
0.04531
0.024262
-0.0047593
-0.019748
-0.046536
-0.028996
-0.046855
-0.038245
-0.011775
-0.03091
-0.043985
-0.049407
-0.054828
-0.056104
-0.053234
-0.05132
-0.041753
-0.037288
-0.040477
-0.015921
-0.011137
0.011824
0.029364
0.058385
0.064125
0.099843
0.10016
0.089319
0.080071
0.093146
0.11005
0.10686
0.079114
0.080071
0.069228
0.045947
0.035742
0.043715
0.040845
0.033829
0.016608
0.0028946
0.023943
0.037337
0.019159
0.012143
0.020754
0.01884
0.017246
0.019478
0.014694
0.010548
0.02171
0.020116
0.026175
0.034148
0.040845
0.047861
0.050093
0.051369
0.060617
0.056471
0.050412
0.05679
0.052007
0.049455
0.043715
0.03351
0.022986
0.030959
0.032234
0.028088
0.034148
0.031278
0.03064
0.03351
0.043715
0.043077
0.04531
0.031596
0.025218
0.020116
0.011186
0.0044891
-0.002208
-0.01337
-0.0085862
-0.0047593
-0.014645
-0.014645
-0.016878
-0.022937
-0.017835
-0.010819
-0.030272
-0.03665
-0.033142
-0.041434
-0.049407
-0.058655
-0.066628
-0.074282
-0.068222
-0.069817
-0.061206
-0.066628
-0.070136
-0.061206
-0.061844
-0.064395
-0.059293
-0.058974
-0.056423
-0.049407
-0.047493
-0.062482
-0.070455
-0.080979
-0.09533
-0.080022
-0.080341
-0.083849
-0.072687
-0.067585
-0.068541
-0.061844
-0.060887
-0.077152
-0.073963
-0.074601
-0.077152
-0.082892
-0.092141
-0.11128
-0.11893
-0.11128
-0.10777
-0.10745
-0.12276
-0.11191
-0.11351
-0.12116
-0.11542
-0.10043
-0.11159
-0.11319
-0.10585
-0.10936
-0.11096
-0.11255
-0.11925
-0.12116
-0.11446
-0.11383
-0.10553
-0.10203
-0.099476
-0.095011
-0.091822
-0.084487
-0.072049
-0.076195
-0.084487
-0.078427
-0.083849
-0.086081
-0.085125
-0.09246
-0.10011
-0.086081
-0.083211
-0.086081
-0.079703
-0.071093
-0.067585
-0.062482
-0.056742
-0.061525
-0.060887
-0.058655
-0.062163
-0.062482
-0.066947
-0.074282
-0.078427
-0.085443
-0.078746
-0.071411
-0.074282
-0.070455
-0.068222
-0.066947
-0.056742
-0.043347
-0.05419
-0.056423
-0.051639
-0.055785
-0.06025
-0.059931
-0.067266
-0.075557
-0.071093
-0.067903
-0.062482
-0.062801
-0.058017
-0.053552
-0.053552
-0.050044
-0.038883
-0.04271
-0.04845
-0.045899
-0.052277
-0.055466
-0.053871
-0.060887
-0.070136
-0.057698
-0.053871
-0.057379
-0.052915
-0.04845
-0.041753
-0.038564
-0.031867
-0.034099
-0.029953
-0.030591
-0.032504
-0.038883
-0.041115
-0.041115
-0.043347
-0.058017
-0.048131
-0.038883
-0.041753
-0.034737
-0.029315
-0.030272
-0.021343
-0.0066727
-0.01624
-0.016878
-0.014327
-0.022618
-0.01624
-0.014645
-0.021343
-0.034418
-0.027721
-0.020705
-0.013689
-0.027083
-0.017197
2.4388e-05
0.0079971
0.0019378
0.012781
0.0079971
0.00066221
0.0067215
0.0051269
0.0022568
-0.00061343
-0.005716
-0.015602
-0.0012513
0.0022568
2.4388e-05
0.0019378
0.0044891
0.01023
0.020116
0.024899
0.022986
0.02458
0.023305
0.020435
0.012781
0.012462
0.0095917
0.0060837
-0.0041214
0.00098112
0.008316
0.0044891
0.011505
0.015332
0.011505
0.018521
0.03064
0.021072
0.017246
0.019797
0.014694
0.0092728
0.0041702
-0.0050782
-0.012094
-0.0050782
-0.0079484
-0.0082673
-0.0060349
-0.0015702
-0.002208
-0.0031647
0.00066221
0.019797
0.0099106
-0.00029452
0.0035324
0.0028946
2.4388e-05
0.0003433
-0.0053971
-0.021343
-0.01911
-0.01624
-0.0044404
0.00098112
-0.00093234
0.0022568
0.011505
0.014694
-0.0041214
0.0003433
0.004808
-0.0098618
-0.011775
-0.0060349
-0.012732
-0.020705
-0.033461
-0.029953
-0.02198
-0.023894
-0.017197
-0.014964
-0.018791
-0.012094
0.0073593
-0.0028458
-0.0041214
0.0016189
-0.0095429
-0.01337
-0.018153
-0.012413
-0.010819
-0.014645
-0.035056
-0.038883
-0.014327
0.0028946
0.0032135
-0.012732
-0.0028458
0.037018
0.022986
0.016289
0.014694
0.014694
0.022029
0.028726
0.029683
0.02777
0.040207
0.045629
0.044353
0.04531
0.053601
0.059661
0.059342
0.069547
0.070503
0.069228
0.063169
0.059661
0.050731
0.046266
0.043077
0.037337
0.026175
0.031915
0.036699
0.031278
0.03351
0.034786
0.030959
0.038294
0.047223
0.034467
0.030959
0.032872
0.025218
0.019478
0.015013
0.0051269
-0.0034836
-0.0031647
-0.0063538
-0.0038025
-0.0073105
-0.0044404
-0.0041214
-0.0034836
-0.00029452
0.0070404
-0.0041214
-0.015921
-0.012732
-0.02198
-0.03091
-0.034099
-0.045899
-0.056742
-0.049407
-0.052915
-0.057061
-0.058336
-0.056104
-0.059293
-0.063758
-0.061844
-0.054509
-0.053871
-0.052915
-0.065671
-0.091184
-0.095649
-0.08353
-0.09246
-0.10362
-0.10809
-0.10139
-0.096286
-0.091822
-0.092778
-0.10139
-0.09533
-0.081617
-0.093416
-0.091503
-0.088633
-0.10171
-0.11925
-0.1269
-0.12116
-0.10617
-0.12658
-0.12212
-0.12658
-0.10745
-0.12595
-0.11159
-0.096924
-0.091503
-0.08353
-0.088952
-0.097243
-0.082892
-0.080979
-0.081617
-0.080022
-0.089908
-0.0982
-0.082892
-0.082892
-0.081298
-0.07779
-0.071411
-0.067266
-0.058655
-0.053552
-0.051639
-0.047812
-0.053234
-0.051958
-0.05419
-0.056742
-0.056104
-0.059931
-0.070774
-0.058336
-0.046218
-0.046218
-0.036331
-0.029315
-0.032504
-0.021343
0.0028946
-0.0105
-0.011137
0.0032135
-0.0018891
-0.011456
-0.0069916
-0.0044404
-0.010181
-0.0060349
0.0019378
0.055515
0.053601
0.049774
0.069547
0.072098
0.075925
0.092189
0.082941
0.092189
0.090276
0.084536
0.076563
0.066039
0.035423
0.026175
0.035104
0.026494
0.0073593
-0.0066727
-0.0050782
-0.0034836
-0.00029452
0.0032135
0.0041702
0.0067215
0.0057648
0.011505
0.0092728
0.0099106
0.011186
0.012781
0.016608
0.025218
0.034786
0.029683
0.050412
0.066677
0.060617
0.064125
0.066995
0.050731
0.049774
0.054558
0.037975
0.035742
0.035104
0.018202
-0.029953
-0.016878
0.0025757
-0.014645
-0.036969
-0.032823
-0.033142
-0.03665
-0.020705
-0.014645
-0.033142
-0.03952
-0.03378
-0.037926
-0.040796
-0.042391
-0.051639
-0.060887
-0.047812
-0.046536
-0.044304
-0.041753
-0.036012
-0.027402
-0.019748
-0.016878
-0.011456
-0.013051
-0.013689
-0.01337
-0.016878
-0.01624
-0.016878
-0.022937
-0.034737
-0.022618
-0.012094
-0.017516
-0.012413
-0.0085862
-0.0066727
0.0003433
0.013419
0.0038513
0.0032135
0.0076782
0.0022568
-0.0018891
-0.0044404
-0.013051
-0.01624
-0.015283
-0.012732
-0.0076295
-0.0095429
-0.0041214
0.0013
-0.0015702
0.0044891
0.017564
0.008635
0.0022568
0.0073593
0.0013
-0.002208
-0.0053971
-0.013051
-0.022299
-0.014008
-0.013689
-0.019748
-0.014008
-0.0063538
-0.0066727
-0.002208
0.0032135
0.0054459
0.0003433
-0.0044404
-0.0012513
-0.0098618
-0.012094
-0.014327
-0.021661
-0.030591
-0.021661
-0.018472
-0.023256
-0.016559
-0.012732
-0.011456
-0.0076295
0.0035324
-0.0041214
-0.0050782
-0.00061343
-0.0066727
-0.0095429
-0.012732
-0.020386
-0.023575
-0.027083
-0.020386
-0.013689
-0.015283
-0.0076295
-0.0095429
-0.01624
-0.0041214
0.014694
0.0051269
-0.0034836
0.0003433
-0.0028458
-0.0076295
-0.0041214
-0.0041214
-0.014645
0.00098112
2.4388e-05
-0.0034836
-0.005716
-0.0038025
0.0067215
0.010867
0.019797
0.022029
0.019797
0.012462
0.0099106
0.0051269
-0.0066727
-0.010819
-0.011775
-0.023256
-0.011456
-0.0105
-0.018791
-0.009224
-0.0063538
-0.0028458
0.0019378
0.018202
0.0099106
0.014694
0.014694
0.0070404
0.0044891
0.0028946
-0.002208
-0.0044404
-0.0047593
0.0022568
0.0003433
0.0038513
0.0095917
0.021391
0.014694
0.049137
0.054239
0.03925
0.025856
0.042439
0.037337
0.031278
0.029045
0.022667
0.025218
0.025218
0.016927
0.010548
0.0051269
0.0028946
0.0019378
-0.0069916
-0.0076295
-0.0044404
-0.010819
-0.017516
-0.020705
-0.032504
-0.036331
-0.040158
-0.047493
-0.056104
-0.04271
-0.037926
-0.039202
-0.030591
-0.027721
-0.02517
-0.014327
-0.0028458
-0.011456
-0.0073105
0.0013
-0.0034836
-0.009224
-0.0079484
-0.012094
-0.019429
-0.017835
-0.012732
-0.0050782
-0.0063538
-0.0028458
0.011824
0.0070404
0.0079971
0.02458
0.017883
0.013419
0.017246
0.0099106
0.008316
0.0051269
-0.0050782
-0.012413
0.0028946
0.0019378
0.0003433
0.0076782
0.017883
0.028088
0.030959
0.034786
0.039569
0.039888
0.03638
0.041164
0.053601
0.067314
0.067952
0.067633
0.03638
0.04531
0.050093
0.045629
0.055515
0.059979
0.070185
0.070185
0.071141
0.041483
0.037018
0.032872
0.018202
-0.0012513
0.0032135
0.00098112
0.0032135
-0.0082673
-0.019429
-0.012413
-0.0063538
-0.0063538
0.0016189
0.0028946
0.0131
0.032553
0.03351
0.041483
0.050412
0.042121
0.057428
0.059342
0.043077
0.029683
0.052963
0.060936
0.060298
0.064444
0.064444
0.073055
0.069228
0.053282
0.069228
0.059342
0.039569
0.040207
0.035423
0.030002
0.027132
0.0064026
-0.014964
0.0016189
0.012143
0.0095917
0.012781
0.032234
0.024899
0.031596
0.041802
0.035104
0.042121
0.036061
0.037337
0.048818
0.046585
0.047542
0.03638
0.018202
0.05392
0.09187
0.10016
0.094422
0.08613
0.06285
0.06285
0.082941
0.087725
0.081665
0.081028
0.079114
0.073055
0.046904
0.032234
0.02458
0.0131
0.0025757
-0.0050782
0.0032135
-0.002208
0.0095917
0.016289
0.01597
0.019797
0.0079971
-0.0044404
-0.0041214
-0.0095429
-0.014327
-0.01337
-0.01624
-0.02804
-0.022618
-0.014327
-0.005716
-0.0066727
-0.0082673
-0.0044404
0.02171
0.03064
0.021391
0.03064
0.037337
0.042121
0.048818
0.08613
0.089
0.075606
0.072736
0.073374
0.079114
0.074012
0.091233
0.11643
0.11196
0.10399
0.11866
0.089957
0.055515
0.069228
0.070822
0.044353
0.024262
0.008635
0.015651
0.040207
0.062531
0.082941
0.069547
0.082303
0.074968
0.084854
0.10048
0.13397
0.10973
0.091552
0.083579
0.073693
0.072736
0.068271
0.023943
0.0099106
-0.0012513
-0.023575
-0.070455
-0.071411
-0.045899
-0.057379
-0.067266
-0.035375
-0.028359
-0.040796
-0.049088
-0.048131
-0.050044
-0.045899
-0.025488
-0.0076295
-0.0063538
0.0044891
0.028088
0.01597
0.01023
0.032553
0.024899
0.038931
0.050412
0.040207
0.046266
0.043715
0.023624
0.050731
0.059979
0.022348
-0.0015702
0.0060837
-0.0098618
-0.022299
-0.00061343
0.01023
0.0016189
0.01597
-0.0044404
-0.0063538
-0.014008
-0.015602
-0.0069916
-0.0034836
0.0003433
-0.0044404
-0.01911
-0.025488
-0.002208
0.0057648
0.0016189
0.033829
0.066995
0.074012
0.081028
0.093465
0.069547
0.050412
0.052326
0.098886
0.14736
0.14003
0.10558
0.10208
0.092508
0.076563
0.08613
0.085492
0.11483
0.11132
0.11292
0.095378
0.08039
0.053601
0.03925
0.034148
0.028407
0.015013
0.02777
0.046266
0.015332
0.0032135
-0.0089051
-0.013689
-0.0012513
0.015651
0.01597
0.012143
0.037975
0.052963
0.055834
0.029683
0.017883
0.0131
0.0070404
-0.0073105
0.0028946
-0.028678
-0.015602
0.011824
0.036699
0.066358
0.066677
0.079433
0.058385
0.080709
0.043715
0.055196
0.07146
0.10558
0.10016
0.099843
0.081665
0.060298
0.031915
0.051688
0.049137
-0.0038025
0.010867
0.04531
-0.0060349
-0.0047593
0.057747
0.061574
0.059979
0.063806
0.032553
0.0079971
0.0079971
0.037975
0.016289
0.030002
0.045629
0.040845
-0.0050782
-0.043985
-0.041753
-0.067266
-0.038564
-0.0076295
-0.023894
-0.015921
0.008316
0.023624
-0.010181
-0.028359
-0.033461
-0.039202
-0.0031647
0.028407
0.029045
0.065082
0.053601
0.041802
0.047223
0.038294
-0.0073105
-0.014645
0.028088
0.0073593
0.011505
0.0041702
0.075287
0.058066
0.045947
0.038612
0.099524
0.1177
0.12791
0.12599
0.11802
0.11292
0.08613
0.036699
0.069547
0.067952
0.037975
0.01023
-0.02804
-0.082892
-0.18399
-0.14923
-0.082892
-0.085443
-0.082254
-0.031229
-0.041753
-0.087676
-0.093735
-0.06886
-0.079703
-0.095968
-0.055466
-0.014008
0.015332
0.052007
0.047861
0.032234
0.0076782
0.030959
0.054239
0.06285
0.078157
0.11324
0.13397
0.14545
0.12504
0.094422
0.08326
0.099205
0.075925
0.038294
-0.048769
-0.045899
-0.08927
-0.027402
-0.012094
-0.022618
0.027132
0.089957
0.049137
-0.034418
0.032553
0.06572
0.063169
0.10526
0.053601
0.06572
0.042121
0.033829
-0.035375
0.0070404
-0.014645
-0.095011
-0.11638
-0.12435
-0.11574
-0.053234
-0.072049
-0.090865
-0.10841
-0.13806
-0.13806
-0.010181
0.1008
0.027451
-0.0028458
-0.002208
-0.020386
-0.085125
-0.10203
-0.038564
0.0035324
0.015013
0.038612
0.01597
-0.062163
-0.077471
-0.011456
-0.013051
0.046904
0.025537
0.03064
0.13046
0.30395
0.25228
0.19073
0.20253
0.21433
0.18276
0.15087
0.11993
0.12759
0.15788
0.052326
-0.0098618
-0.046855
0.075925
0.04818
-0.018472
-0.04558
0.030002
0.02777
0.032234
0.11005
0.14545
0.17606
0.20763
0.2947
0.27779
0.21497
0.21625
0.24877
0.1818
-0.0041214
0.021391
-0.022937
0.025856
-0.0079484
-0.071093
-0.12467
-0.10904
-0.060569
-0.026445
0.0016189
-0.022299
-0.073006
-0.080022
-0.03665
0.060936
0.11292
0.15884
0.10048
0.1126
0.063806
-0.0073105
0.086449
0.22039
0.22613
0.21082
0.16458
0.030002
0.081984
0.041164
0.0131
0.13205
0.21019
0.099843
0.020435
-0.045261
-0.070136
-0.050044
-0.032823
-0.051001
-0.054509
-0.035056
-0.047812
-0.057379
0.020754
0.19615
0.27748
0.36071
0.27461
0.1783
0.14194
0.12791
0.079433
0.10367
0.20732
0.21688
0.17734
0.059342
0.027451
0.039888
-0.093416
-0.18462
-0.16326
-0.16262
-0.22194
-0.25829
-0.23119
-0.14221
-0.065033
0.012462
-0.032823
-0.024532
-0.0038025
0.030002
0.081984
0.10048
0.11292
0.13142
0.13907
0.24399
0.31415
0.31447
0.32978
0.23474
0.23283
0.16777
0.09187
0.1177
0.16107
0.11802
-0.0063538
-0.04845
0.00066221
-0.08066
-0.17729
-0.11478
-0.068541
-0.13743
-0.18941
-0.15943
-0.036331
-0.070136
-0.080022
-0.11702
-0.072368
-0.027721
-0.015921
-0.036331
-0.065671
-0.039202
-0.026445
-0.021343
-0.027083
-0.058655
-0.12882
-0.094054
-0.10617
-0.021343
0.074012
0.17925
0.17447
0.12791
0.10144
0.045947
0.070503
0.27205
0.29119
0.23602
0.23697
0.25547
0.12599
-0.012413
-0.086081
-0.05132
-0.12403
-0.1741
-0.12339
-0.047493
-0.0060349
-0.02198
-0.082892
-0.032504
-0.12786
-0.10649
-0.027083
0.0041702
0.072417
0.12759
0.1413
0.058066
-0.02804
0.037337
0.11164
0.17224
0.15406
0.038931
-0.088952
-0.10458
-0.11159
-0.12882
-0.15879
-0.13264
-0.084168
-0.13487
-0.23406
-0.25478
-0.30071
-0.29816
-0.36895
-0.39638
-0.38139
-0.37916
-0.36034
-0.29369
-0.2567
-0.23087
-0.21779
-0.20216
-0.19579
-0.20982
-0.18749
-0.19834
-0.22066
-0.15178
-0.13551
-0.11096
-0.11287
-0.13232
-0.067266
0.11483
0.12089
0.10399
0.15884
0.19392
0.22741
0.22581
0.24303
0.27333
0.47839
0.69493
0.6691
0.57534
0.53037
0.44522
0.39707
0.3942
0.36677
0.35051
0.37251
0.2105
0.11101
-0.0053971
0.079433
-0.021024
-0.14221
-0.17761
-0.13966
-0.061206
-0.097881
-0.18526
-0.19419
-0.14093
-0.077471
0.069866
0.23921
0.30395
0.25515
0.2813
0.3757
0.25324
0.23857
0.28162
0.17702
0.050412
-0.0095429
-0.015602
-0.055785
-0.13456
-0.030591
-0.011775
-0.14636
-0.32909
-0.35046
-0.44741
-0.50832
-0.45665
-0.34631
-0.29784
-0.32909
-0.34823
-0.28604
-0.33802
-0.31155
-0.28604
-0.20376
-0.22895
-0.25574
-0.17601
0.039888
0.11451
0.18627
0.15661
0.22007
0.19839
0.24271
0.3234
0.26918
0.2223
0.25994
0.26918
0.29725
0.33743
0.43884
0.53101
0.29789
0.2424
0.27333
0.22486
0.17925
0.092189
0.14098
0.12599
0.12982
0.076882
-0.027083
-0.10426
-0.20185
-0.22544
-0.21811
-0.27615
-0.31442
-0.33356
-0.34344
-0.036331
0.37953
0.27333
0.15565
0.13684
0.16522
0.17383
0.18659
0.21401
0.23315
0.44267
0.36518
0.27971
0.1598
0.12025
-0.063758
-0.061525
0.11738
0.03351
-0.10043
0.010867
-0.13743
0.066358
0.24463
0.27301
0.27971
0.22709
0.14226
0.22996
0.22517
0.19647
0.028726
0.029364
-0.055466
-0.020386
-0.074919
-0.06025
-0.019429
0.040207
-0.069498
-0.23916
-0.30326
-0.30422
-0.21875
-0.10745
-0.072368
0.03064
-0.052915
0.05105
-0.059612
-0.04558
-0.026764
0.11164
0.08613
0.20891
0.20285
0.32021
0.31383
0.16745
0.16841
0.2188
0.22199
0.17798
0.16458
0.14991
0.055196
-0.052596
-0.073644
-0.093097
-0.1792
-0.22257
-0.28317
-0.36321
-0.43401
-0.40946
-0.38139
-0.24203
-0.1623
-0.065352
-0.14221
-0.082573
-0.05132
-0.070136
0.14258
0.33679
0.50709
0.4752
0.20572
0.19743
0.26313
0.25228
0.23474
0.13971
0.20827
0.066995
-0.075557
-0.02804
0.032234
-0.0066727
-0.061525
-0.14093
0.061255
0.23506
0.10144
-0.027402
-0.035694
0.049137
0.14704
0.34285
0.36932
0.60946
0.7281
0.60213
0.41652
0.4516
0.40504
0.24399
0.20158
0.11611
0.28449
0.13524
0.085811
0.1413
0.075925
-0.017197
-0.087357
-0.31474
-0.32239
-0.29879
-0.27456
-0.032186
0.096654
-0.029953
-0.17665
-0.23055
-0.20695
-0.13551
-0.12658
-0.091184
-0.16772
-0.00061343
0.058066
-0.037288
0.077838
-0.0105
-0.097562
-0.09246
-0.12531
-0.072687
-0.042391
-0.11287
-0.058017
-0.17091
-0.11606
-0.1403
-0.21428
-0.30677
-0.35269
-0.36226
-0.26403
-0.14349
-0.18749
-0.32112
-0.17474
-0.029953
0.014694
0.1008
0.099205
0.049774
0.035742
0.19041
0.10208
0.16873
0.1531
0.16107
0.14481
0.27875
0.18021
0.14991
0.11228
0.21082
0.28641
0.24144
0.27237
0.18021
0.26504
0.63529
0.90222
0.56928
0.40026
0.3065
0.16044
0.28354
0.29757
0.19584
-0.0076295
-0.1218
0.021391
0.42704
0.56673
0.015651
-0.18239
-0.20567
-0.23724
-0.20216
-0.16836
-0.33643
-0.36098
-0.22226
-0.13679
-0.21747
-0.34631
-0.4187
-0.34185
-0.4203
-0.44645
-0.42795
-0.50417
-0.52267
-0.48568
-0.43274
-0.29114
-0.18558
-0.18749
-0.25032
-0.24586
-0.19196
-0.17761
-0.005716
0.018521
0.069547
-0.033461
-0.074919
-0.1202
-0.094373
-0.013689
-0.020705
-0.027721
-0.084487
0.041483
-0.11
-0.23023
-0.26531
-0.23788
-0.28221
-0.32526
-0.17697
-0.1859
-0.041753
0.46563
0.36358
0.29438
0.24654
0.59766
0.91785
0.69525
0.53771
0.44331
0.4752
0.37698
0.6337
0.69557
0.43151
0.17
-0.051001
-0.132
-0.25957
-0.50864
-0.51597
-0.50672
-0.59187
-0.6649
-0.75802
-0.50896
-0.43816
-0.54021
-0.58167
-0.42732
-0.20312
-0.32335
-0.39415
-0.31187
-0.28604
-0.191
-0.19292
-0.064077
0.076882
0.11898
0.45001
0.21912
-0.05132
-0.12658
-0.080979
-0.072687
-0.10522
-0.22226
-0.16613
0.0003433
-0.15018
-0.17346
-0.2331
-0.3967
-0.52777
-0.56827
-0.41328
-0.44517
-0.52139
-0.42062
-0.21683
-0.17665
-0.19036
-0.09246
0.17255
0.15597
-0.048131
-0.014645
0.086768
0.059979
0.18946
0.099524
0.063806
0.1008
-0.071093
-0.16134
-0.10235
-0.12339
-0.21939
0.15884
0.23857
0.035104
-0.029315
0.21401
0.44299
0.66782
0.45702
0.22135
0.26408
0.34317
0.26855
0.31702
0.24048
0.16554
0.095378
-0.057379
-0.17251
-0.29433
-0.45665
-0.50066
-0.51597
-0.54818
-0.48886
-0.567
-0.46176
-0.43943
-0.072368
-0.048769
-0.20886
-0.29529
-0.28668
-0.23661
-0.17601
-0.096605
-0.050044
-0.098838
-0.17888
-0.15082
-0.10904
-0.093416
-0.21078
-0.27998
-0.15114
0.09187
0.36231
0.089319
-0.032504
-0.0098618
0.17702
0.29757
0.18308
0.16458
0.17861
0.2459
0.17542
0.20859
0.16968
0.18786
0.030321
0.01884
-0.10203
-0.056423
-0.057698
0.080709
0.26472
-0.038883
-0.18048
-0.023575
0.046266
-0.076514
-0.069179
-0.086719
-0.13902
-0.22449
-0.15146
-0.090227
0.0038513
0.10813
0.07433
-0.02804
-0.10522
0.082303
0.35529
0.17447
0.032234
0.046585
0.15119
0.091233
0.15533
0.29757
0.10144
-0.15433
-0.1387
-0.19802
-0.25447
-0.28062
-0.30103
-0.41552
-0.45315
-0.38075
-0.24841
-0.32558
-0.32399
-0.27201
-0.19898
-0.10745
-0.0034836
0.11898
0.19615
0.15438
0.21242
0.071779
0.03351
0.13843
0.15948
0.026175
-0.10298
-0.0079484
0.015651
-0.064077
-0.18335
-0.17219
-0.21747
-0.25447
-0.22162
-0.20822
-0.2449
0.015651
0.38814
0.21848
-0.10617
-0.024213
0.069866
-0.048131
-0.0089051
0.076244
0.061255
-0.055147
0.0041702
-0.064077
-0.12435
-0.22832
-0.28668
-0.27583
-0.28636
-0.11446
0.052963
-0.060887
-0.24522
-0.25702
-0.22768
-0.11446
-0.067903
0.22167
-0.036012
-0.16836
-0.022937
0.034786
0.18372
0.21656
0.076563
-0.15369
-0.22863
0.1177
0.15119
-0.049088
-0.18303
-0.12339
-0.14954
-0.026764
0.11196
-0.0018891
0.10239
0.0095917
0.029683
-0.10203
-0.12754
0.025218
0.094741
0.18659
0.3655
0.18946
0.17287
0.13875
0.15852
0.15661
0.026175
0.091233
-0.002208
0.15629
0.051369
-0.0066727
-0.11733
-0.17697
-0.32782
-0.19228
-0.30166
-0.19419
-0.071093
-0.13966
-0.25542
-0.25319
-0.24968
-0.21141
-0.25319
-0.19611
-0.10936
0.018521
0.075925
0.0099106
0.27205
0.075606
-0.034737
0.03638
0.02777
-0.037926
-0.061525
-0.1741
-0.12307
-0.15879
-0.15847
-0.12084
-0.13838
-0.11383
-0.11829
-0.1403
-0.092141
-0.1049
-0.11574
-0.056742
0.040207
0.10335
0.14832
0.14672
0.055196
-0.03665
0.0003433
-0.00061343
0.032872
-0.072687
-0.19579
-0.12786
-0.092141
-0.11574
-0.2551
-0.2854
-0.2028
-0.23437
-0.24139
-0.19483
-0.17314
-0.12754
-0.17729
-0.0864
-0.040477
0.15183
0.19615
0.13716
0.20476
0.39962
0.38527
0.2526
0.18021
0.084854
0.31256
0.29852
0.22135
0.14577
0.13333
0.14672
0.0054459
-0.10522
-0.032504
-0.0060349
0.031915
0.020116
-0.17984
-0.1454
-0.17346
-0.17314
-0.16007
-0.1808
-0.18462
-0.14476
-0.091503
-0.30294
-0.36226
-0.36672
-0.3393
-0.3141
-0.29943
-0.33005
-0.2634
-0.21365
-0.14827
-0.2146
-0.2634
-0.169
-0.082573
-0.035375
-0.022618
-0.07779
-0.088952
-0.0079484
0.043396
0.02458
0.0038513
0.089
0.28322
0.14321
0.10399
0.14864
0.12536
0.18276
0.11834
0.11738
0.26695
0.29661
0.39388
0.49657
0.36581
0.26249
0.18212
0.28609
0.34094
0.050093
-0.075557
0.038612
0.15884
0.042758
-0.060569
-0.059293
-0.18462
-0.28349
-0.30581
-0.32813
-0.32718
-0.21939
-0.18813
-0.1926
-0.19451
-0.16071
-0.15114
-0.11574
-0.10681
-0.058655
-0.052596
-0.0864
-0.12403
-0.11733
-0.10043
-0.10203
-0.11638
-0.13998
-0.14061
-0.17123
-0.18207
-0.13456
-0.1438
-0.097881
-0.012094
-0.012732
-0.056742
-0.081617
-0.037288
-0.050682
0.020435
0.03638
0.019478
0.010548
0.2998
0.20445
0.1952
0.084536
0.10208
0.19743
0.20221
0.15533
-0.070455
0.15119
0.30618
0.17192
0.24622
0.19169
-0.014008
-0.085762
0.015332
0.096654
-0.013689
-0.062801
-0.029634
0.052645
0.083898
0.0013
-0.11542
-0.074282
-0.093735
-0.073963
-0.15018
-0.23406
-0.19036
-0.15752
-0.048131
-0.020386
-0.12148
-0.17346
-0.15815
-0.11893
-0.11446
-0.15337
-0.15879
-0.090865
-0.075557
-0.066628
-0.03378
-0.053552
-0.081935
-0.12754
-0.097243
-0.016559
0.11164
0.048499
0.024899
0.11164
0.21114
0.22486
0.25898
0.34732
0.19902
0.148
0.092189
0.26759
0.31447
0.16905
0.15055
0.16299
0.25196
0.11993
-0.014645
-0.065033
0.021072
-0.0073105
-0.083211
-0.10426
-0.078746
-0.15624
-0.088633
-0.034099
-0.084168
-0.13934
-0.19292
-0.17155
-0.024851
0.13971
0.13556
0.16076
0.077838
0.11802
0.051688
-0.0098618
0.0028946
0.061893
0.065401
0.060617
0.022029
-0.1033
-0.053871
-0.10362
-0.19898
-0.23756
-0.23437
-0.23055
-0.22768
-0.19738
-0.13551
-0.13073
-0.12371
-0.10585
-0.093735
-0.044942
0.14704
0.25675
0.1008
0.098568
0.13556
0.14736
0.12344
0.27843
0.29151
0.1193
0.18659
0.29757
0.33903
0.24176
0.055834
0.054877
0.095697
-0.0050782
-0.074601
-0.079065
-0.0063538
-0.036969
-0.076833
-0.15752
-0.14667
-0.13296
-0.14444
-0.17282
-0.18303
-0.1623
-0.11064
-0.074919
-0.087038
-0.097562
-0.072368
0.019159
0.12312
0.1818
0.13014
0.10048
0.084217
0.16458
0.12249
0.11037
0.12185
0.14162
0.11675
0.092827
0.0044891
-0.005716
-0.032186
-0.091184
-0.13169
-0.12531
-0.08353
0.028726
0.076882
-0.014964
-0.10203
0.050412
-0.014964
0.041164
0.069228
0.086768
0.10845
0.017883
-0.036969
0.019478
0.11292
0.016927
-0.01911
-0.062163
-0.078746
-0.049407
0.20445
0.045629
-0.064077
-0.012413
0.040526
0.036699
0.016289
0.0092728
0.070503
0.075287
0.052645
0.088362
0.032234
-0.042391
-0.028678
0.082622
0.11962
0.044991
-0.040477
0.040845
0.053282
0.055834
0.077838
0.060617
0.041802
-0.047174
0.073693
0.030959
-0.0982
-0.091503
-0.058336
-0.099157
-0.016559
0.030321
0.013738
0.20445
0.17383
0.060617
0.037656
0.0028946
0.026175
0.12344
0.067633
-0.066309
-0.0047593
0.23697
-0.0038025
-0.092778
0.0060837
-0.070136
-0.058336
-0.10904
-0.13647
-0.10649
-0.034418
-0.056104
-0.076833
-0.088633
-0.097881
-0.0864
-0.10043
-0.071093
-0.0105
0.096335
0.035742
-0.093735
-0.073963
-0.065671
-0.073963
0.038612
0.061255
-0.0069916
0.05392
0.049137
-0.043347
0.0044891
-0.010181
0.0073593
-0.032504
-0.0041214
0.041164
0.1193
0.04818
0.23761
0.24016
0.12567
0.13269
0.14066
0.11132
0.099205
0.099524
0.040526
0.061255
0.10877
0.03638
0.2593
0.26727
0.17638
0.05392
0.16968
0.16044
0.11643
0.16235
0.069547
0.0032135
0.15629
0.15629
0.13684
0.086768
0.078476
0.048818
-0.088314
-0.21365
-0.26627
-0.24777
-0.25765
-0.2433
-0.23693
-0.16645
-0.20599
-0.19961
-0.17155
-0.19324
-0.13966
0.071141
0.079433
-0.036012
-0.057698
-0.074282
-0.0047593
0.0022568
0.036699
0.020116
0.08613
0.040207
0.077838
0.047223
-0.014327
-0.082892
-0.10075
-0.13519
-0.12307
-0.1033
-0.095968
-0.092141
-0.066628
-0.041434
0.04531
0.0003433
0.11675
0.14321
0.19392
0.19456
0.2542
0.23442
0.23155
0.1649
0.14545
0.36007
0.35146
0.22517
0.15757
0.14768
0.21497
0.15565
-0.0025269
-0.17027
0.0025757
-0.0063538
-0.012732
0.066039
0.027451
-0.06599
-0.11861
-0.10235
-0.075876
-0.11542
-0.15528
0.013419
0.13173
0.061893
0.073374
-0.040158
-0.073963
0.018521
0.078157
-0.077152
-0.005716
0.052645
0.17511
0.20668
0.021391
-0.069498
-0.10298
-0.11861
-0.005716
-0.011456
-0.12754
0.0099106
-0.022299
-0.037288
-0.095968
-0.17793
-0.191
-0.093416
-0.13647
-0.14986
-0.13232
-0.014645
-0.041115
-0.15847
-0.1218
-0.10298
-0.069817
-0.08353
-0.11415
-0.068222
0.018202
0.021391
-0.058655
-0.041434
-0.0105
0.13843
0.11196
0.034148
0.0032135
-0.0066727
-0.012094
0.096335
0.04531
-0.037607
-0.10745
-0.030272
0.032872
0.095378
0.21146
0.071141
0.058385
0.097292
0.12823
0.28959
0.19392
0.1193
0.052963
0.029683
0.041164
0.2644
0.41812
0.26185
0.03925
0.023305
-0.019748
-0.099794
-0.11989
-0.078746
-0.096286
-0.17219
-0.17027
-0.18813
-0.19355
-0.24841
-0.27264
-0.11925
-0.079384
-0.13902
-0.2095
-0.20886
-0.13328
-0.1218
-0.099794
-0.0982
-0.031548
-0.091822
-0.13105
-0.086719
-0.10936
-0.14093
-0.13137
-0.169
-0.11159
-0.12467
-0.13519
-0.16645
-0.17282
-0.1521
0.11164
0.25707
0.16841
0.073055
0.13588
0.21242
0.39611
0.45862
0.30171
0.1649
0.27301
0.29757
0.26249
0.22454
0.29597
0.20445
0.041483
0.016608
-0.025807
0.0025757
-0.061525
-0.12339
-0.22544
-0.22927
-0.13169
-0.025488
-0.057698
-0.10426
-0.050363
-0.11733
-0.13264
-0.050363
0.061893
0.059342
-0.012094
0.074649
0.037337
0.054239
0.052645
0.0041702
-0.014008
-0.061525
-0.070455
-0.080022
-0.12945
-0.15465
-0.14125
-0.21046
-0.15082
-0.15815
-0.16326
-0.1639
-0.15911
-0.14093
-0.17857
-0.20408
-0.077152
-0.065671
0.26472
0.2542
0.12823
0.081028
0.063169
0.10112
0.2577
0.20476
0.10016
0.18499
0.21561
0.16713
0.093465
0.051369
0.039888
-0.030272
-0.022618
-0.076514
-0.13264
-0.13456
0.023305
0.02777
0.030321
-0.038564
-0.056423
0.041483
-0.0066727
0.067952
0.074968
0.10335
0.099205
0.16139
0.13779
0.064444
-0.015602
0.030959
0.1582
0.1665
0.066995
0.049455
-0.0073105
-0.025488
0.025218
0.1177
0.1413
0.093146
0.022986
-0.023894
-0.11574
-0.11606
-0.082892
-0.13583
-0.13838
-0.21779
-0.15369
-0.13232
-0.10968
-0.11319
-0.026445
-0.099794
-0.16517
-0.17123
-0.13934
-0.10553
-0.10235
-0.091503
-0.083211
-0.0015702
0.12695
0.34158
0.4449
0.21114
0.08613
0.11834
0.18372
0.3352
0.369
0.37028
0.26472
0.24941
0.063487
0.23251
0.10622
-0.06025
-0.066309
-0.14795
-0.22895
-0.26818
-0.26818
-0.25829
-0.25351
-0.27583
-0.24043
-0.0095429
-0.012413
-0.021343
-0.005716
0.046585
-0.095011
0.011186
0.097611
0.17925
0.094741
0.11005
0.043715
0.071141
0.052963
-0.010819
-0.083849
-0.11861
-0.11861
-0.13902
-0.15082
-0.19547
-0.18494
-0.027083
-0.087676
-0.10203
-0.11415
-0.04558
0.15693
0.17255
0.091233
0.02171
0.11037
0.11962
0.2424
0.2105
0.038612
0.12153
0.12567
0.046585
0.010548
-0.067903
-0.16166
-0.20918
-0.20057
0.08326
0.15119
0.033829
-0.030591
0.013738
0.012462
0.049137
0.093146
0.10367
0.030002
0.0003433
0.037337
0.034148
0.049137
-0.069179
-0.19196
-0.22544
-0.23693
-0.25319
-0.27583
-0.28604
-0.18622
-0.22002
-0.19132
-0.1741
-0.15784
-0.17187
-0.069817
0.070185
0.18053
0.054239
-0.062482
0.050093
0.062212
0.050093
0.021391
0.05392
0.12695
0.029683
-0.011456
0.082622
0.030002
-0.0038025
0.08039
0.06572
-0.016878
0.0041702
0.025537
-0.0012513
-0.022299
0.036699
0.035104
0.08039
0.064125
0.035423
0.0022568
-0.042391
0.059979
0.1311
0.23442
0.20445
0.061255
0.044672
0.037656
0.045947
0.031596
0.020116
-0.0069916
-0.054509
0.039888
0.042439
0.10782
0.18659
0.098249
-0.037926
-0.08066
-0.078746
-0.056104
-0.022299
-0.022618
-0.023256
0.014694
-0.036331
0.054239
0.020754
-0.0047593
-0.091503
-0.15528
-0.16549
-0.16198
-0.19068
-0.18781
-0.19355
-0.22959
-0.23214
-0.17251
-0.15178
-0.21237
-0.24936
-0.28189
-0.23182
-0.14827
-0.18175
-0.17027
-0.16804
-0.064714
0.11005
0.12886
0.095378
0.087087
0.019478
0.11292
0.2105
0.21975
0.19615
0.10208
0.15119
0.17479
0.10431
0.02777
-0.014645
0.0041702
0.042121
0.0044891
-0.064395
-0.075557
-0.13743
-0.095011
-0.13647
-0.1639
-0.16262
-0.2146
-0.15369
0.010548
-0.029634
-0.0047593
0.059023
0.23761
0.25356
0.16394
0.10495
0.10367
0.14226
0.12121
0.11515
0.085811
0.079752
-0.014008
-0.062163
-0.15943
-0.14636
-0.20503
-0.27519
-0.3393
-0.24904
-0.19674
-0.22066
-0.21301
-0.1454
-0.081935
-0.035694
-0.048769
-0.061206
-0.084168
-0.066628
-0.06025
0.058066
0.10558
-0.012094
0.020116
0.11388
0.008316
-0.066309
-0.043666
-0.066309
-0.083849
-0.13902
-0.010819
0.1547
0.076563
0.08039
0.058066
-0.02517
-0.055147
-0.027083
0.019159
0.03638
0.0079971
0.030321
0.015013
-0.034418
-0.002208
-0.039202
-0.12563
-0.13456
-0.14795
-0.16995
-0.1808
-0.12786
-0.13487
-0.13615
-0.16613
-0.13934
-0.1505
-0.16804
-0.19324
-0.13838
-0.091822
-0.086081
-0.13137
-0.16166
-0.16485
-0.14317
-0.16772
-0.18973
-0.17984
-0.16485
-0.15943
-0.16358
-0.14285
-0.11606
-0.038564
0.037656
0.064125
0.050412
0.031278
0.0035324
-0.005716
0.014375
0.077838
0.14736
0.14959
0.12089
0.16522
0.23442
0.27556
0.29693
0.3875
0.347
0.28896
0.26089
0.2542
0.20508
0.31224
0.41333
0.33297
0.29406
0.15597
0.055515
0.021391
-0.065352
-0.08066
-0.10809
-0.1403
-0.18622
-0.22768
-0.20248
-0.14827
-0.2044
-0.26244
-0.25638
-0.24554
-0.2398
-0.2197
-0.25383
-0.2315
-0.22959
-0.20503
-0.17857
-0.10043
0.0038513
-0.076514
-0.10617
-0.096286
-0.10522
-0.087357
-0.069817
-0.065033
-0.027402
0.0044891
-0.041753
-0.060887
-0.10809
-0.11096
-0.12467
-0.13711
-0.14795
-0.13487
-0.12212
-0.10266
-0.09246
-0.11064
-0.077471
-0.086719
-0.087357
-0.053552
-0.053552
-0.026764
0.030959
0.050093
0.07752
0.15342
0.24495
0.20381
0.18276
0.22581
0.24144
0.28577
0.24016
0.27269
0.26472
0.17861
0.15087
0.17447
0.12599
0.02171
0.033829
-0.0012513
-0.058017
-0.022937
0.012462
-0.012094
-0.055466
-0.038564
-0.038564
-0.06599
-0.034099
-0.0063538
-0.0066727
-0.042072
-0.040477
-0.033142
-0.073325
-0.096924
-0.10235
-0.11128
-0.13392
-0.14157
-0.14412
-0.1403
-0.13232
-0.067266
-0.02517
0.025218
0.0003433
-0.012413
-0.0076295
0.0025757
-0.0095429
0.0060837
0.047861
0.074649
0.044672
0.0003433
-0.041115
0.0076782
-0.013689
-0.086719
-0.11351
-0.12467
-0.14189
-0.14317
-0.15273
-0.17857
-0.18399
-0.1741
-0.14986
-0.14827
-0.1521
-0.14636
-0.10809
-0.090865
-0.083849
-0.073006
-0.020705
-0.017835
0.011505
0.023943
0.0099106
-0.00061343
0.019797
0.016289
0.021072
0.038612
0.069547
0.098886
0.077838
0.076244
0.058385
0.11515
0.11005
0.063487
0.091233
0.099524
0.046585
0.040845
0.064444
0.067952
0.04531
0.023624
-0.021661
-0.015602
0.026175
-0.009224
-0.0098618
0.011824
0.0032135
0.023943
0.085492
0.053282
0.037975
0.022986
2.4388e-05
0.027132
0.012143
0.02458
0.03925
0.062212
0.089638
0.046904
-0.01337
-0.02517
0.0028946
0.0076782
-0.0015702
-0.018153
-0.043985
-0.046218
-0.065671
-0.054509
0.037337
0.024262
-0.034737
-0.04271
-0.069817
-0.11861
-0.1218
-0.10458
-0.055466
-0.013689
-0.036012
-0.087676
-0.14253
-0.15369
-0.13551
-0.13998
-0.15688
-0.17251
-0.17793
-0.17346
-0.17059
-0.15114
-0.14093
-0.12722
-0.10777
-0.10298
-0.09246
-0.068222
-0.069179
-0.058655
-0.046218
-0.049407
-0.048131
-0.041115
-0.047812
-0.047493
-0.031229
-0.031548
-0.034099
-0.023894
-0.013689
-0.015921
-0.009224
-0.0044404
-0.0025269
-0.0031647
-0.0095429
-0.0079484
-0.011775
-0.014645
-0.015921
-0.019748
-0.032186
-0.020386
-0.012094
-0.017516
-0.0085862
-0.0076295
-0.0079484
0.0016189
0.012462
0.0016189
0.0038513
0.0070404
0.0013
-0.002208
-0.0044404
-0.010819
-0.017197
-0.019429
-0.014327
-0.0089051
-0.0089051
-0.0073105
-0.00061343
-0.0038025
0.0013
0.01597
0.0073593
0.00066221
0.0070404
0.012143
0.0070404
0.0016189
-0.0076295
-0.01911
-0.0105
-0.0095429
-0.012094
-0.0060349
0.0003433
0.0028946
0.004808
0.014375
0.010867
0.0016189
-0.00061343
0.0025757
-0.0073105
-0.010819
-0.010181
0.0013
-0.013051
-0.0079484
-0.0053971
-0.0069916
-0.0066727
-0.0066727
-0.0060349
0.0035324
0.014694
0.0032135
-0.0073105
0.0099106
-0.0031647
-0.018791
-0.028678
-0.035375
-0.035694
-0.033142
-0.03378
-0.030591
-0.032823
-0.028678
-0.02198
-0.024851
-0.017516
-0.0034836
-0.011775
-0.01624
-0.0079484
-0.0105
-0.016878
-0.015602
-0.026764
-0.038245
-0.02198
-0.020067
-0.021024
-0.020067
-0.012413
-0.0082673
-0.0095429
-0.0034836
-0.0018891
-0.00093234
-0.0060349
-0.0085862
-0.013689
-0.015921
-0.016559
-0.021024
-0.036012
-0.023256
-0.0069916
-0.0085862
-0.0085862
-0.0066727
-0.0063538
-0.0015702
0.008316
-0.00093234
0.0013
0.0060837
-0.0063538
-0.0076295
-0.011775
-0.022299
-0.032823
-0.03952
-0.032504
-0.032823
-0.032504
-0.022937
-0.022618
-0.029315
-0.020705
0.013419
-0.0041214
-0.014008
-0.012094
-0.0098618
-0.0028458
-0.0069916
-0.017197
-0.030272
-0.012094
-0.015602
-0.025807
-0.028996
-0.024213
-0.013051
-0.010181
-0.016559
-0.020067
-0.034099
-0.044942
-0.040477
-0.044304
-0.050363
-0.053552
-0.06312
-0.074919
-0.064714
-0.057379
-0.059612
-0.055147
-0.05419
-0.049088
-0.039202
-0.028359
-0.03665
-0.036969
-0.030591
-0.036012
-0.038564
-0.041434
-0.047493
-0.049088
-0.050682
-0.047174
-0.039202
-0.040796
-0.035694
-0.029953
-0.031867
-0.023894
-0.0105
-0.01911
-0.024532
-0.018472
-0.025807
-0.028678
-0.030591
-0.037607
-0.045261
-0.03378
-0.033461
-0.036012
-0.033142
-0.029953
-0.024213
-0.020386
-0.014964
-0.0105
-0.014645
-0.019429
-0.017835
-0.023256
-0.027721
-0.029634
-0.03665
-0.046536
-0.036969
-0.031229
-0.036012
-0.031548
-0.029953
-0.03091
-0.022618
-0.010819
-0.021024
-0.021343
-0.019429
-0.023894
-0.027402
-0.031548
-0.038883
-0.029315
-0.028996
-0.028359
-0.026126
-0.028678
-0.025488
-0.01911
-0.017835
-0.0063538
0.008635
-0.00093234
-0.0085862
-0.014008
-0.032186
-0.021343
-0.023575
-0.031867
-0.043985
-0.035375
-0.036969
-0.039839
-0.042391
-0.035694
-0.024213
-0.023575
-0.020705
-0.01624
-0.017835
-0.02198
-0.02198
-0.027083
-0.028678
-0.029953
-0.034418
-0.047174
-0.034737
-0.029953
-0.032823
-0.026126
-0.022299
-0.021343
-0.01624
-0.002208
-0.013689
-0.014645
-0.0089051
-0.01337
-0.020067
-0.021343
-0.026445
-0.030591
-0.032823
-0.026764
-0.020705
-0.022618
-0.017197
-0.0073105
-0.0105
-0.005716
0.012462
0.0019378
-0.00029452
0.0041702
-0.0034836
-0.0050782
-0.0050782
-0.012732
-0.025488
-0.014645
-0.0105
-0.011775
-0.013051
-0.010181
-0.0041214
-0.00061343
0.0028946
0.0067215
0.0044891
0.00066221
2.4388e-05
-0.0047593
-0.0085862
-0.0095429
-0.015283
-0.026126
-0.015921
-0.0098618
-0.01337
-0.0089051
-0.0063538
-0.0047593
0.0022568
0.011824
0.0057648
0.0022568
0.0067215
0.0016189
-0.0028458
-0.0073105
-0.012094
-0.01624
-0.020386
-0.013689
-0.0089051
-0.010819
-0.0063538
0.0003433
-0.0028458
0.0028946
0.017564
0.0073593
0.0022568
0.0095917
0.0019378
-0.0038025
-0.0047593
-0.013051
-0.021661
-0.011775
-0.0095429
-0.011456
-0.0089051
-0.0063538
0.0003433
0.0032135
0.0064026
0.012781
0.008316
0.0032135
0.0028946
-0.0031647
-0.0073105
-0.0076295
-0.0066727
-0.017197
-0.0060349
-0.0047593
-0.010819
-0.0079484
-0.0018891
2.4388e-05
0.026175
0.031278
0.01884
0.01597
0.011186
-0.002208
-0.0079484
-0.0105
-0.014645
-0.014645
-0.019748
-0.02198
-0.025488
-0.032504
-0.031229
-0.026445
-0.027721
-0.021024
-0.0069916
-0.01911
-0.022937
-0.018153
-0.028678
-0.029634
-0.032823
-0.039202
-0.047493
-0.036012
-0.03665
-0.038564
-0.035056
-0.032823
-0.027083
-0.023894
-0.01911
-0.012094
-0.015283
-0.019748
-0.018153
-0.024851
-0.026764
-0.026764
-0.032186
-0.043028
-0.029634
-0.023575
-0.028359
-0.023256
-0.020705
-0.018791
-0.014327
-0.0015702
-0.013689
-0.010819
-0.0060349
-0.014008
-0.020386
-0.023575
-0.028359
-0.033142
-0.036012
-0.03091
-0.023256
-0.025488
-0.019748
-0.013689
-0.015602
-0.010181
0.0044891
-0.0053971
-0.0089051
0.00098112
-0.0079484
-0.012094
-0.013689
-0.023256
-0.031867
-0.02198
-0.019748
-0.022618
-0.019429
-0.014964
-0.0089051
-0.0076295
-0.0050782
0.00066221
-0.0018891
-0.0076295
-0.0066727
-0.0082673
-0.0034836
-0.002208
-0.0095429
-0.023894
-0.014964
-0.005716
-0.012094
-0.0041214
0.0044891
0.015651
0.024899
0.037337
0.022029
0.0131
0.011824
0.0051269
0.0067215
0.0051269
-0.0044404
-0.010819
-0.01911
-0.01337
-0.010819
-0.016559
-0.014964
-0.012094
-0.018791
-0.010819
0.0057648
-0.0041214
-0.0085862
-0.0015702
-0.0089051
-0.012094
-0.011775
-0.019429
-0.025807
-0.013051
-0.011775
-0.013051
-0.011137
-0.0044404
0.0016189
0.0073593
0.010548
0.022667
0.020754
0.0131
0.016289
0.010867
0.011824
0.011505
0.0089539
-0.0018891
0.028407
0.029045
0.014694
0.01597
0.020435
0.023305
0.028726
0.037018
0.029683
0.032872
0.033191
0.028726
0.012143
0.0041702
-0.0034836
-0.0063538
-0.0085862
-0.0028458
0.0025757
-0.0012513
0.0057648
0.010867
0.004808
0.012143
0.026813
0.020435
0.015651
0.020116
0.0131
0.008635
0.0073593
-0.00061343
-0.0095429
0.0019378
0.004808
0.0025757
0.0041702
0.0089539
0.015013
0.018202
0.02458
0.034148
0.042758
0.090914
0.097611
0.080071
0.081665
0.075606
0.053282
0.03925
0.047542
0.060617
0.058066
0.069866
0.069228
0.042439
0.03925
0.034148
-0.0038025
-0.015921
-0.01337
-0.023894
-0.02198
-0.026126
-0.036331
-0.041115
-0.04271
-0.036012
-0.027721
-0.027083
-0.020067
-0.011456
-0.012094
-0.002208
0.014694
0.056153
0.13333
0.14034
0.16331
0.16458
0.14864
0.13046
0.12918
0.14768
0.15533
0.15852
0.16012
0.13237
0.10303
0.06285
0.050412
0.035104
-0.0053971
-0.03091
-0.066309
-0.089589
-0.10011
-0.10553
-0.10904
-0.11702
-0.10011
-0.093097
-0.089908
-0.07779
-0.067585
-0.029953
-0.0041214
0.030002
0.051369
0.043396
0.048818
0.038612
0.039888
0.049455
0.051688
0.063487
0.060298
0.080071
0.074649
0.052645
0.035423
0.018202
0.0016189
-0.005716
0.011186
0.0019378
-0.0079484
-0.015283
-0.026126
-0.044623
-0.050682
-0.067266
-0.047493
-0.03665
0.02777
0.052645
0.063806
0.051369
0.052963
0.05679
0.076563
0.090914
0.1244
0.14353
0.13843
0.10941
0.065401
0.0070404
0.017564
0.024899
0.014694
-0.0012513
-0.029315
-0.045261
-0.058336
-0.066947
-0.051639
-0.042391
-0.051958
-0.040796
-0.029634
-0.020067
-0.012732
-0.009224
0.0067215
0.084536
0.11962
0.11037
0.098568
0.087087
0.07433
0.078157
0.10239
0.12727
0.15183
0.14609
0.12121
0.093146
0.0025757
-0.018791
0.015332
0.0032135
-0.0073105
-0.011775
-0.043666
-0.032823
-0.023256
-0.014645
-0.002208
0.018202
0.01597
0.029045
0.034148
0.028726
0.031278
0.028407
0.029683
0.023943
0.010548
-0.0044404
0.0051269
0.0003433
-0.0105
-0.0085862
-0.0015702
-0.00061343
0.0028946
0.014375
0.0013
0.019159
0.039888
0.068271
0.13971
0.16745
0.15374
0.11706
0.10239
0.15151
0.18691
0.18818
0.1716
0.17606
0.19584
0.17925
0.14927
0.11005
0.070185
0.064444
0.032553
-0.009224
-0.037607
-0.05132
-0.077471
-0.063758
-0.074919
-0.097243
-0.10362
-0.0982
-0.099157
-0.082254
-0.056423
-0.039839
0.0003433
0.0067215
0.023305
0.068271
0.11866
0.15788
0.1193
0.10654
0.10782
0.11164
0.11993
0.089957
0.10558
0.13046
0.12217
0.086449
0.011505
0.008635
-0.032186
-0.062482
-0.070455
-0.085762
-0.085762
-0.082254
-0.098838
-0.094692
-0.077471
-0.076833
-0.06312
-0.065033
-0.073644
-0.061206
-0.032504
-0.020067
-0.03378
-0.0073105
0.029683
0.058704
0.062212
0.046585
0.044353
0.053601
0.099205
0.12057
0.1464
0.1547
0.15629
0.15183
0.14927
0.12472
0.10718
0.09506
0.09187
0.043715
0.037337
0.032872
0.016927
-0.0060349
-0.0015702
-0.020705
-0.005716
-0.055466
-0.062801
-0.039202
-0.0028458
0.014694
0.041483
0.036061
0.014694
0.041802
0.052007
0.072736
0.073374
0.061574
0.062531
0.064125
0.066039
0.035104
0.074012
0.078476
0.026175
0.018521
0.048818
0.040526
0.010867
0.046904
0.022348
0.068271
0.08613
0.10399
0.16618
0.28896
0.32021
0.41365
0.35688
0.36135
0.40345
0.46691
0.42864
0.42386
0.49146
0.61903
0.56099
0.54727
0.6404
0.67962
0.57024
0.37793
0.25643
0.21848
0.2644
0.38112
0.36199
0.32149
0.347
0.33966
0.10016
-0.12595
-0.10266
-0.1269
-0.25734
-0.26021
-0.28253
-0.28221
-0.1454
-0.024532
-0.22959
-0.37055
-0.24107
-0.10362
-0.17857
-0.21333
-0.22513
-0.13934
-0.1859
-0.22034
-0.25574
-0.16007
-0.21683
-0.36895
-0.46654
-0.38203
-0.4321
-0.50226
-0.60016
-0.58199
-0.58773
-0.57625
-0.53638
-0.50672
-0.4624
-0.48536
-0.45984
-0.44326
-0.42795
-0.31952
-0.20599
0.045947
0.067314
0.0076782
-0.01624
0.011505
0.055515
0.069866
0.089319
0.23442
0.24144
0.19679
0.17925
0.067314
0.049774
0.1244
0.14545
0.1362
0.046266
0.057109
0.12727
0.058385
0.12791
0.24271
0.27269
0.29916
0.44235
0.2813
0.23315
0.16554
0.14034
0.092508
0.10208
0.13843
0.074012
-0.0044404
-0.14508
-0.093416
0.028726
-0.11319
-0.16134
-0.1438
-0.15146
-0.085443
-0.11925
-0.1151
-0.076514
-0.079065
-0.10362
-0.038883
0.010867
-0.02517
-0.051001
0.0076782
0.050412
0.049774
0.14162
0.1346
0.084536
0.13843
0.26376
0.26472
0.22932
0.18595
0.17542
0.1818
0.11069
0.0095917
0.023624
0.11419
0.17447
0.14864
0.016289
-0.046536
-0.11064
-0.19036
-0.07779
0.023305
0.1193
0.12567
0.094741
-0.01911
-0.05132
0.13843
0.16426
0.13014
0.044034
0.02777
-0.0015702
-0.042391
-0.016878
-0.0060349
0.0070404
-0.044623
-0.14285
-0.15401
-0.089908
-0.11351
-0.14954
-0.19036
-0.20503
-0.20472
-0.16421
-0.061844
0.12344
0.048818
0.051688
-0.0047593
0.022986
0.25898
0.31893
0.33647
0.33743
0.19296
0.16139
0.16426
0.11483
0.21497
0.21529
0.16809
0.10782
0.054877
0.0038513
-0.05419
0.1244
0.06572
0.01884
-0.015283
0.029045
0.040207
0.0067215
0.060298
0.09187
0.10558
0.008316
0.067633
0.096654
0.17734
0.20413
0.1228
0.0067215
-0.0025269
0.042758
0.0038513
-0.022299
-0.037607
0.0032135
-0.060569
-0.10075
-0.13264
-0.018153
-0.0031647
0.12408
0.010548
-0.057698
0.093465
-0.026764
-0.046218
0.207
0.25133
0.21656
0.2424
0.47105
0.38814
0.33456
0.29821
0.17128
0.087725
0.077201
0.038294
0.076244
0.058704
0.055515
-0.012732
-0.14189
-0.16453
0.08613
0.19966
-0.002208
-0.044942
-0.09533
-0.11893
-0.16421
-0.038564
0.01023
0.052007
0.066039
-0.0041214
-0.12945
-0.10203
-0.11893
-0.22608
-0.27232
-0.20759
-0.26722
-0.17442
-0.18749
-0.19547
0.0079971
0.064125
0.13205
0.16044
0.23442
0.18372
0.13269
0.1582
0.21019
0.35688
0.24335
0.24399
0.17479
0.18148
0.066039
0.008316
-0.028678
-0.093416
-0.12371
-0.10298
-0.12722
-0.17123
-0.20153
-0.17952
-0.17633
-0.19068
-0.24586
-0.21396
-0.1269
-0.24554
-0.24873
-0.082254
0.18021
0.1413
0.02777
-0.089908
-0.083211
-0.017516
-0.0073105
0.070822
0.13588
0.1885
0.16076
0.12025
0.092508
0.070185
-0.027402
-0.10809
0.090914
0.39133
0.19105
0.0060837
-0.01337
0.25133
0.4414
0.34732
0.46372
0.78869
0.8378
0.53675
0.4921
0.5326
0.3824
0.38176
0.2526
0.22868
0.19233
0.088681
-0.21652
-0.3157
-0.35779
-0.47866
-0.52522
-0.61579
-0.64896
-0.62026
-0.54053
-0.56859
-0.55743
-0.27264
-0.22034
-0.077471
-0.14636
-0.16964
-0.21141
-0.19579
-0.09533
0.14162
0.078476
-0.039839
-0.072049
-0.03091
-0.11064
-0.22768
-0.25861
-0.1556
-0.0015702
0.28959
0.30458
0.14991
0.10208
0.067952
0.14194
0.28832
0.39292
0.47361
0.37124
0.17766
0.12695
0.019159
-0.081935
-0.11861
-0.16421
-0.2921
-0.38139
-0.36832
-0.46686
-0.54404
-0.5013
-0.58039
-0.61898
-0.5367
-0.46495
-0.25702
-0.032504
0.033191
0.012462
-0.009224
-0.010819
0.12727
0.12759
0.14959
0.093784
0.043077
0.20285
0.35816
0.3942
0.16331
-0.015283
-0.027721
-0.10936
-0.16007
-0.17378
-0.19036
-0.19164
0.094741
0.37474
0.26759
0.16777
0.13524
0.11515
0.086449
0.10909
-0.013051
0.020116
0.03351
-0.0012513
-0.0082673
0.034467
-0.14189
-0.38458
-0.40786
-0.44486
-0.61037
-0.68946
-0.69137
-0.70923
-0.58836
-0.44613
0.050093
0.62381
0.17064
0.13142
0.3824
0.71247
0.21656
0.28003
0.49178
0.53898
0.3065
0.48222
0.47998
0.15565
-0.16071
-0.19355
-0.28795
-0.44709
-0.38235
-0.50832
-0.58454
-0.57944
-0.58422
-0.59028
-0.48823
-0.19228
-0.24745
-0.29656
-0.34344
-0.26276
-0.2162
-0.22481
-0.26084
-0.15688
0.024899
0.2475
0.29119
0.041483
0.040207
0.096016
0.051369
0.15055
0.25451
0.18117
0.098568
-0.088952
0.15757
0.25802
0.28704
0.099843
0.021072
0.13971
0.28864
0.026813
-0.093097
-0.025807
-0.011775
-0.078109
-0.12467
-0.1674
-0.094054
-0.18399
-0.3039
-0.16932
-0.31059
-0.45793
-0.57816
-0.59761
-0.41743
-0.33005
-0.24936
-0.075876
0.026175
0.16554
0.3183
0.22709
0.38335
0.44395
0.26727
0.36103
0.31256
0.24431
0.24431
0.35975
0.38686
0.32308
0.092827
0.0054459
-0.20248
-0.27201
-0.25638
-0.31857
-0.38012
-0.46814
-0.31155
-0.26021
-0.32016
-0.37757
-0.19834
-0.30422
-0.30836
-0.29273
-0.32782
-0.26754
-0.21078
-0.10585
-0.12945
-0.092141
-0.05132
-0.034737
0.40313
0.64358
0.67229
0.40153
0.46053
0.29852
0.23315
0.31383
0.40919
0.3942
0.25356
0.12312
0.21816
0.010867
-0.27679
-0.1572
-0.15082
-0.43274
-0.60303
-0.44773
-0.37916
-0.5603
-0.50704
-0.54021
-0.37182
-0.24362
-0.26308
-0.20376
-0.25351
-0.2095
-0.22194
-0.20982
-0.22832
-0.25702
-0.21428
-0.27615
-0.27647
-0.38681
-0.26627
-0.2634
-0.24586
-0.12563
0.29087
0.27461
0.022348
0.14768
0.52878
0.61648
0.41301
0.22454
0.038612
0.12025
0.39005
0.48636
0.36486
0.11802
-0.16262
-0.10841
-0.012732
0.092189
-0.082892
-0.14699
-0.04845
-0.17825
-0.12116
0.040845
0.092508
0.34636
0.46149
0.60181
0.38941
0.25324
0.22613
-0.021343
0.084536
0.073374
-0.047493
-0.32367
-0.21779
-0.18845
-0.18909
-0.016878
-0.21779
-0.51374
-0.52203
-0.47101
-0.47706
-0.48057
-0.44613
-0.49556
-0.38936
-0.28094
-0.18909
-0.12754
-0.191
-0.3141
-0.3393
-0.29529
-0.29561
-0.26371
-0.22544
-0.11702
-0.11574
-0.029315
-0.10681
-0.054509
0.004808
-0.14859
-0.062482
-0.044942
-0.28157
-0.093735
-0.014008
-0.027083
0.21975
0.56386
0.33647
0.12408
0.11451
0.16235
0.25164
0.39834
0.39324
0.29661
0.26281
0.39292
0.2947
0.35593
0.21146
-0.13487
-0.048769
-0.092778
0.019478
-0.051639
-0.13073
-0.13296
-0.038564
0.30012
0.18244
-0.036969
-0.061844
0.27046
0.17479
0.095378
-0.13328
0.04531
0.18117
0.097611
0.17383
0.38208
0.27492
-0.069179
-0.13169
-0.036331
-0.0012513
-0.081298
-0.26148
-0.331
-0.13615
-0.0095429
-0.0044404
-0.22672
-0.34886
-0.32718
-0.06312
-0.085443
-0.17825
-0.24904
-0.23055
-0.27647
-0.33005
-0.30996
-0.21109
-0.17984
-0.13105
0.16044
0.23921
0.037018
0.015651
0.053601
-0.014327
-0.0095429
0.068271
0.13301
-0.044304
-0.13392
0.19743
0.12408
-0.097881
-0.14093
-0.020067
-0.16039
-0.28221
-0.20567
-0.23788
-0.30868
-0.24299
-0.0982
-0.070455
-0.085762
-0.07173
0.019478
0.35051
0.22645
0.25292
0.11132
0.28704
0.5578
0.30682
0.2223
0.14385
0.15565
0.17351
0.21178
0.094103
-0.024532
-0.1218
-0.11829
-0.12307
-0.12276
-0.053552
-0.19929
-0.21907
-0.23629
-0.26786
-0.16932
-0.088952
-0.059612
0.054239
0.0035324
0.14896
0.19807
0.063806
-0.017835
-0.15879
-0.087357
0.0003433
-0.0982
0.14736
0.14864
0.41716
0.25133
-0.0060349
-0.027721
0.0019378
0.073055
0.083579
0.074012
-0.10904
0.075287
0.095697
-0.0031647
-0.086081
-0.19228
-0.3275
-0.27998
-0.12499
-0.18175
-0.090227
-0.14795
-0.28923
-0.27679
-0.23724
-0.27998
-0.14221
0.089
0.0089539
-0.11542
-0.21588
-0.19674
-0.18622
-0.19036
-0.24681
-0.27998
-0.23661
-0.067585
0.17351
0.087725
0.025856
0.080709
0.15916
0.14417
0.26249
0.19424
0.38048
0.22135
0.021391
0.10112
0.20732
0.11802
0.098886
0.031915
-0.13169
-0.080979
-0.10171
-0.17346
-0.13998
-0.22991
-0.24299
-0.17059
-0.17538
-0.093735
0.0067215
-0.072687
-0.038883
-0.13838
-0.21014
-0.16868
-0.17506
-0.19355
-0.1623
-0.24681
-0.27743
-0.082573
0.13078
0.23187
0.1952
0.11738
0.022029
0.1936
0.099843
0.074012
0.086768
0.074649
0.21625
0.22486
0.08039
-0.0089051
0.08039
0.046904
-0.030591
0.017883
0.15533
0.4178
0.33424
0.13939
-0.047493
0.0070404
0.1582
-0.024851
-0.27488
-0.24075
0.082941
0.18499
-0.055147
-0.37501
-0.4911
-0.56285
-0.58103
-0.58454
-0.56445
-0.5265
-0.45857
-0.35301
-0.24745
-0.099476
-0.18909
-0.26786
-0.23788
-0.1674
-0.1403
-0.089908
-0.013689
0.01884
0.1582
0.33871
0.15948
0.066995
-0.025488
-0.012413
0.057747
0.16554
0.37825
0.90796
0.30809
0.11228
0.093784
0.1126
0.1834
0.11069
0.097611
-0.064714
0.19233
0.20859
0.029364
-0.20376
-0.33961
-0.29688
-0.085443
-0.17027
-0.23214
-0.18813
-0.093097
0.2121
0.10686
-0.059612
-0.057698
-0.10904
-0.033142
0.20827
0.33584
0.11611
0.18786
0.15884
0.20126
0.015013
-0.081298
-0.085762
-0.076195
0.034148
0.22645
0.70737
0.48796
0.10845
-0.08353
-0.018472
0.14959
0.064125
0.019797
0.11962
0.15948
0.19137
0.025856
-0.17506
-0.22863
-0.21843
-0.26021
-0.28317
-0.29879
-0.26658
-0.18494
-0.069179
-0.11829
-0.00093234
0.39994
0.54887
0.19105
0.015332
0.062212
0.051369
0.053282
0.14896
0.098249
0.2188
0.30012
0.19615
0.0099106
-0.15975
-0.21683
-0.18431
-0.09246
-0.018472
0.098568
0.3419
0.27365
0.10813
0.148
0.23442
0.43215
0.51602
0.2762
0.18212
0.23761
0.30044
0.11069
0.091552
0.099843
0.0016189
0.030959
-0.11096
-0.18622
-0.29082
-0.25734
-0.25096
-0.27615
-0.25096
-0.16166
-0.009224
0.10208
0.16076
0.2829
0.30522
0.13078
0.068271
0.016927
0.093784
0.21114
0.092189
0.12727
0.13907
0.19392
0.042121
-0.11351
-0.16294
-0.18558
-0.18207
-0.16071
-0.18941
-0.15082
0.026494
0.056153
0.019159
0.028726
-0.094692
0.26057
0.42162
0.12982
-0.011456
0.042439
0.11866
0.13365
0.04818
0.014694
0.077838
0.13875
0.049137
-0.030591
-0.091822
-0.13232
0.0028946
0.083898
0.19902
0.16267
0.12312
0.28896
0.21784
0.13907
0.020435
0.093465
0.30395
0.31543
0.1531
0.11611
-0.016878
0.020754
-0.021024
-0.15784
-0.24362
-0.12403
-0.16421
-0.24936
-0.25542
-0.21109
-0.19164
-0.12754
-0.052915
0.0044891
-0.067903
-0.018153
0.028726
-0.0982
-0.051001
-0.037926
0.093465
0.041483
0.02777
-0.061525
-0.066628
0.091233
-0.062801
-0.13073
-0.086081
-0.13806
0.0013
0.14545
0.11451
0.061255
0.060617
0.01884
0.23442
0.085492
-0.064395
0.021391
0.19105
0.13014
-0.034099
-0.010181
0.10622
-0.012732
-0.087995
-0.15624
-0.18781
-0.19132
-0.18686
-0.067585
0.081028
0.031278
0.05105
0.16171
0.15023
-0.087676
-0.11925
-0.10171
0.052645
0.079752
0.14481
0.18946
0.10845
0.0044891
0.012143
0.024899
0.28545
0.27588
0.031915
-0.13551
-0.11128
-0.10203
-0.14923
-0.12148
-0.0034836
0.026494
0.050731
-0.040477
-0.17857
-0.29114
-0.28444
-0.22863
-0.19068
-0.16071
-0.18048
-0.19068
-0.19483
-0.091184
0.040207
-0.041115
-0.027083
-0.025807
-0.04845
-0.0105
-0.035056
0.013738
0.062212
0.012462
-0.081935
-0.055147
-0.03952
0.0092728
-0.056104
-0.034418
0.0051269
0.004808
-0.088314
-0.048131
-0.035375
0.026175
-0.018472
-0.041434
0.024899
0.064125
0.19679
0.12886
-0.0044404
0.07433
0.23793
0.19871
0.12536
0.30937
0.28864
0.35752
0.33584
0.10622
0.17925
0.20062
0.13397
0.1783
0.012781
0.14481
0.099205
0.066677
-0.024532
0.034148
0.17574
0.015651
-0.19515
-0.17219
-0.067903
-0.11989
-0.1757
-0.16517
0.055196
0.029364
-0.021343
-0.11287
-0.20886
-0.24841
-0.23884
-0.13232
-0.13743
-0.20822
-0.29816
-0.21683
-0.17282
-0.14125
-0.15401
-0.10936
-0.0098618
-0.041115
-0.072368
-0.072368
-0.0044404
-0.044623
-0.009224
-0.014964
0.014056
0.017883
0.11005
0.08326
0.09187
0.078157
0.148
0.099843
0.041483
0.004808
0.076244
0.093784
0.148
0.11483
0.14226
0.099524
0.11037
0.33743
0.5055
0.32212
0.069228
-0.0066727
0.29534
0.33934
-0.038564
0.037337
0.28959
0.22262
0.02171
-0.065033
-0.10809
-0.062801
-0.11829
-0.16581
-0.20121
-0.24554
-0.27583
-0.26276
-0.2433
-0.1741
-0.11415
-0.11319
0.052007
-0.095649
-0.1336
-0.090227
-0.035694
0.022348
-0.036012
-0.09246
0.008316
0.018202
0.013738
0.022348
-0.10266
-0.10649
-0.044942
-0.044623
-0.073644
-0.084168
-0.0025269
0.008316
-0.005716
-0.0041214
-0.045899
-0.0053971
0.029364
0.15214
0.14768
0.10335
0.058704
0.090914
0.035742
-0.11606
0.14226
0.22326
0.18659
0.080071
0.052007
0.058385
0.023943
0.039569
-0.0098618
0.042758
-0.016559
0.1531
0.19743
0.13237
0.035104
0.030321
0.078157
0.081346
0.053282
0.022029
0.061255
0.068271
0.032553
-0.078746
-0.034099
-0.034418
-0.058336
-0.12276
-0.12531
0.0035324
-0.054828
-0.077152
-0.0028458
0.06285
0.057428
-0.0060349
0.093784
0.1126
0.13301
0.068271
0.12057
0.064763
0.056471
-0.10585
0.012781
-0.032504
-0.014964
-0.087676
-0.13392
-0.17155
-0.19419
-0.20599
-0.17633
-0.12722
-0.13009
-0.092778
2.4388e-05
-0.023894
-0.07779
-0.082254
-0.058017
-0.083849
-0.077471
0.012462
0.1346
0.10048
0.03638
-0.029953
-0.0076295
0.020435
0.0044891
-0.011775
0.11228
0.083898
0.011505
0.044991
0.074012
0.29151
0.24208
-0.032186
-0.014964
0.073055
0.17702
0.17192
0.066995
0.13811
0.20221
0.15342
0.13652
0.040207
0.00066221
0.020435
-0.045261
0.033829
0.30682
0.1598
0.050093
0.016927
0.026175
0.035423
0.094103
0.0092728
0.056471
0.027451
-0.030591
0.06859
-0.058974
-0.12339
-0.035056
0.0060837
-0.079065
-0.11191
-0.12754
-0.24203
-0.13583
-0.17538
-0.12563
-0.083211
-0.080341
0.0057648
-0.039839
-0.060569
-0.078109
-0.11383
-0.11159
-0.16549
-0.11542
-0.066947
-0.11319
-0.11893
-0.10203
-0.11446
-0.13487
-0.099157
0.21114
0.30235
0.12855
-0.015283
-0.017197
0.093784
0.096335
0.15757
0.12759
0.17734
0.28481
0.30682
0.15693
-0.0041214
0.012781
0.073055
-0.014964
-0.020386
-0.062163
0.063806
0.049137
0.20349
0.094741
0.071141
0.093465
0.14162
0.16394
0.20763
0.16681
-0.00061343
0.2003
0.22262
0.10941
0.058704
0.11005
0.0092728
-0.010181
-0.061844
-0.10809
-0.080341
-0.12722
-0.13966
-0.06312
0.028088
0.04818
-0.019429
-0.11638
-0.037607
0.0038513
0.032234
-0.029634
0.055515
0.13046
0.041483
0.055196
-0.0089051
0.0003433
-0.043666
-0.16804
-0.19324
-0.26084
-0.19515
-0.18175
-0.17825
-0.24777
-0.26595
-0.13966
-0.1167
-0.13838
-0.072687
-0.060887
-0.0864
-0.023894
-0.067266
-0.028678
-0.0031647
-0.049088
0.051369
0.11005
0.054558
-0.0050782
-0.081298
-0.038883
0.019478
0.15183
0.22167
0.19902
0.070185
0.037656
0.048499
0.084536
0.12472
0.23474
0.29597
0.19934
0.18148
0.15214
0.040526
0.11419
0.30873
0.3403
0.22549
0.22358
0.23538
0.3336
0.24782
0.23379
0.1936
0.14066
0.25164
0.16299
0.094422
0.064763
0.02171
0.10367
0.072736
0.11802
0.035423
-0.078109
-0.056423
-0.13838
-0.16964
-0.12403
0.056153
-0.038564
0.032234
0.0067215
-0.15018
-0.23023
-0.24649
-0.24522
-0.16326
-0.16995
-0.25765
-0.20344
-0.18271
-0.20567
-0.21811
-0.22608
-0.27775
-0.25829
-0.22513
-0.2095
-0.1792
-0.045261
-0.03091
-0.13519
-0.10777
-0.10522
-0.090227
0.0076782
0.091233
0.18404
0.24941
0.23697
0.44395
0.57087
0.52527
0.3521
0.18531
0.30203
0.38495
0.39228
0.34955
0.45096
0.49657
0.49689
0.4044
0.33775
0.15119
0.032234
0.040207
0.17638
0.074968
-0.044942
0.06572
-0.046855
-0.013689
-0.028996
-0.10936
-0.17059
-0.228
-0.26021
-0.26754
-0.19515
-0.20216
-0.19515
-0.19834
-0.30198
-0.25191
-0.16836
-0.20185
-0.15975
-0.14827
-0.17857
-0.092778
-0.14795
-0.10266
-0.078427
-0.10713
0.072736
0.016927
-0.068541
0.071141
0.012462
0.13397
0.26217
0.21656
0.010548
-0.13424
0.010867
0.046585
0.06572
0.034467
0.14704
0.24909
0.28354
0.20891
0.14672
0.041802
0.05392
-0.026445
0.14672
0.11898
0.098568
0.12472
0.10845
0.13843
0.014694
-0.055785
-0.18367
-0.10235
-0.038245
-0.13487
-0.15497
-0.023894
-0.0076295
-0.01911
0.25324
0.41525
0.17192
0.11993
0.06572
0.078476
0.12312
0.19711
0.27046
0.16107
0.10845
0.1177
0.047861
-0.029315
-0.1049
-0.15879
-0.18144
-0.24554
-0.20121
-0.17761
-0.12212
-0.099794
-0.042072
-0.076514
-0.070136
0.14577
0.10271
-0.016559
-0.0031647
0.16235
0.2931
0.37187
0.25834
0.16841
0.06859
0.07146
0.076244
-0.028996
-0.11351
-0.19132
-0.14253
-0.22704
-0.23374
-0.26754
-0.34631
-0.37565
-0.37087
-0.31665
-0.17952
-0.1218
-0.035375
-0.017197
0.097611
0.10909
0.081665
0.18435
0.229
0.10399
0.20572
0.24718
0.18722
0.19392
0.18722
0.069866
-0.025488
-0.027402
-0.062801
-0.10841
-0.17825
-0.19993
-0.12977
-0.014645
0.19137
0.14162
0.088362
-0.0053971
0.025218
0.15214
0.22358
0.20285
0.13811
0.066995
0.2459
0.20955
0.26121
0.17319
0.21784
0.059979
-0.099476
-0.12945
-0.11223
-0.12371
-0.13998
-0.13774
-0.18144
-0.25064
-0.25223
-0.17474
0.069228
-0.0076295
-0.11829
-0.066309
-0.10235
-0.020067
-0.030591
-0.032823
-0.018153
0.089319
0.14672
0.08613
-0.14189
-0.11606
-0.035375
-0.07779
0.087725
0.063487
0.014375
-0.090227
-0.16358
-0.11861
-0.029953
-0.046855
-0.095968
-0.14986
-0.10809
0.09506
0.29725
0.15501
-0.035056
-0.10777
-0.10968
-0.13424
-0.13105
-0.094054
-0.024213
-0.070136
-0.10522
0.16235
0.26982
0.098886
0.17479
0.081028
0.11547
0.16873
0.28162
0.23953
0.20987
0.14832
0.22071
0.20827
0.31415
0.20253
0.0089539
-0.034737
-0.11861
-0.097562
-0.11702
-0.26977
-0.29624
-0.32718
-0.37119
-0.30294
-0.27551
-0.18781
-0.045261
-0.084487
-0.11415
-0.064077
-0.0044404
0.058704
0.084854
-0.002208
-0.0034836
0.074968
0.044034
0.061255
0.085811
0.09187
0.25228
0.18754
0.15852
0.066995
-0.033142
0.013419
0.03638
-0.024213
-0.072368
-0.21779
0.15055
0.32882
0.24463
0.11388
0.17606
0.20636
0.1346
0.099843
0.10016
0.065401
0.01597
-0.03378
0.063806
0.029364
-0.094054
-0.18941
-0.25542
-0.31602
-0.37406
-0.4608
-0.508
-0.52873
-0.53798
-0.51661
-0.48791
-0.44804
-0.35428
-0.29401
-0.25542
-0.14125
-0.10394
-0.18271
-0.098838
-0.10968
-0.056423
-0.00093234
-0.018791
-0.055466
-0.032504
0.00066221
0.041802
0.033829
0.020754
0.056471
0.098249
0.052963
-0.0073105
0.03064
0.074649
0.16745
0.40376
0.47137
0.44395
0.48222
0.4449
0.34955
0.32723
0.23474
0.266
0.24144
0.13333
0.060617
0.21019
0.06285
-0.063439
-0.016878
-0.040158
-0.14508
-0.28157
-0.33451
-0.37916
-0.31889
-0.24235
-0.19579
-0.12052
-0.22513
-0.07779
-0.10777
-0.10426
-0.12945
-0.16836
-0.19674
-0.14572
-0.013689
-0.058974
-0.15337
-0.22481
-0.20822
-0.11191
-0.11383
-0.15784
-0.16134
-0.12467
-0.12052
-0.055466
-0.067585
0.10813
0.2003
0.20987
0.19265
0.26663
0.22836
0.16873
0.12025
0.24176
0.27875
0.30076
0.21816
0.13747
0.036699
-0.041115
-0.082573
-0.089908
-0.1757
-0.24075
-0.17888
-0.11255
-0.13041
-0.14476
-0.12276
-0.14221
-0.12116
-0.091503
0.049455
0.074649
0.082622
0.057747
0.052645
0.089
0.13269
0.10303
-0.026764
-0.098838
-0.094692
-0.012732
0.066677
0.1665
-0.0098618
0.047861
0.10877
0.15948
0.096016
0.086768
0.088362
0.078476
0.032234
0.14832
0.14226
0.099524
0.052326
-0.087357
-0.20982
-0.18335
-0.1741
-0.26403
-0.29688
-0.34504
-0.35843
-0.28317
-0.15975
-0.23724
-0.2095
-0.080979
-0.018153
-0.019748
-0.013689
0.013419
0.01023
-0.0076295
0.04531
0.13875
