0.012462
0.0057648
0.0044891
0.008635
0.008635
0.01023
0.010867
0.015651
0.020754
0.021072
0.024899
0.031278
0.027451
0.021391
0.02458
0.017883
0.016289
0.016608
0.0095917
0.0019378
0.012143
0.014694
0.012143
0.014694
0.017564
0.022348
0.027451
0.029683
0.026813
0.029045
0.026494
0.024899
0.020435
0.018202
0.015013
0.012781
0.0076782
0.0131
0.01884
0.015651
0.021391
0.025537
0.023624
0.030959
0.03925
0.031915
0.03064
0.033191
0.029045
0.024899
0.023305
0.017564
0.016927
0.020754
0.019159
0.022348
0.022029
0.027451
0.032553
0.032553
0.035742
0.043077
0.040207
0.033191
0.038931
0.030959
0.026813
0.028726
0.022667
0.015332
0.023624
0.025537
0.023624
0.027132
0.031596
0.033191
0.038612
0.041483
0.037656
0.039569
0.037975
0.036699
0.03064
0.029045
0.025856
0.022986
0.01884
0.022667
0.028726
0.027132
0.030959
0.034786
0.035104
0.040526
0.049137
0.042439
0.03925
0.043077
0.038294
0.035104
0.033829
0.026175
0.025856
0.030959
0.030002
0.031915
0.030959
0.037656
0.042758
0.043396
0.045947
0.052963
0.049455
0.042758
0.047223
0.040845
0.038294
0.037337
0.031915
0.026494
0.032553
0.037337
0.033829
0.037656
0.040845
0.043715
0.048818
0.052645
0.047542
0.050093
0.047542
0.047223
0.041164
0.037975
0.035104
0.031915
0.027451
0.030002
0.036699
0.033191
0.038612
0.041164
0.040845
0.045629
0.055515
0.046266
0.042758
0.046585
0.040207
0.037337
0.034467
0.028726
0.026175
0.030959
0.031278
0.032234
0.031596
0.035423
0.040207
0.040526
0.043715
0.049774
0.046266
0.040526
0.041164
0.035423
0.032872
0.032872
0.025856
0.017883
0.026175
0.028726
0.026494
0.028088
0.030959
0.03351
0.039888
0.042121
0.037018
0.037337
0.035742
0.035104
0.029045
0.025537
0.022348
0.019797
0.015332
0.017564
0.022348
0.020754
0.023943
0.028088
0.026175
0.029683
0.038931
0.032234
0.02777
0.030002
0.026175
0.022029
0.018521
0.010548
0.0070404
0.0131
0.010867
0.012143
0.011505
0.015651
0.019478
0.020754
0.023305
0.027132
0.023624
0.016927
0.01884
0.011824
0.008316
0.0076782
0.00066221
-0.0069916
-0.00029452
0.0022568
-0.00093234
0.0022568
0.0032135
0.0051269
0.010867
0.0131
0.008635
0.0089539
0.008635
0.0035324
-0.0018891
-0.0047593
-0.0089051
-0.011775
-0.015921
-0.01337
-0.0095429
-0.012732
-0.0076295
-0.0050782
-0.0069916
-0.0025269
0.0079971
-0.0025269
-0.0047593
-0.002208
-0.0089051
-0.013051
-0.014964
-0.022618
-0.026764
-0.020705
-0.022937
-0.021343
-0.022299
-0.017516
-0.012732
-0.012732
-0.011456
-0.0066727
-0.0089051
-0.014964
-0.014008
-0.020386
-0.024851
-0.024851
-0.032186
-0.038564
-0.031867
-0.028359
-0.031867
-0.028996
-0.026445
-0.026126
-0.020067
-0.017197
-0.021024
-0.021024
-0.021343
-0.026126
-0.03091
-0.033142
-0.038883
-0.040158
-0.043666
-0.041434
-0.03665
-0.039202
-0.03378
-0.031229
-0.033142
-0.026126
-0.018472
-0.026126
-0.030591
-0.026126
-0.031229
-0.035056
-0.037288
-0.043985
-0.046855
-0.039839
-0.041434
-0.042072
-0.041115
-0.034737
-0.028678
-0.029953
-0.026764
-0.02198
-0.023894
-0.028678
-0.027721
-0.032186
-0.035056
-0.036012
-0.041753
-0.047174
-0.039202
-0.035375
-0.036969
-0.033461
-0.029953
-0.028678
-0.02198
-0.015921
-0.022299
-0.020067
-0.020067
-0.021343
-0.026445
-0.02804
-0.031229
-0.031867
-0.03378
-0.031229
-0.023575
-0.026764
-0.01911
-0.014327
-0.015283
-0.0089051
0.0019378
-0.0041214
-0.0076295
-0.0031647
-0.0085862
-0.011456
-0.011137
-0.016878
-0.019748
-0.011775
-0.012094
-0.0105
-0.009224
-0.0034836
0.0025757
0.0041702
0.0064026
0.010867
0.010548
0.0060837
0.0073593
0.0016189
-0.0012513
-0.00061343
-0.005716
-0.011456
-0.0041214
0.0003433
-0.002208
0.0016189
0.0054459
0.0067215
0.013738
0.019478
0.012462
0.015013
0.015332
0.011824
0.0076782
0.004808
0.00066221
-0.00061343
-0.00061343
0.00066221
0.0060837
0.0041702
0.01023
0.015332
0.012781
0.020435
0.029364
0.02171
0.017883
0.022029
0.017883
0.014694
0.013419
0.0051269
0.0038513
0.011824
0.011505
0.011824
0.012781
0.017246
0.022348
0.024899
0.028088
0.029364
0.030321
0.025856
0.026175
0.020435
0.017564
0.017246
0.011505
0.0041702
0.011505
0.01597
0.011186
0.015013
0.017883
0.017564
0.022986
0.027451
0.020116
0.01884
0.018521
0.014375
0.0070404
0.0032135
-0.0034836
-0.0069916
-0.010819
-0.0098618
-0.0066727
-0.010819
-0.0073105
-0.005716
-0.0098618
-0.0079484
2.4388e-05
-0.0089051
-0.016559
-0.015921
-0.024213
-0.03091
-0.034099
-0.04271
-0.050682
-0.04558
-0.048769
-0.053552
-0.055147
-0.051958
-0.05132
-0.051639
-0.051639
-0.051001
-0.058017
-0.063758
-0.065033
-0.074919
-0.079703
-0.082254
-0.090227
-0.098838
-0.093735
-0.091822
-0.097243
-0.096605
-0.094373
-0.095968
-0.092141
-0.088633
-0.097881
-0.097881
-0.099157
-0.1033
-0.11128
-0.11415
-0.12084
-0.12339
-0.12499
-0.12467
-0.12116
-0.12467
-0.12084
-0.11606
-0.11989
-0.11478
-0.10681
-0.11446
-0.11957
-0.11478
-0.12116
-0.12658
-0.12563
-0.13424
-0.13679
-0.12945
-0.12913
-0.13009
-0.12913
-0.12499
-0.11989
-0.11797
-0.1167
-0.11351
-0.11446
-0.11925
-0.11702
-0.12307
-0.12595
-0.12626
-0.13073
-0.13615
-0.12977
-0.12403
-0.12722
-0.1218
-0.11957
-0.11765
-0.11064
-0.10458
-0.11159
-0.10904
-0.10745
-0.10936
-0.11351
-0.11446
-0.11989
-0.11989
-0.11765
-0.1151
-0.10968
-0.11096
-0.10458
-0.098838
-0.099476
-0.09246
-0.081935
-0.085443
-0.089589
-0.086081
-0.087995
-0.090227
-0.088952
-0.093735
-0.096605
-0.087357
-0.084806
-0.084487
-0.081935
-0.075876
-0.06886
-0.064395
-0.059293
-0.057698
-0.055785
-0.058336
-0.056742
-0.061206
-0.060569
-0.06025
-0.06312
-0.06886
-0.059612
-0.053552
-0.055147
-0.049088
-0.043985
-0.041753
-0.034099
-0.026764
-0.031548
-0.030272
-0.025488
-0.028678
-0.031229
-0.030591
-0.03665
-0.035694
-0.031229
-0.030272
-0.022937
-0.023256
-0.017197
-0.011456
-0.010181
-0.0031647
0.0073593
0.0013
-0.0031647
0.0035324
-0.0012513
-0.0034836
-0.002208
-0.0073105
-0.010181
-0.00029452
0.0016189
0.0013
0.0028946
0.010548
0.015651
0.021072
0.02458
0.02458
0.026175
0.024262
0.026175
0.020435
0.020435
0.019159
0.017246
0.010867
0.018521
0.025218
0.023624
0.028088
0.032553
0.034148
0.042439
0.049137
0.043077
0.044353
0.047861
0.046904
0.042121
0.040207
0.03638
0.035423
0.039569
0.040207
0.045629
0.044353
0.051369
0.058066
0.057747
0.063806
0.074649
0.068909
0.064763
0.069547
0.066677
0.06285
0.063806
0.058066
0.054239
0.064125
0.064444
0.065082
0.066995
0.072098
0.07752
0.082941
0.084536
0.08613
0.086449
0.084854
0.08613
0.081028
0.079114
0.079114
0.074968
0.068909
0.076882
0.082622
0.080709
0.085811
0.089957
0.090595
0.097292
0.10558
0.098886
0.099843
0.10271
0.10016
0.096016
0.094103
0.088362
0.088362
0.092189
0.092189
0.096973
0.094741
0.10144
0.10686
0.1059
0.11037
0.12121
0.11483
0.10877
0.11292
0.11005
0.10526
0.1059
0.099524
0.094422
0.10367
0.10303
0.10208
0.10558
0.10877
0.11164
0.11611
0.11834
0.11834
0.1177
0.11483
0.11419
0.10813
0.10558
0.10399
0.10016
0.094741
0.099843
0.10399
0.10176
0.10654
0.11005
0.10877
0.11547
0.12185
0.11547
0.1126
0.11706
0.11228
0.10813
0.10718
0.1008
0.099205
0.10239
0.10144
0.10495
0.10367
0.10813
0.11164
0.11132
0.11515
0.12249
0.11675
0.11132
0.11356
0.10813
0.10367
0.10431
0.096654
0.089
0.098886
0.099524
0.096654
0.098886
0.10208
0.10558
0.10973
0.11069
0.10877
0.10877
0.1059
0.10526
0.098568
0.096335
0.094422
0.088681
0.082303
0.087406
0.091552
0.090914
0.09506
0.096335
0.094103
0.10048
0.1075
0.098886
0.098249
0.099843
0.093146
0.089
0.08613
0.078795
0.076244
0.079433
0.07752
0.078157
0.076563
0.081346
0.084536
0.08326
0.087087
0.093465
0.086768
0.08039
0.081984
0.074968
0.071141
0.069866
0.062212
0.055515
0.061574
0.06285
0.059661
0.059661
0.063169
0.066677
0.068271
0.069228
0.066358
0.066358
0.061574
0.060298
0.052645
0.04818
0.044353
0.038612
0.031915
0.03638
0.040207
0.035423
0.038612
0.040845
0.037337
0.043715
0.050412
0.039569
0.038294
0.038294
0.032553
0.026813
0.024262
0.015651
0.012143
0.015332
0.012781
0.013738
0.012462
0.015332
0.019478
0.017564
0.020116
0.027451
0.01884
0.012462
0.015651
0.0076782
0.0022568
0.0013
-0.0060349
-0.013051
-0.0060349
-0.0063538
-0.010819
-0.0082673
-0.0047593
-0.0031647
0.0013
0.0016189
-0.0012513
-0.00093234
-0.0060349
-0.0063538
-0.012732
-0.01624
-0.019748
-0.023575
-0.030591
-0.025488
-0.020386
-0.025488
-0.020386
-0.017516
-0.018153
-0.012732
-0.0041214
-0.013051
-0.014008
-0.011456
-0.01624
-0.020386
-0.021661
-0.02804
-0.029315
-0.026126
-0.026445
-0.022618
-0.023894
-0.019748
-0.010819
-0.011137
-0.009224
-0.00061343
-0.005716
-0.010181
-0.0053971
-0.010181
-0.01624
-0.013689
-0.018791
-0.025807
-0.014964
-0.013051
-0.015283
-0.011775
-0.0079484
-0.0025269
0.0019378
0.0057648
0.0028946
0.0054459
0.0038513
0.0032135
-0.0012513
-0.0031647
-0.0038025
-0.0069916
-0.011775
-0.0069916
0.00066221
-0.0015702
0.0035324
0.0064026
0.0073593
0.012143
0.022667
0.014375
0.013419
0.017564
0.0131
0.0076782
0.0067215
0.0019378
0.0003433
0.0051269
0.0044891
0.0073593
0.0076782
0.013419
0.019478
0.020754
0.02458
0.033829
0.029683
0.025856
0.028726
0.025218
0.022348
0.024899
0.019159
0.013419
0.023624
0.024899
0.024899
0.02777
0.031278
0.03638
0.041164
0.044672
0.043077
0.044672
0.042439
0.041164
0.035423
0.03351
0.033191
0.028726
0.023943
0.028407
0.03351
0.031915
0.036699
0.039888
0.037337
0.043715
0.052963
0.04531
0.043077
0.046585
0.040845
0.037656
0.035742
0.029045
0.026175
0.028726
0.02777
0.031278
0.029045
0.033829
0.037656
0.03638
0.03925
0.044991
0.039569
0.03351
0.034786
0.02777
0.024262
0.022986
0.01597
0.0073593
0.01597
0.01597
0.012781
0.0131
0.016608
0.018202
0.02171
0.023943
0.019478
0.020435
0.016927
0.013738
0.0067215
0.0032135
-0.00061343
-0.0047593
-0.011137
-0.0063538
-0.0034836
-0.0050782
-0.0028458
2.4388e-05
-0.0018891
0.0038513
0.010548
0.0019378
-0.00029452
0.0019378
-0.0034836
-0.0095429
-0.0105
-0.017197
-0.019748
-0.015283
-0.017516
-0.014008
-0.015921
-0.011137
-0.0066727
-0.0076295
-0.0041214
0.0025757
-0.0015702
-0.0076295
-0.0060349
-0.011137
-0.015602
-0.015921
-0.020067
-0.026445
-0.021661
-0.01911
-0.021024
-0.018791
-0.014964
-0.012413
-0.0063538
-0.0034836
-0.0085862
-0.0069916
-0.0085862
-0.0098618
-0.01624
-0.017516
-0.020705
-0.023894
-0.028996
-0.024851
-0.019748
-0.020386
-0.015602
-0.012413
-0.01337
-0.0069916
0.0016189
-0.0050782
-0.0073105
-0.0031647
-0.009224
-0.012094
-0.013051
-0.018791
-0.02198
-0.015283
-0.015602
-0.013051
-0.014645
-0.0076295
-0.0028458
-0.0018891
0.0016189
0.0089539
0.004808
-0.00061343
0.0032135
-0.0025269
-0.0041214
-0.0034836
-0.010181
-0.015602
-0.0069916
-0.0041214
-0.0069916
-0.0034836
0.00066221
0.0025757
0.0079971
0.0095917
0.0044891
0.0131
0.0073593
0.0025757
-0.0053971
-0.0034836
-0.0063538
-0.011137
-0.016878
-0.009224
-0.0015702
-0.0031647
0.0022568
0.004808
0.0028946
0.011824
0.023305
0.011505
0.01023
0.015332
0.01023
0.0041702
0.0025757
0.0016189
0.0019378
0.0054459
0.0028946
2.4388e-05
0.0019378
0.0064026
0.012462
0.017246
0.026494
0.032234
0.021072
0.010548
0.023624
0.017883
0.0054459
2.4388e-05
0.0041702
0.0016189
0.010867
0.0041702
-0.0031647
-0.0069916
0.010548
0.022986
0.01597
0.022667
0.021072
0.010548
0.012462
0.022986
0.015332
0.0079971
0.0044891
0.0028946
-0.0025269
-0.00029452
0.0079971
0.0067215
0.008635
0.008635
0.0079971
0.018202
0.02777
0.016289
0.0060837
0.021391
0.017564
0.008316
2.4388e-05
-0.0031647
-0.0038025
0.0070404
-0.0012513
2.4388e-05
0.0038513
0.011186
0.020435
0.0079971
0.012462
0.020754
0.02458
0.018202
0.016289
0.015332
0.01884
0.019797
0.020754
0.012462
0.01884
0.020116
0.020116
0.023624
0.015332
0.026175
0.035104
0.031596
0.035423
0.040845
0.027451
0.028726
0.017246
2.4388e-05
0.0060837
0.018202
0.012143
0.012143
0.024899
0.021391
0.018202
0.027132
0.020435
0.023305
0.037975
0.037975
0.041164
0.039569
0.035104
0.031278
0.035423
0.031278
0.018521
0.019159
0.028407
0.038294
0.051688
0.060298
0.070822
0.042121
0.058066
0.070503
0.069228
0.075606
0.075606
0.069547
0.067952
0.063487
0.046585
0.033829
0.034467
0.041483
0.053282
0.031596
0.012462
0.027132
0.031278
0.0131
-0.015602
-0.0076295
-0.013689
-0.027721
-0.037288
-0.036012
-0.05132
-0.063758
-0.06599
-0.056104
-0.064077
-0.069817
-0.06312
-0.048131
-0.056104
-0.034099
-0.026764
-0.025488
-0.038245
-0.024851
-0.01911
-0.024851
-0.023894
-0.024532
-0.020386
-0.0079484
-0.0073105
-0.011137
-0.0060349
0.0003433
0.011505
0.016608
0.020116
0.028407
0.026175
0.025856
0.032872
0.032872
0.036699
0.040845
0.040526
0.035742
0.04531
0.057109
0.059979
0.068909
0.076882
0.084854
0.097611
0.1075
0.11069
0.12057
0.12886
0.13556
0.13971
0.14768
0.1531
0.16171
0.16873
0.1818
0.19839
0.20955
0.22422
0.23889
0.24814
0.26408
0.28385
0.28928
0.29661
0.31096
0.31702
0.32308
0.33042
0.33584
0.33807
0.34827
0.35338
0.36071
0.36326
0.36996
0.3757
0.37602
0.3757
0.3824
0.38208
0.37538
0.37442
0.36709
0.36103
0.35944
0.35051
0.33871
0.33775
0.33329
0.31925
0.31893
0.3167
0.31064
0.30713
0.29916
0.29215
0.28641
0.27811
0.266
0.25579
0.24846
0.23761
0.23123
0.21338
0.20668
0.20317
0.19456
0.19137
0.1834
0.17224
0.17
0.17351
0.16394
0.14896
0.14098
0.1346
0.12663
0.11898
0.10909
0.098886
0.090276
0.081028
0.075925
0.070503
0.066358
0.059023
0.051688
0.043715
0.047542
0.038294
0.028088
0.019797
0.0054459
-0.00093234
-0.0063538
-0.014964
-0.032186
-0.039839
-0.038564
-0.043666
-0.049088
-0.053234
-0.053871
-0.061525
-0.078109
-0.084168
-0.080979
-0.087676
-0.093735
-0.10904
-0.11255
-0.11446
-0.10936
-0.13583
-0.14508
-0.13998
-0.1403
-0.13711
-0.14125
-0.1556
-0.1521
-0.1454
-0.15847
-0.16326
-0.16485
-0.17474
-0.17314
-0.17378
-0.18112
-0.18494
-0.18749
-0.18654
-0.18877
-0.18622
-0.18335
-0.18558
-0.18271
-0.17665
-0.18112
-0.1926
-0.18175
-0.18239
-0.19132
-0.19228
-0.19292
-0.1977
-0.21237
-0.20472
-0.20025
-0.1977
-0.19451
-0.19515
-0.19706
-0.19228
-0.19228
-0.191
-0.18941
-0.18845
-0.18813
-0.18909
-0.18686
-0.18207
-0.17442
-0.18781
-0.17442
-0.16421
-0.17282
-0.15815
-0.15273
-0.14572
-0.14572
-0.14093
-0.13806
-0.13934
-0.14349
-0.15146
-0.15784
-0.15592
-0.15752
-0.16964
-0.17155
-0.17346
-0.16964
-0.17442
-0.17346
-0.17059
-0.17187
-0.16549
-0.16198
-0.15624
-0.1454
-0.14349
-0.1438
-0.12276
-0.11128
-0.11574
-0.12531
-0.12148
-0.11064
-0.094692
-0.088633
-0.081617
-0.087357
-0.091503
-0.093416
-0.08927
-0.11446
-0.132
-0.12499
-0.13743
-0.14061
-0.14349
-0.14795
-0.16198
-0.16166
-0.16517
-0.16517
-0.15784
-0.16039
-0.15752
-0.14125
-0.1285
-0.13456
-0.13551
-0.13073
-0.14221
-0.13551
-0.12945
-0.12563
-0.12754
-0.1269
-0.12403
-0.11032
-0.1049
-0.10171
-0.099794
-0.098838
-0.094054
-0.087676
-0.086081
-0.088314
-0.085125
-0.099476
-0.09533
-0.0864
-0.096605
-0.10585
-0.093735
-0.087676
-0.073963
-0.073325
-0.066628
-0.051639
-0.063439
-0.067903
-0.052596
-0.055785
-0.045899
-0.03952
-0.038245
-0.04558
-0.049088
-0.045899
-0.039839
-0.029953
-0.022937
-0.0044404
0.0131
0.017883
0.010548
0.025218
0.043396
0.043396
0.043077
0.044353
0.025856
0.032872
0.029364
0.016289
0.0038513
0.0073593
0.0054459
0.0016189
-0.021024
-0.036331
-0.023256
-0.021024
-0.026445
-0.028678
-0.015921
-0.022937
-0.02804
-0.036969
-0.037926
-0.047493
-0.051639
-0.036969
-0.017197
-0.020067
-0.031229
-0.028678
-0.0098618
-0.0085862
-0.0060349
0.0073593
0.010548
0.0131
0.020435
0.020435
0.00098112
0.0022568
0.0095917
0.0038513
2.4388e-05
-0.0034836
0.0016189
0.0035324
-0.0050782
-0.0038025
-0.0028458
-0.0028458
0.004808
0.0067215
0.014056
0.0095917
-0.0012513
-0.012413
-0.00061343
0.010867
0.0035324
0.0019378
-0.010181
2.4388e-05
0.01023
0.01023
0.016608
0.016608
0.018521
0.028088
0.022667
0.015013
0.014056
0.0092728
0.011505
0.008635
0.0019378
-0.010181
-0.0050782
0.0028946
0.0041702
0.0013
0.0025757
0.0041702
0.0089539
0.0054459
0.0025757
-0.00093234
0.0019378
-0.002208
0.0013
-0.0012513
-0.009224
-0.011137
-0.022618
-0.024213
-0.01911
-0.022937
-0.014645
-0.005716
-0.015283
-0.023894
-0.021343
-0.016878
-0.019748
-0.017835
-0.021343
-0.03378
-0.024532
-0.037288
-0.036969
-0.032823
-0.034418
-0.026445
-0.017516
-0.016878
-0.017516
-0.030591
-0.035375
-0.017516
-0.012094
-0.014327
-0.019748
-0.0105
-0.00093234
0.0089539
0.0095917
-0.0031647
-0.0012513
0.0099106
0.010548
0.012781
0.0019378
0.0019378
0.017246
0.029364
0.031278
0.008316
-0.026764
-0.04845
-0.06312
-0.065033
-0.054509
-0.057698
-0.083849
-0.094373
-0.085762
-0.093735
-0.094692
-0.10011
-0.09533
-0.091822
-0.082892
-0.098838
-0.098838
-0.094373
-0.10043
-0.10266
-0.099476
-0.10203
-0.10107
-0.10362
-0.10203
-0.091184
-0.087995
-0.089908
-0.075876
-0.091503
-0.075238
-0.049407
-0.049407
-0.074282
-0.075876
-0.066309
-0.061844
-0.060887
-0.076195
-0.088314
-0.068222
-0.050044
-0.026445
-0.016559
-0.024851
-0.0047593
-0.0066727
0.0016189
-0.0044404
0.0070404
0.027132
0.023305
0.015013
0.0070404
0.0095917
-0.002208
-0.0073105
-0.012413
-0.012732
-0.018791
-0.024213
-0.03091
-0.029315
-0.017516
0.008635
0.019159
0.011824
0.020754
0.04531
0.096335
0.17383
0.15151
0.17511
0.25101
0.26121
0.23793
0.21975
0.24144
0.29661
0.30108
0.28385
0.266
0.21529
0.12855
0.1311
0.085492
0.016927
-0.042072
-0.055466
-0.077152
-0.091503
-0.12052
-0.18526
-0.20472
-0.22768
-0.22098
-0.18749
-0.21524
-0.23884
-0.22257
-0.2331
-0.24171
-0.23055
-0.23437
-0.20376
-0.1977
-0.24841
-0.25191
-0.2315
-0.23533
-0.21365
-0.1859
-0.19324
-0.20918
-0.19324
-0.20057
-0.21556
-0.21683
-0.20153
-0.19898
-0.19228
-0.19642
-0.20057
-0.20408
-0.21365
-0.20216
-0.19451
-0.11989
-0.086081
-0.09533
-0.070455
-0.096286
-0.13551
-0.083211
-0.059612
-0.096286
-0.05419
-0.016878
-0.042391
-0.050044
-0.077152
-0.13615
-0.12339
-0.11638
-0.10394
-0.096605
-0.10203
-0.11861
-0.14508
-0.12595
-0.075238
-0.061844
-0.063439
-0.079065
-0.056742
-0.058017
-0.038883
0.02458
0.058066
0.058704
0.067952
0.043077
0.029683
0.096654
0.1665
0.15087
0.10654
0.14449
0.28417
0.20221
0.17989
0.2121
0.19009
0.16618
0.1531
0.14609
0.12249
0.071779
0.11515
0.11993
0.033191
0.018202
-0.025807
-0.056104
-0.11574
-0.16071
-0.17506
-0.17888
-0.20121
-0.20663
-0.18781
-0.132
-0.14572
-0.19164
-0.19993
-0.18016
-0.15465
-0.13009
-0.13137
-0.12052
-0.060569
-0.028359
-0.054828
-0.057698
-0.04845
0.037975
0.054239
0.02171
0.051369
0.030959
0.032553
0.052645
0.052645
0.049137
0.029683
0.040526
0.04818
0.026494
0.028407
0.038612
0.025856
0.024262
-0.0069916
-0.0079484
-0.014008
0.0038513
0.020116
0.0057648
-0.005716
-0.012413
-0.037926
-0.050044
-0.056423
-0.052915
-0.050682
-0.06886
-0.065033
-0.078427
0.0054459
0.063806
-0.010819
-0.033142
0.0057648
0.05679
0.062212
0.11356
0.19392
0.21816
0.23474
0.27365
0.25515
0.22517
0.16458
0.16139
0.23347
0.23187
0.23251
0.21146
0.12663
0.10335
0.07146
0.075606
0.011824
-0.045899
-0.058336
-0.067903
-0.11287
-0.14827
-0.1926
-0.18144
-0.17793
-0.20057
-0.2162
-0.20121
-0.18431
-0.18718
-0.18686
-0.20886
-0.18494
-0.15401
-0.14572
-0.1454
-0.14061
-0.12563
-0.084806
-0.095968
-0.10968
-0.10522
-0.11064
-0.090546
-0.066947
-0.035375
-0.035375
-0.10011
-0.09246
-0.070136
-0.048769
0.0028946
0.050412
0.0060837
-0.023894
-0.019429
-0.023256
-0.0012513
0.0089539
0.0035324
0.025856
0.035423
0.062212
0.1008
0.1008
0.081984
0.087087
0.11738
0.11324
0.13365
0.14672
0.093784
0.12855
0.16076
0.12855
0.11738
0.13142
0.08613
0.05105
0.020116
0.065082
0.10654
0.063487
0.048818
0.03064
0.012143
-0.011137
-0.011137
0.022986
0.014694
-0.0060349
-0.027721
-0.014327
0.01023
0.022029
0.0070404
0.0099106
0.024899
0.027132
0.032553
0.046266
0.061574
0.060936
0.059661
0.069228
0.06285
0.069228
0.073374
0.079114
0.071779
0.064763
0.060298
0.064444
0.092189
0.11738
0.13173
0.13747
0.1193
0.10271
0.082941
0.10208
0.11515
0.15788
0.21912
0.2357
0.21433
0.21912
0.25228
0.28449
0.29693
0.28162
0.34158
0.36103
0.37219
0.3824
0.39005
0.38112
0.3639
0.33201
0.32053
0.31447
0.29534
0.25515
0.2105
0.17
0.15948
0.14768
0.12312
0.081346
0.076563
0.061893
0.050412
0.03638
0.038931
0.041802
0.012781
0.0032135
0.023305
0.031596
0.045629
0.052963
0.064125
0.085492
0.10718
0.12727
0.14704
0.15438
0.17128
0.20476
0.2188
0.2341
0.25037
0.26791
0.28194
0.32085
0.34317
0.36932
0.37602
0.3993
0.43757
0.47935
0.51124
0.52846
0.55557
0.61361
0.63147
0.58235
0.54408
0.5342
0.54536
0.5629
0.54472
0.50008
0.43597
0.41333
0.3808
0.34923
0.2813
0.29183
0.2711
0.24782
0.2577
0.22996
0.20923
0.20572
0.15246
0.14417
0.20987
0.22645
0.21561
0.21943
0.19328
0.19775
0.21784
0.23442
0.24782
0.26568
0.22932
0.20923
0.20732
0.2121
0.21338
0.19137
0.21401
0.23028
0.20445
0.14768
0.10782
0.082941
0.0060837
-0.012732
0.00098112
2.4388e-05
-0.043347
-0.11223
-0.12212
-0.1757
-0.20408
-0.21747
-0.23884
-0.27105
-0.28827
-0.29273
-0.29975
-0.29752
-0.2972
-0.3023
-0.30039
-0.30071
-0.29497
-0.28189
-0.26882
-0.27998
-0.26977
-0.23182
-0.23724
-0.24011
-0.23661
-0.23565
-0.24139
-0.24203
-0.24936
-0.2398
-0.17346
-0.16645
-0.19611
-0.21492
-0.22959
-0.24139
-0.23406
-0.24458
-0.2567
-0.28125
-0.29656
-0.2972
-0.30071
-0.3157
-0.33611
-0.3546
-0.35588
-0.368
-0.35939
-0.35524
-0.35907
-0.35843
-0.35173
-0.3495
-0.35428
-0.35237
-0.3495
-0.3511
-0.35237
-0.35014
-0.34663
-0.3444
-0.3377
-0.33643
-0.32941
-0.32526
-0.33164
-0.3259
-0.32016
-0.32239
-0.31825
-0.31059
-0.31633
-0.31857
-0.30326
-0.31028
-0.3074
-0.30071
-0.30326
-0.29018
-0.29433
-0.29752
-0.28923
-0.27105
-0.27169
-0.26371
-0.26818
-0.27264
-0.27264
-0.27838
-0.2803
-0.27679
-0.27807
-0.2787
-0.27009
-0.27169
-0.27041
-0.25957
-0.25351
-0.25702
-0.25287
-0.24235
-0.23469
-0.23437
-0.23661
-0.23119
-0.23469
-0.2315
-0.22608
-0.22353
-0.22098
-0.21365
-0.21333
-0.21237
-0.19611
-0.18973
-0.19164
-0.18462
-0.17123
-0.17665
-0.17729
-0.16868
-0.17059
-0.17442
-0.17155
-0.17506
-0.17474
-0.16358
-0.15975
-0.15592
-0.15592
-0.14986
-0.14572
-0.14604
-0.13105
-0.11638
-0.12499
-0.13169
-0.12403
-0.12658
-0.12626
-0.12212
-0.12626
-0.12754
-0.11542
-0.11032
-0.11159
-0.099476
-0.086081
-0.082573
-0.075557
-0.066309
-0.073325
-0.074282
-0.071411
-0.069179
-0.068541
-0.080341
-0.08353
-0.081298
-0.084168
-0.087676
-0.079065
-0.088314
-0.090227
-0.076833
-0.080341
-0.069817
-0.064077
-0.070455
-0.069817
-0.064714
-0.069498
-0.067266
-0.066628
-0.063758
-0.060569
-0.048131
-0.044623
-0.0053971
0.029045
0.051369
0.05679
0.064763
0.066995
0.072098
0.072736
0.072417
0.097611
0.10016
0.097611
0.074012
0.034148
-0.012413
-0.020386
-0.015921
-0.031548
-0.056423
-0.087995
-0.07779
-0.078427
-0.10235
-0.11542
-0.079703
-0.073644
-0.081617
-0.061844
-0.052915
-0.076833
-0.068222
-0.061206
-0.046536
-0.034099
-0.055147
-0.052277
-0.050044
-0.061525
-0.073963
-0.064714
-0.10011
-0.1202
-0.10936
-0.11064
-0.11383
-0.11797
-0.12499
-0.13296
-0.12754
-0.10745
-0.095011
-0.091503
-0.075238
-0.066628
-0.044304
-0.029953
-0.040158
-0.038245
-0.038564
-0.02517
-0.051639
-0.028678
-0.026126
-0.036012
-0.043347
-0.040158
-0.039202
-0.041753
-0.044623
-0.049088
-0.046218
-0.040477
-0.043347
-0.052915
-0.056423
-0.061525
-0.067903
-0.075238
-0.081617
-0.096286
-0.10936
-0.11542
-0.11064
-0.10872
-0.12435
-0.10522
-0.099794
-0.11351
-0.11415
-0.11032
-0.11478
-0.11223
-0.10426
-0.10713
-0.11255
-0.11191
-0.11702
-0.12658
-0.12148
-0.1151
-0.10107
-0.099794
-0.099476
-0.10298
-0.10139
-0.10139
-0.09246
-0.094692
-0.094054
-0.088633
-0.085443
-0.09246
-0.093097
-0.09246
-0.092141
-0.088314
-0.080341
-0.075876
-0.069498
-0.061525
-0.057061
-0.049407
-0.043028
-0.04558
-0.043347
-0.03091
-0.027402
-0.032823
-0.029953
-0.020067
-0.002208
-0.0041214
0.00098112
0.011186
0.02171
0.038612
0.066039
0.070822
0.075925
0.088362
0.088362
0.07752
0.088044
0.096335
0.09187
0.10718
0.087406
0.073374
0.066358
0.066039
0.060617
0.05392
0.051369
0.057109
0.052326
0.026494
0.028407
0.022029
0.018521
0.014375
-0.0038025
-0.015602
-0.012094
-0.021661
-0.030591
-0.025488
-0.0044404
-0.009224
-0.010819
-0.012094
-0.0012513
0.0089539
0.0089539
-0.00029452
0.008316
0.013419
0.03638
0.029045
0.023305
0.0092728
0.0070404
0.010548
0.0035324
0.0057648
0.0013
0.012462
0.037018
0.026813
0.014694
0.008635
0.008635
0.00066221
-0.0015702
-0.0018891
-0.00029452
2.4388e-05
-0.0044404
-0.00093234
0.0057648
0.0025757
0.0051269
0.0089539
0.017564
0.028407
0.032872
0.041802
0.045629
0.05392
0.040207
0.045629
0.044034
0.048818
0.047223
0.045629
0.037018
0.045947
0.050412
0.044034
0.044353
0.03638
0.044353
0.050093
0.052645
0.059661
0.088681
0.093784
0.08613
0.089319
0.081028
0.081665
0.089
0.068271
0.059979
0.08326
0.093784
0.10431
0.11037
0.087725
0.050412
0.026494
0.023305
0.01023
0.017883
0.0032135
0.008635
-0.0041214
-0.018472
-0.028996
-0.017835
-0.0089051
-0.0079484
0.0013
0.0044891
0.0073593
0.0095917
0.015651
0.026813
0.028088
0.021391
0.026175
0.0095917
0.008316
0.013738
0.0054459
-0.0050782
0.0041702
0.0092728
0.0016189
0.004808
0.0089539
0.0099106
0.0073593
0.014375
0.0073593
0.0067215
0.0028946
0.0089539
0.023305
0.066677
0.061893
0.059661
0.056471
0.052645
0.06285
0.064444
0.067314
0.092189
0.087725
0.10813
0.12599
0.09506
0.069228
0.046585
0.0131
0.004808
0.0131
0.0032135
0.0060837
-0.0031647
-0.017516
-0.029315
-0.038883
-0.00029452
0.081665
0.093784
0.10973
0.11866
0.11611
0.10686
0.09793
0.079752
0.081984
0.096654
0.10909
0.088044
0.051369
-0.0041214
-0.041434
-0.037607
-0.050682
-0.084487
-0.10681
-0.099157
-0.12882
-0.13232
-0.13105
-0.09533
-0.05132
-0.047174
-0.0038025
-0.0018891
-0.005716
0.0016189
0.030002
0.03064
0.049455
0.073055
0.090276
0.08613
0.05105
0.040845
0.034467
0.01884
0.0076782
0.0044891
0.018202
-0.023575
-0.040477
-0.051958
-0.04271
-0.035056
-0.037926
-0.047493
-0.063758
-0.046855
-0.03952
-0.034418
-0.036969
-0.053234
-0.065352
-0.066628
-0.070136
-0.06599
-0.064077
-0.058974
-0.050044
-0.034099
-0.041434
-0.029315
-0.015921
-0.0085862
-0.0018891
0.0041702
-0.00061343
0.0067215
0.0079971
0.0067215
0.0067215
0.031278
0.031596
0.030959
0.030002
0.067952
0.095378
0.092189
0.085173
0.096335
0.13811
0.12567
0.13556
0.1126
0.10782
0.10877
0.099205
0.072417
0.051369
0.028726
0.010867
0.0089539
-0.020705
-0.0038025
-0.037607
-0.047493
-0.031229
-0.040477
-0.0105
0.058066
0.083579
0.052645
0.027451
0.043715
0.067952
0.094103
0.093465
0.1075
0.10718
0.079752
0.061255
0.059661
0.043077
0.026175
0.02171
-0.0098618
-0.014008
-0.027402
-0.058974
-0.070455
-0.08066
-0.085762
-0.091503
-0.083849
-0.078746
-0.080022
-0.069179
-0.072049
-0.063439
-0.043028
-0.038245
-0.035694
0.0079971
0.022986
0.025856
0.033829
0.050731
0.028726
0.031915
0.038931
0.03351
0.060617
0.064125
0.063487
0.063169
0.052326
0.041164
0.023305
0.030002
0.0089539
0.0076782
0.02171
0.016289
0.0025757
-0.0012513
-0.0044404
0.0064026
0.0067215
0.06572
0.047542
0.040526
0.037018
0.052007
0.050412
0.055515
0.082941
0.050093
0.049774
0.055196
0.019797
-0.014964
-0.055785
-0.038564
-0.023575
-0.03665
-0.053234
-0.053552
-0.059293
-0.069817
-0.053234
-0.052915
-0.037288
-0.022618
-0.02517
-0.027721
-0.022299
-0.011775
-0.00061343
0.022986
0.00098112
0.02458
0.050731
0.077201
0.075925
0.063487
0.10431
0.10495
0.11069
0.1531
0.17798
0.19137
0.20285
0.17224
0.092508
0.078157
0.068271
0.028726
0.026494
0.058385
0.037975
0.02458
0.0035324
-0.062801
-0.065671
-0.0066727
0.065082
0.03638
0.040207
0.041802
0.025537
0.0070404
-0.020067
-0.014964
0.072098
0.1059
0.13205
0.14321
0.11132
0.0073593
0.013419
0.025218
-0.014645
-0.01911
-0.034418
-0.0098618
0.011186
-0.018153
-0.071411
-0.12307
-0.13328
-0.15241
-0.15241
-0.1454
-0.15018
-0.14667
-0.14572
-0.14508
-0.14572
-0.14923
-0.12786
-0.11574
-0.11765
-0.10904
-0.10745
-0.10394
-0.099476
-0.093735
-0.096924
-0.073006
-0.063758
-0.06599
-0.052277
-0.039839
-0.039202
-0.014645
0.0044891
0.069228
0.11802
0.14003
0.14736
0.15119
0.1177
0.12663
0.14321
0.16586
0.18978
0.18691
0.18467
0.16076
0.12153
0.16522
0.1346
0.10686
0.094741
0.074649
0.15183
0.16076
0.097292
0.1059
0.14959
0.25707
0.2306
0.22422
0.2223
0.19424
0.19105
0.11005
0.050412
0.066995
0.14034
0.073055
-0.018153
-0.1403
-0.16262
-0.17984
-0.20025
-0.2618
-0.26595
-0.26945
-0.096286
-0.017516
-0.04845
-0.073644
-0.099157
-0.132
-0.12818
-0.073644
-0.013051
0.057109
0.090276
0.060936
-0.053871
-0.10171
-0.12084
-0.13232
-0.11478
-0.11319
-0.12116
-0.14476
-0.14476
-0.11574
-0.09246
-0.078746
-0.063758
-0.050682
-0.03091
-0.017197
-0.02517
-0.012732
-0.013051
0.031278
0.078795
0.064125
0.058385
0.058385
0.098249
0.081984
0.064763
0.10941
0.16331
0.25037
0.15884
0.14832
0.10112
0.077201
0.044353
0.02171
0.038931
0.10558
0.17479
0.16713
0.23379
0.29821
0.31415
0.18308
0.14385
0.12504
0.10558
0.11643
0.14704
0.19105
0.22836
0.13333
-0.015602
-0.10522
-0.099157
-0.060887
-0.13806
-0.22162
-0.24426
-0.25829
-0.24299
-0.22289
-0.2079
-0.20153
-0.18144
-0.17729
-0.19611
-0.21652
-0.18622
-0.16804
-0.15146
-0.1403
-0.10809
-0.070774
-0.056104
-0.045261
-0.041434
-0.011775
0.033829
0.012143
0.051369
0.085173
0.10813
0.2121
0.27333
0.32563
0.28354
0.30873
0.29119
0.21848
0.26376
0.20859
0.2188
0.25802
0.22741
0.17798
0.043715
0.0032135
-0.06025
-0.096605
-0.075557
-0.084487
-0.11893
-0.15337
-0.10235
-0.026126
-0.03665
0.083579
0.11706
0.11675
0.16458
0.17319
0.16777
0.10303
0.15119
0.24527
0.19871
0.13971
0.1244
0.012143
-0.015283
-0.045899
-0.082254
-0.15497
-0.19196
-0.19228
-0.18112
-0.19834
-0.18367
-0.16166
-0.13169
-0.10075
0.0035324
-0.039202
-0.075876
-0.034418
0.025537
0.045629
0.088362
0.11037
0.16681
0.17032
0.13811
0.12536
0.066358
0.034467
0.032553
0.070185
0.066995
0.081665
0.19169
0.058066
0.052007
0.059661
0.030002
-0.018791
-0.018472
0.04531
0.036699
0.046904
0.0073593
-0.02804
0.030002
0.0070404
0.0025757
-0.011137
-0.063439
-0.058655
0.01023
0.10208
0.22996
0.22805
0.19169
0.096654
0.07752
0.059661
0.17989
0.2813
0.28513
0.21784
0.10463
-0.0012513
-0.0041214
-0.055147
0.1075
0.038294
0.056471
0.024262
0.036061
0.008635
0.0131
0.078795
0.13205
0.15533
0.17383
0.052645
0.066677
0.054239
0.047861
0.028407
-0.0063538
-0.061844
-0.054828
-0.10841
-0.17633
-0.17888
-0.2331
-0.27902
-0.23533
-0.23182
-0.21141
-0.13902
-0.10011
-0.11606
-0.13806
-0.12212
-0.13615
-0.034418
-0.0076295
0.052326
0.077201
0.10463
0.02171
0.065082
0.069228
0.049774
0.085173
0.084854
0.050093
0.069866
0.11196
0.10112
0.11515
0.18595
0.1952
0.16012
0.17255
0.15725
0.19488
0.20763
0.14768
0.15023
0.17064
0.12567
0.029683
0.044991
0.034467
0.045947
0.0041702
-0.058336
-0.092778
-0.16964
-0.16453
-0.13998
-0.12116
-0.050682
0.090914
0.36263
0.31032
0.22326
0.13014
0.076882
0.079752
0.11419
0.17415
0.22262
0.25356
0.23506
0.051688
0.0067215
0.040207
-0.049088
-0.10617
-0.11032
-0.014964
0.040845
-0.040158
-0.047174
-0.093416
-0.055147
0.024262
2.4388e-05
-0.023575
-0.018791
0.037656
-0.096605
-0.13009
-0.14827
-0.14508
-0.1572
-0.16485
-0.11096
-0.18654
-0.20344
-0.15018
-0.11925
-0.14667
-0.071411
-0.0015702
-0.04271
-0.051639
0.10399
0.11101
0.10112
0.12695
0.15246
0.15565
0.09187
0.12376
0.19137
0.29565
0.26695
0.18499
0.16713
0.17064
0.15119
0.057428
0.043715
0.091552
0.13524
0.13205
0.12057
0.14194
0.10271
0.11611
0.045947
-0.018791
-0.036012
-0.04558
-0.010819
0.029045
0.0131
0.012143
-0.053552
-0.03378
-0.071093
-0.0864
-0.051639
0.051369
0.15087
0.11706
-0.0015702
-0.0089051
-0.014327
0.07433
0.17447
0.28896
0.20763
0.11898
0.046904
-0.059612
-0.10266
-0.039202
-0.043985
-0.058017
0.059023
-0.093097
-0.10809
-0.1285
-0.15273
-0.10553
-0.076195
-0.11574
-0.014327
0.071141
0.030321
-0.034737
0.039888
-0.01337
-0.035694
-0.057379
-0.056423
-0.090227
-0.11032
-0.13998
-0.13998
-0.082254
-0.089908
-0.081935
-0.038245
-0.066947
-0.06599
0.011505
0.047861
0.10941
0.13971
0.15342
0.17542
0.16841
0.19966
0.24718
0.25069
0.24654
0.30235
0.20572
0.099524
0.091552
0.07433
0.078157
0.04531
0.070185
0.041164
-0.020386
-0.032823
-0.057698
-0.044942
-0.039202
0.023305
-0.041434
-0.035375
-0.045899
-0.092141
-0.13838
-0.11128
-0.028678
0.08326
0.13429
0.11802
0.11037
0.090595
0.066358
0.078795
0.1008
0.14194
0.18372
0.10526
0.13811
0.11292
0.23187
0.28704
0.18404
0.06859
-0.033142
-0.06025
-0.050363
-0.070455
-0.099794
-0.066947
-0.077152
-0.18941
-0.23693
-0.22768
-0.23565
-0.15847
-0.087357
-0.10235
-0.1674
-0.18175
-0.17697
-0.14699
-0.04558
-0.04845
-0.01911
-0.041115
0.0095917
-0.032186
-0.022618
0.015332
0.078157
0.15278
0.3301
0.27588
0.13014
0.067952
0.20189
0.21306
0.28991
0.42545
0.52431
0.36741
0.26217
0.20668
0.20508
0.17479
0.11962
0.10144
-0.11255
-0.11702
-0.10809
-0.12595
-0.12882
-0.20185
-0.074282
-0.036331
-0.13456
-0.191
-0.099794
-0.11159
0.017564
0.084217
0.05392
0.026494
-0.057379
-0.11702
-0.08353
-0.098519
-0.13934
-0.12722
-0.19451
-0.28731
-0.33228
-0.36736
-0.28604
-0.23406
-0.19929
-0.088633
-0.075876
0.048818
0.1059
0.093146
0.08039
0.099524
0.12599
0.12025
0.14321
0.16139
0.10176
0.035104
-0.01337
-0.082573
-0.088952
-0.17474
-0.1269
-0.12882
-0.15337
-0.11893
-0.070774
-0.054509
-0.063439
-0.005716
0.20604
0.32244
0.15438
0.16299
0.31
0.26568
0.2947
0.46914
0.50645
0.31989
0.25037
0.30299
0.32372
0.37953
0.47201
0.41142
0.19966
0.0022568
-0.034737
-0.02517
0.0028946
0.031915
-0.015921
-0.16294
-0.27232
-0.27743
-0.21333
-0.12116
-0.078109
-0.10203
-0.11159
-0.0038025
-0.069817
-0.12913
0.0003433
-0.069179
-0.029634
-0.047493
-0.067903
-0.052596
-0.11542
-0.12499
-0.058655
0.0099106
-0.058655
-0.12339
-0.12212
-0.19036
-0.20599
-0.12786
0.0032135
-0.037926
-0.084806
-0.17442
-0.016878
-0.036969
-0.071093
-0.16964
-0.1741
-0.10872
-0.037607
-0.035694
-0.044304
-0.025807
-0.024851
-0.040158
-0.0073105
0.028407
0.11196
0.22677
0.21625
0.26057
0.23155
0.17096
0.17511
0.25228
0.31893
0.43438
0.36932
0.33137
0.23921
0.19424
0.12217
0.15023
0.25228
0.23889
0.12472
-0.041115
-0.11128
-0.18973
-0.16613
-0.18335
-0.2449
-0.3074
-0.28891
-0.26371
-0.13009
-0.066628
-0.028359
0.022986
-0.12977
-0.20727
-0.21365
-0.11638
-0.079065
0.0025757
-0.042391
-0.021343
-0.066628
-0.11893
-0.16198
-0.17474
-0.13392
-0.086081
0.12695
0.032553
-0.053871
-0.088314
-0.10617
-0.14763
-0.093735
0.0064026
0.066677
0.09187
0.034148
0.16905
0.076882
0.028407
0.017246
-0.056742
-0.11064
-0.005716
0.022029
0.049455
-0.018791
-0.074919
-0.085443
-0.071411
-0.074282
-0.13137
-0.14891
-0.14349
-0.071093
-0.12467
-0.16645
-0.14954
-0.11542
0.13524
0.18818
0.15501
0.13939
0.097611
0.087087
0.06285
0.024899
0.098249
0.1346
-0.00061343
-0.081298
-0.1521
-0.081935
-0.077152
-0.023575
-0.1403
-0.0982
-0.10585
-0.14349
-0.20408
-0.11446
-0.067585
0.011186
0.02777
-0.023256
-0.031548
-0.044942
0.037337
0.061574
0.12855
0.065401
-0.027721
-0.063439
0.027451
-0.00061343
-0.038883
-0.013689
-0.076833
-0.11159
-0.12307
-0.056742
-0.021024
-0.025807
-0.077471
-0.010181
-0.13998
-0.1757
-0.15847
-0.081617
-0.083849
-0.088952
-0.061206
0.037018
0.038294
-0.043985
-0.084487
-0.078109
-0.092778
-0.20121
-0.19738
-0.13392
-0.12339
0.029045
-0.010819
-0.045899
-0.09246
-0.12499
-0.16932
-0.14636
-0.11128
-0.023575
-0.018153
-0.096924
-0.13264
0.089638
0.083579
-0.0089051
-0.057061
-0.11255
-0.14221
-0.16932
-0.17314
-0.012094
0.19998
0.17447
-0.015921
-0.066309
-0.13551
-0.13774
-0.12913
-0.093097
-0.11765
-0.073644
-0.072687
-0.022937
-0.090227
-0.14093
-0.2095
-0.18399
-0.18112
-0.13711
-0.049088
0.055196
0.1059
-0.047493
-0.10522
-0.056742
-0.030591
-0.025807
0.011824
0.18499
0.23538
0.37634
0.41014
0.3234
0.15757
0.074649
0.012462
0.033191
0.10463
0.1177
0.078476
0.015651
-0.058017
-0.089589
-0.17378
-0.19579
-0.35588
-0.4152
-0.3849
-0.37119
-0.38299
-0.33579
-0.32463
-0.30613
-0.26308
-0.27998
-0.27105
-0.081617
0.037656
0.070185
-0.017516
-0.036331
-0.022299
0.03064
0.2542
0.16203
0.11643
-0.0105
0.15214
0.085811
0.03638
0.046585
-0.057379
-0.10235
-0.13615
-0.17155
-0.18048
-0.18973
-0.15273
-0.16581
-0.18367
-0.18048
-0.097881
0.012143
0.03351
-0.029634
-0.009224
0.031278
0.072098
0.059023
0.010548
0.020435
0.075925
0.088681
0.019159
0.10622
0.1311
0.03925
0.050093
-0.0079484
-0.082573
-0.061525
-0.035694
-0.002208
-0.038245
0.0099106
0.08613
-0.009224
-0.068541
-0.094054
-0.11733
-0.15847
-0.20759
-0.13774
-0.17793
-0.17346
-0.15146
-0.14859
-0.037288
-0.13041
-0.063758
0.023943
-0.0076295
-0.043028
0.016289
-0.00093234
-0.074919
-0.011775
0.025218
0.16681
0.094741
-0.04558
-0.10553
-0.051639
-0.098519
-0.14699
-0.2044
-0.19228
-0.23374
-0.21237
-0.13647
-0.1556
-0.15879
-0.097881
0.079114
0.016289
-0.041115
-0.034418
-0.017835
0.06859
0.096973
0.17957
0.025218
0.08326
0.076244
-0.031548
-0.04845
-0.020067
0.036699
-0.044304
-0.12084
-0.15433
-0.17187
-0.14923
-0.094373
0.036061
0.026813
-0.061525
-0.08927
-0.081298
-0.017835
0.16745
0.25707
0.19775
0.16299
0.049137
0.054558
0.097611
0.14417
0.1783
0.13046
0.024899
-0.020705
-0.088952
-0.086081
-0.097881
-0.17219
-0.15784
-0.21269
-0.21205
-0.23501
-0.2803
-0.29082
-0.30996
-0.31952
-0.31251
-0.23406
-0.2197
-0.11989
-0.064077
0.017246
-0.064714
-0.067266
-0.079065
-0.10107
-0.10872
-0.093735
-0.048769
-0.045899
-0.035056
-0.021343
-0.049726
-0.038883
0.037975
0.19392
0.32978
0.18053
0.12791
0.11228
0.11228
0.18691
0.26408
0.27014
0.25866
0.19871
0.18435
0.14577
0.19041
0.055834
0.092189
-0.0053971
-0.098838
-0.12116
-0.17219
-0.17952
-0.13487
-0.14763
-0.13743
-0.16358
-0.25702
-0.2213
-0.24745
-0.19419
-0.2551
-0.25064
-0.21492
-0.12371
-0.20057
-0.19005
-0.11829
-0.0038025
0.091233
0.05679
0.057109
-0.018791
0.016289
0.013419
0.028088
0.10654
0.089319
0.062212
-0.055147
0.00066221
-0.039202
-0.057698
-0.17697
-0.16039
-0.088314
-0.096605
-0.023575
-0.080022
-0.13296
-0.090865
-0.037926
-0.065352
-0.015602
0.01023
0.0067215
-0.012094
-0.037607
0.035742
0.066995
-0.0018891
0.030321
0.028088
-0.023894
-0.0073105
-0.038883
-0.0073105
-0.031548
0.042121
-0.0047593
-0.067585
-0.1336
-0.069179
-0.06312
-0.10043
0.044353
0.15565
0.096335
-0.0041214
-0.026764
0.061893
0.063806
0.016289
0.032872
0.0044891
0.03638
-0.041753
0.024262
-0.0098618
-0.069817
-0.067266
-0.098838
-0.15752
-0.18686
-0.11446
-0.14285
-0.18526
-0.18367
-0.19706
-0.21046
-0.15847
-0.1049
-0.11096
-0.14923
-0.14189
0.11706
0.15597
0.148
0.20221
0.19647
0.16968
0.13971
0.23155
0.27142
0.25738
0.21752
0.16299
0.23697
0.18404
0.036061
0.0064026
-0.027721
-0.09533
-0.14093
-0.030591
0.04818
-0.03665
-0.048131
-0.018791
-0.056742
-0.049726
-0.01624
-0.059931
-0.099476
-0.049088
-0.055466
-0.018791
-0.074919
-0.14891
-0.17697
-0.1808
-0.23533
-0.1639
-0.21014
-0.24681
-0.26116
-0.21269
-0.23693
-0.24203
-0.2433
-0.20376
-0.19834
-0.095011
-0.010181
0.027451
-0.0069916
-0.10266
-0.1151
-0.099794
-0.041115
0.03925
0.066358
0.069228
0.027451
-0.014964
0.089638
0.090276
0.060617
0.022029
0.051688
0.054558
0.0022568
0.11579
0.15055
0.1295
0.096973
0.074649
0.042758
0.36135
0.4532
0.43215
0.31224
0.15661
0.12791
0.12567
0.1531
0.12057
0.13014
-0.0105
0.034467
0.075287
-0.030272
-0.057698
-0.018791
-0.043347
-0.16071
-0.15752
-0.22576
-0.21907
-0.20982
-0.21205
-0.18813
-0.17251
-0.1521
-0.20918
-0.2028
-0.19993
-0.25861
-0.26627
-0.26754
-0.23724
-0.16262
-0.12913
-0.14731
-0.15337
-0.16932
-0.11191
-0.081935
-0.08353
-0.03091
0.051369
0.050093
0.11611
0.051688
0.14098
0.12408
0.12918
0.1649
0.18627
0.21146
0.18978
0.22262
0.23123
0.14385
0.08613
0.054558
0.025537
0.038612
-0.0085862
-0.063758
-0.066628
-0.063758
-0.03952
0.0057648
-0.067585
-0.15975
-0.1454
-0.15943
-0.11351
-0.11064
-0.10649
-0.075238
-0.14412
-0.13583
-0.10171
-0.099794
-0.14731
-0.13647
-0.14795
-0.16453
-0.1572
-0.16071
-0.016559
0.052007
0.30426
0.35146
0.19775
0.207
0.18595
0.25356
0.35242
0.33647
0.2829
0.20476
0.29215
0.22007
0.15342
0.13684
0.030959
-0.067903
-0.16166
-0.15178
-0.19132
-0.27009
-0.31283
-0.35779
-0.32845
-0.32207
-0.30262
-0.2905
-0.23916
-0.2264
-0.25861
-0.20854
-0.1926
-0.17888
-0.11191
-0.091503
-0.050682
0.013738
-0.0082673
-0.0018891
-0.03952
-0.055785
0.05105
0.081028
0.052645
0.066995
0.079114
0.069228
0.077201
0.081028
0.095378
0.099205
0.074012
0.13779
0.15374
0.14385
0.18308
0.207
0.19201
0.1228
0.15597
0.12567
0.20572
0.16745
0.073055
0.030321
-0.027402
0.028407
0.11834
0.10813
0.052645
-0.037607
-0.080341
-0.12052
-0.12467
-0.1269
-0.10235
-0.094054
-0.072687
-0.17474
-0.14636
-0.11159
-0.16549
-0.20982
-0.18622
-0.086081
-0.1049
-0.12945
-0.15305
-0.1438
-0.14699
-0.14221
-0.075557
-0.034099
-0.038564
-0.034418
0.025856
-0.0028458
-0.071411
-0.02804
-0.032823
-0.038883
-0.046536
-0.11255
-0.06312
-0.058974
-0.057698
-0.048131
-0.049726
0.011505
0.008635
0.1126
0.22709
0.23506
0.16873
0.1649
0.13237
0.16745
0.148
0.12249
0.16745
0.25483
0.13811
0.0032135
-0.039839
0.023305
0.069547
0.026813
0.03064
-0.085762
-0.097562
-0.14508
-0.14285
-0.095968
-0.059931
-0.015921
-0.078746
-0.097562
-0.14221
-0.11542
-0.1403
-0.21492
-0.18558
-0.1521
-0.14412
-0.15784
-0.16932
-0.13615
-0.096605
-0.037607
0.055515
0.043396
-0.00029452
0.008635
0.034467
0.0016189
-0.0053971
0.055196
0.056153
0.01884
-0.0095429
0.016608
0.098886
0.31734
0.42449
0.28704
0.20221
0.16873
0.099524
0.10367
0.18691
0.13524
0.21784
0.14577
0.085173
0.057109
0.035104
-0.077471
-0.17697
-0.20057
-0.18207
-0.15305
-0.14891
-0.17251
-0.1438
-0.1269
-0.046855
0.0099106
-0.031229
-0.053871
-0.028359
-0.042391
-0.061844
-0.0031647
0.020754
-0.023894
-0.039202
-0.063439
-0.10968
-0.087676
-0.084487
-0.10904
-0.1674
-0.16995
-0.10266
-0.10075
-0.079065
-0.072049
-0.11733
-0.08353
-0.097562
-0.017197
0.066995
0.11164
0.11483
0.064763
0.03638
0.072098
0.11037
0.15246
0.078157
0.044353
0.057428
0.12599
0.022029
0.03064
0.083579
0.20763
0.18404
0.11228
0.037018
0.046904
-0.012094
-0.0041214
0.04531
0.10718
0.11419
0.026175
-0.035375
-0.015283
0.066995
-0.034099
-0.11191
-0.12403
-0.12786
-0.17857
-0.19611
-0.11255
-0.036331
-0.077152
-0.052915
-0.10745
-0.1336
-0.0982
-0.10809
-0.1285
-0.13009
-0.057379
-0.023256
-0.01337
0.031278
0.024262
0.019478
0.022029
0.10399
0.14991
0.11962
0.064125
0.0070404
0.11802
0.13333
0.11802
0.14385
0.12823
0.076244
0.078476
0.045629
0.044991
0.06572
0.093465
0.034786
-0.0047593
-0.03665
-0.0095429
-0.039202
-0.074919
0.014056
-0.046855
-0.16007
-0.14859
-0.12658
-0.13009
-0.083211
-0.0041214
0.047542
0.076244
0.10845
0.09187
0.041164
0.048499
0.08613
0.1598
0.18691
0.12025
0.035423
-0.059293
0.13716
0.19137
0.088044
-0.00061343
-0.047493
-0.044304
-0.032504
-0.036331
-0.039839
0.015651
0.059023
0.12536
0.098886
0.036699
0.0079971
-0.01911
-0.046855
-0.088952
-0.067585
-0.099794
-0.07779
-0.10203
-0.15401
-0.16868
-0.14604
-0.19068
-0.20472
-0.11415
-0.10171
-0.16262
-0.17027
-0.14923
-0.17155
-0.18686
-0.12818
-0.091184
-0.084168
-0.068222
-0.075876
-0.095649
-0.085762
-0.06025
-0.010819
0.092827
0.13811
0.089638
0.055834
0.066677
0.15852
0.1716
0.1767
0.18148
0.20189
0.14194
0.1885
0.2172
0.15661
0.2003
0.14736
0.21656
0.20445
0.13747
0.091233
0.098886
0.11292
0.12727
0.15725
0.12217
0.031278
-0.067266
-0.094692
-0.14859
-0.10362
-0.10936
-0.15369
-0.06886
-0.061206
-0.12754
-0.14699
-0.11733
-0.12563
-0.12212
-0.091184
-0.075876
0.05105
-0.010819
-0.026445
-0.0079484
-0.035694
-0.02517
-0.031867
-0.020705
0.028088
-0.0034836
-0.020705
-0.081298
-0.12882
-0.088633
-0.05132
-0.065352
-0.047812
-0.017835
0.057109
0.061255
0.069547
0.060936
-0.0041214
0.048818
0.06572
0.12599
0.11643
0.089957
0.10208
0.064763
0.072736
0.075287
0.086449
0.066677
0.027451
-0.01624
-0.043028
-0.021343
0.020754
0.0054459
0.12472
0.14321
0.059979
0.14768
0.19743
0.066358
-0.0060349
0.037337
0.050731
0.084536
0.069866
0.0070404
-0.04845
-0.04271
-0.095968
-0.11989
-0.0079484
0.022986
-0.005716
0.027451
-0.066309
-0.092778
-0.062163
-0.069498
-0.08927
-0.0864
-0.052277
-0.028359
-0.16581
-0.076833
-0.11606
-0.18941
-0.17187
-0.11638
-0.095011
-0.13232
-0.094054
-0.076833
-0.040158
-0.028359
-0.017835
-0.022299
-0.058017
-0.032504
0.055515
0.070822
-0.027083
-0.10777
-0.088314
-0.080979
-0.04558
0.066995
0.052007
0.12217
0.071779
0.01023
-0.015602
0.044991
0.040526
0.07752
0.099524
0.10877
0.29916
0.36709
0.28322
0.19934
0.13205
0.064763
0.030321
0.032234
0.10271
0.1193
0.148
0.017246
-0.020067
0.029364
0.033191
-0.025488
-0.048131
-0.1151
-0.12276
-0.13456
-0.082254
-0.017197
0.029045
0.084217
-0.056104
-0.009224
-0.0038025
0.086449
0.074649
0.073374
-0.033461
-0.071411
-0.054828
-0.11128
-0.0982
0.017246
0.024899
-0.0041214
-0.039839
-0.071093
-0.10235
-0.093097
-0.13137
-0.10872
-0.14891
-0.091184
-0.11255
-0.11159
-0.13966
-0.12722
-0.19451
-0.18781
-0.090865
-0.063439
0.015651
0.16586
0.18722
0.28003
0.17989
0.16139
0.1413
0.1193
0.1582
0.1531
0.1531
0.19073
0.16905
0.06859
0.060617
-0.029634
-0.029953
-0.10011
-0.13487
-0.16326
-0.18335
-0.14795
-0.09246
-0.058336
-0.018472
-0.06312
-0.10681
-0.05132
-0.04558
-0.044623
-0.035056
0.025856
-0.0095429
-0.058336
-0.071411
0.0099106
0.02458
0.029045
-0.011775
0.032234
0.030002
0.099205
0.068909
0.045947
0.06859
0.03925
0.079114
0.030959
-0.016559
-0.0095429
0.087406
0.087406
0.046266
0.026175
0.15151
0.11706
0.065401
0.052963
0.03064
-0.04271
0.03351
0.059342
0.05679
0.01597
0.044353
0.037975
-0.0082673
-0.0069916
-0.081298
-0.1572
-0.11733
-0.082254
-0.092778
-0.13169
-0.15497
-0.15624
-0.045261
-0.10298
-0.1438
-0.12276
-0.1521
-0.15305
-0.12148
-0.086081
-0.076195
-0.059293
-0.10362
-0.12595
-0.052915
-0.053552
-0.034737
0.049455
0.041164
0.035104
-0.0015702
-0.0066727
-0.011775
0.0016189
0.068271
0.11228
0.10463
0.097292
0.025218
0.020116
0.019159
0.11547
0.12121
0.052326
0.042121
0.11483
0.075925
0.057747
0.074012
0.10399
0.092827
0.076563
0.2424
0.25101
0.21529
0.2188
0.15342
0.19711
0.16809
0.096335
0.16363
0.055196
0.09187
0.037656
-0.011775
-0.05419
-0.08927
-0.047493
-0.11383
-0.1757
-0.15975
-0.13615
-0.16007
-0.23023
-0.10426
-0.13583
-0.14986
-0.19068
-0.16071
-0.12371
-0.11797
-0.14508
-0.16932
-0.10936
-0.17314
-0.17091
-0.098838
0.0013
0.077201
0.062531
0.0064026
-0.019748
-0.0076295
-0.02517
0.034148
0.056153
0.041164
0.028407
-0.045261
0.030321
0.026494
-0.038245
-0.055466
-0.00093234
0.012781
-0.016878
-0.05132
-0.086081
-0.0982
-0.038883
0.055515
0.11515
0.14353
0.15055
0.10782
0.10239
0.12057
0.21274
0.39196
0.28928
0.26791
0.14513
0.17638
0.07433
0.12504
0.090914
0.22071
0.24271
0.13429
-0.047812
-0.03665
-0.094692
-0.13169
-0.11542
-0.14954
-0.24554
-0.22991
-0.19132
-0.13296
-0.086081
-0.16166
-0.1926
-0.2516
-0.22417
-0.21652
-0.20344
-0.20982
-0.24075
-0.083849
-0.11351
-0.094373
-0.063758
-0.081935
-0.095011
-0.094373
-0.039839
-0.009224
0.013419
0.03638
0.13142
0.12185
0.18021
0.15757
0.13556
0.065401
0.065401
0.11037
0.16331
0.10654
0.031915
-0.046536
0.09187
0.081346
0.05392
0.061893
-0.032823
-0.085762
-0.0864
-0.11606
-0.11128
-0.14476
-0.05132
0.058066
0.1193
0.068909
0.022348
0.071779
0.096973
0.10526
0.19711
0.17734
0.096973
0.11037
0.077201
0.11675
0.07433
-0.002208
0.0131
-0.0063538
-0.079065
-0.17282
-0.050044
-0.020067
-0.005716
-0.075876
-0.076833
-0.10968
-0.11765
-0.12467
-0.044623
-0.019429
-0.048769
-0.15975
-0.06599
-0.032823
-0.070774
-0.10394
-0.13041
-0.16932
-0.17793
-0.1505
-0.097562
-0.047174
-0.021343
-0.061844
-0.064714
-0.075238
-0.0018891
0.034148
0.0089539
-0.045261
-0.052277
-0.0060349
-0.051958
-0.031229
-0.06599
0.013738
0.048818
0.016289
0.029045
0.14066
0.10399
0.091552
0.11037
0.10973
0.073693
0.14226
0.11388
0.12217
0.12312
0.070185
0.059979
0.054239
-0.064714
-0.1151
-0.096286
-0.10809
-0.11925
-0.12754
-0.14221
-0.18207
-0.15241
-0.10203
-0.11128
0.0070404
0.084217
0.050412
-0.0015702
-0.023575
0.073374
0.058704
0.12217
0.18946
0.11611
0.12217
0.17032
0.15757
0.089638
0.037018
-0.017516
-0.023256
0.011505
2.4388e-05
0.0003433
-0.14412
-0.0982
-0.10266
-0.060569
-0.044623
-0.052596
-0.049088
-0.049407
-0.066628
-0.056423
-0.021024
0.013738
0.044034
0.010548
0.043715
0.067952
0.053601
-0.0089051
0.023305
0.040207
0.0067215
0.030321
-0.046536
-0.049088
-0.11829
-0.12052
-0.099476
-0.11925
-0.11064
-0.024851
-0.056423
-0.051001
-0.031548
-0.0041214
0.0038513
-0.061844
-0.04845
-0.02198
-0.049407
-0.0073105
0.033829
0.010867
0.0044891
-0.04845
-0.023256
-0.032823
0.019797
0.088362
-0.020705
0.004808
0.054877
0.17192
0.20923
0.2239
0.21497
0.085811
0.03351
0.10144
0.13429
0.14896
0.1075
0.1228
0.036061
-0.062163
-0.094373
-0.10458
-0.16358
-0.16485
-0.13902
-0.14986
-0.20312
-0.14763
-0.10522
-0.1202
-0.10617
-0.14061
-0.14093
-0.10777
-0.022299
-0.022618
-0.052915
-0.069498
-0.10394
-0.074282
-0.099794
0.047223
0.071141
0.0076782
-0.005716
-0.060887
-0.080341
-0.10968
-0.070455
0.0057648
-0.041434
-0.061525
-0.022618
-0.038883
0.064444
0.063806
0.07146
0.020435
-0.009224
0.041164
0.037975
0.073374
0.02171
2.4388e-05
0.07146
0.013419
-0.021661
-0.039839
-0.03378
-0.042072
-0.075557
-0.094692
-0.068222
-0.060887
-0.069498
0.014694
0.075287
0.090276
0.15214
0.14353
0.093146
0.089
0.10048
0.099524
0.074649
0.031278
0.0076782
0.022667
-0.030591
0.041164
-0.021024
-0.1151
-0.15465
-0.1808
-0.2449
-0.16932
-0.10522
-0.10745
-0.10809
-0.13679
-0.11478
-0.094373
-0.035375
-0.010181
0.081984
0.059661
0.083898
0.069228
0.086768
0.14736
0.17128
0.13205
0.15565
0.17383
0.087087
0.064444
0.064444
0.052645
0.11005
0.041483
-0.030591
-0.11383
-0.11957
-0.063439
-0.091503
-0.11702
-0.018791
0.024899
-0.027402
-0.010819
-0.012413
-0.016559
-0.0038025
0.06572
0.1464
0.15087
0.12855
0.074012
0.048499
-0.0098618
0.077838
0.11164
0.10622
0.064444
0.061574
0.017883
-0.012413
-0.071093
-0.056423
-0.064077
-0.10426
-0.08353
0.0019378
0.0092728
0.050731
0.011505
-0.051958
-0.096924
-0.095968
-0.077471
-0.096286
-0.11128
-0.051639
0.012143
0.0067215
-0.02804
-0.083849
-0.12148
-0.14253
-0.1454
-0.11191
-0.097881
-0.078427
-0.10522
0.025856
0.046266
-0.018791
-0.044942
-0.10362
-0.080022
-0.11574
-0.043985
0.082622
0.069547
0.0057648
-0.0044404
-0.017516
0.017246
0.079114
0.064125
0.11802
0.15884
0.23761
0.17989
0.13747
0.13716
0.12695
0.15788
0.026813
0.14577
0.17224
0.12631
0.045947
0.013738
0.096335
0.10813
-0.005716
0.060617
0.064444
0.027451
0.012462
0.040526
-0.02517
-0.058974
-0.022937
-0.009224
-0.012732
-0.074601
-0.16549
-0.15592
-0.17314
-0.21173
-0.19547
-0.21014
-0.23278
-0.23119
-0.18845
-0.191
-0.2079
-0.23437
-0.19611
-0.17697
-0.16294
-0.1218
-0.1167
-0.12307
-0.1202
-0.032823
-0.036331
-0.023256
0.026813
-0.022618
0.028726
0.072417
0.076563
0.056471
0.056153
0.060936
0.047861
0.081984
0.055515
0.086449
0.060298
0.088044
0.10909
0.12918
0.18659
0.13556
0.18404
0.14736
0.17798
0.15342
0.16458
0.18212
0.14672
0.17064
0.21752
0.14736
0.12472
0.097611
0.012143
-0.0018891
-0.035375
0.021391
0.051688
0.0054459
0.01597
-0.053552
-0.06312
-0.1438
-0.066947
-0.036969
-0.023894
-0.13424
-0.17027
-0.17729
-0.16103
-0.18112
-0.15018
-0.15369
-0.18239
-0.13711
-0.11638
-0.095011
-0.057061
0.16937
0.26855
0.16681
0.13205
0.12408
0.1783
0.20221
0.21497
0.22932
0.15788
0.075287
0.081665
0.16139
0.10303
-0.033142
-0.14189
-0.18909
-0.21939
-0.24841
-0.25383
-0.29529
-0.31155
-0.2854
-0.15528
-0.14125
-0.1285
-0.097562
-0.12212
-0.094692
-0.11478
-0.097562
-0.04271
-0.036012
-0.020386
0.03638
0.031278
-0.050044
-0.072687
-0.034737
-0.048131
-0.065033
-0.023256
0.043396
0.12791
0.19807
0.16203
0.11547
0.11037
0.15693
0.18499
0.34126
0.3419
0.35497
0.25069
0.25069
0.23666
0.2105
0.12057
0.066358
-0.0060349
-0.014964
-0.08066
-0.020067
-0.068541
-0.13998
-0.25128
-0.1859
-0.20185
-0.27169
-0.25957
-0.23182
-0.24139
-0.13328
-0.14827
-0.14444
-0.15688
-0.18335
-0.22544
-0.16836
-0.12595
-0.049407
-0.021024
-0.047812
-0.091822
-0.090227
-0.11064
-0.076833
-0.060569
-0.04271
-0.038245
0.0089539
0.22613
0.23921
0.21338
0.17351
0.098249
0.13205
0.29757
0.40504
0.44522
0.34509
0.2695
0.14321
0.14417
0.13684
0.10558
0.0095917
0.0073593
-0.080979
-0.10841
-0.099476
-0.047174
-0.13328
-0.1674
-0.13583
-0.17952
-0.19929
-0.1741
-0.12084
-0.097243
-0.10936
-0.12786
-0.12913
-0.1438
-0.22576
-0.1926
-0.14954
-0.15847
-0.17187
-0.15401
-0.13169
-0.083211
-0.0095429
-0.026445
-0.019748
-0.027402
-0.0012513
0.024262
0.066995
0.061574
0.082941
0.040526
0.011505
0.008635
0.026175
-0.024851
-0.057379
-0.064395
-0.030272
-0.044623
0.0022568
-0.00093234
-0.0034836
0.089319
0.21306
0.17351
0.14162
0.17798
0.13588
0.078157
0.096654
0.11324
0.092189
0.14768
0.13365
0.044034
-0.020386
-0.048131
-0.075238
-0.099157
-0.14731
-0.169
-0.15146
-0.11893
-0.11287
-0.10203
-0.018153
0.065401
0.038612
0.071779
0.031596
-0.031867
-0.03952
0.017883
0.14066
0.13269
0.022348
-0.057061
-0.0864
-0.067266
-0.052277
-0.050682
-0.11223
-0.12945
-0.087038
0.0089539
0.0025757
-0.0060349
0.016608
-0.013051
-0.023575
-0.0073105
0.026494
0.029683
-0.038883
-0.082892
-0.009224
0.013419
0.047542
-0.056104
-0.11159
-0.15401
-0.20631
-0.18016
-0.082892
-0.084487
-0.10203
-0.079065
-0.065352
-0.10553
-0.071093
-0.088633
-0.11287
-0.11797
-0.12307
-0.079703
0.052963
-0.0018891
0.032553
0.084217
0.019478
0.074012
0.060936
0.065401
0.090595
0.095697
0.14417
0.054239
0.10877
0.12791
0.11643
0.0089539
0.016927
-0.0015702
0.020754
0.0028946
0.03925
0.021072
0.091552
0.13269
0.03925
0.021391
0.0032135
0.052645
0.034786
0.041164
-0.012094
0.0079971
0.00066221
0.050093
0.029683
-0.06025
-0.094373
-0.063439
-0.020705
0.023305
0.043715
-0.052277
-0.073325
-0.080341
-0.087038
-0.03952
-0.051639
-0.096924
-0.079703
-0.08927
-0.16262
-0.15497
-0.15528
-0.11287
-0.058655
-0.084487
-0.088633
-0.063439
-0.04558
-0.059293
-0.012094
0.040845
0.0060837
-0.011775
-0.016878
0.089319
0.13397
0.063806
0.024899
0.030321
-0.034737
-0.028359
-0.015283
-0.0098618
-0.047812
-0.067585
-0.097562
-0.037288
-0.056104
0.028407
0.059661
0.0022568
-0.00061343
0.017564
0.0044891
0.014694
-0.022618
0.022348
0.075287
0.054877
0.1582
0.13556
0.097611
0.044991
0.015013
0.023305
-0.0038025
-0.017516
-0.029953
0.033191
0.03351
0.035742
0.020754
0.018521
-0.014645
0.029364
-0.034737
-0.037607
0.035423
-0.00061343
-0.057061
-0.039202
-0.062801
-0.021024
0.069866
0.023943
-0.054828
-0.04558
-0.063439
-0.13934
-0.12244
-0.041753
-0.021024
-0.063439
-0.15497
-0.18654
-0.16421
-0.18399
-0.15528
-0.14636
-0.16453
-0.13105
-0.085762
-0.084487
-0.12499
-0.12212
-0.060569
-0.028678
-0.036969
-0.02517
-0.014327
-0.016878
-0.020067
0.018202
0.027451
0.022986
0.0022568
0.0022568
0.0092728
-0.012413
-0.013051
0.080709
0.17638
0.18053
0.18404
0.21848
0.10239
-0.010181
0.076882
0.11834
0.1649
0.027132
0.024262
0.029045
-0.056742
-0.072687
-0.088314
-0.072687
-0.16071
-0.17857
-0.15592
-0.15592
-0.11638
-0.11478
-0.14317
-0.12212
-0.080022
-0.087038
-0.056423
-0.026126
-0.10522
-0.07173
-0.066628
-0.017197
-0.011456
0.014375
0.043715
0.014694
-0.010181
0.043715
0.098249
0.10813
0.12631
0.19424
0.088362
0.031915
0.072417
0.089319
0.059023
0.037975
0.10909
0.11962
0.1362
0.072098
0.085492
0.16777
0.10782
0.049137
0.035742
0.0089539
-0.025488
0.036699
0.066995
0.054239
0.041164
-0.0063538
-0.071411
-0.091822
-0.081617
-0.12563
-0.10585
-0.086719
-0.086719
-0.10649
-0.13774
-0.12084
-0.078109
-0.065033
-0.10075
-0.12467
-0.092141
-0.073006
-0.10553
-0.097562
-0.034418
-0.028678
-0.031229
-0.019748
0.0057648
0.0035324
-0.026126
-0.051639
0.023943
0.089638
0.078476
0.16139
0.14609
0.1126
0.027132
0.0051269
0.051688
0.060936
0.090914
0.063806
-0.01911
0.0003433
-0.053234
-0.011775
0.0035324
-0.028359
-0.0063538
-0.023256
-0.014645
0.01597
0.03638
0.031915
-0.02804
-0.032504
0.0067215
0.0019378
0.044672
0.048499
0.048499
0.071141
-0.016559
-0.091184
-0.085762
-0.051639
-0.11446
-0.14572
-0.19929
-0.17601
-0.16421
-0.16772
-0.12499
-0.097243
-0.13328
-0.10171
-0.098838
-0.066628
-0.040796
-0.049726
-0.092141
-0.068541
-0.0031647
-0.044942
-0.064395
-0.015921
0.0003433
0.040207
0.060936
0.039569
0.057747
0.073055
0.089638
0.12185
0.1531
0.32021
0.33169
0.21656
0.15501
0.13492
0.17606
0.16618
0.16299
0.10845
0.024899
0.03638
-0.0034836
-0.059293
-0.095649
-0.13838
-0.15911
-0.18271
-0.18399
-0.17761
-0.1741
-0.13902
-0.085762
-0.11478
-0.08927
-0.052915
-0.023894
0.0079971
-0.021343
0.042439
0.097611
0.10495
0.08326
0.061574
0.040845
0.025537
0.029364
0.081028
0.084536
0.052326
-0.016878
-0.014645
-0.051001
-0.079384
-0.10649
-0.1167
-0.09246
-0.053234
0.055196
0.1413
0.044991
-0.026764
-0.045899
-0.028678
-0.01624
0.013419
0.037337
0.034786
0.00066221
-0.064077
0.017246
0.087406
0.10271
0.078476
0.010548
-0.049407
-0.062163
-0.04845
-0.024532
0.0016189
-0.011775
-0.018791
-0.055147
-0.06025
-0.084806
-0.12307
-0.10872
-0.12818
-0.04558
-0.050044
0.10144
0.055196
0.031915
0.022986
0.055196
0.10973
0.079433
0.06285
0.076244
0.03925
-0.051001
0.057109
0.039888
-0.060569
-0.075238
-0.096605
-0.13806
-0.13424
-0.09533
-0.0012513
0.069228
0.030959
0.0054459
-0.034099
-0.065033
-0.0082673
-0.036331
-0.00061343
-0.017835
0.016289
-0.010819
-0.023894
-0.041753
-0.06599
-0.078746
-0.047493
-0.011456
-0.038564
-0.043666
-0.019748
0.004808
0.040207
0.042439
0.0051269
0.053282
0.10048
0.13078
0.083579
0.17096
0.16968
0.098249
0.10048
0.090595
0.038931
0.0032135
0.062212
0.087406
0.090276
-0.01911
-0.060569
0.0131
-0.009224
-0.044304
-0.089908
-0.11064
-0.093735
-0.094054
-0.095011
-0.031867
-0.0082673
-0.051639
-0.081935
-0.019429
-0.045261
-0.10298
-0.1285
-0.17442
-0.17984
-0.16262
-0.14923
-0.080341
-0.011456
-0.069498
-0.023575
-0.03378
-0.08353
-0.10298
-0.055147
0.0038513
0.035423
-0.0012513
-0.034418
0.063169
-0.0047593
-0.03952
-0.081298
-0.10809
-0.094373
-0.065033
-0.041434
-0.061844
-0.013689
0.10909
0.084536
0.089319
0.035742
0.053601
0.044672
0.030002
0.070503
0.092827
0.097611
0.041483
0.037656
-0.014008
-0.043028
-0.036331
-0.048131
-0.048769
-0.012094
0.00066221
0.056153
0.067952
0.10941
0.052645
0.019159
0.02458
0.062531
0.12025
0.15438
0.24846
0.26089
0.11962
0.10813
0.092508
0.033191
-0.0034836
0.0035324
0.038612
0.11898
0.026494
-0.021661
-0.01624
-0.070136
-0.13456
-0.13583
-0.060887
-0.10585
-0.12371
-0.093416
-0.1556
-0.090227
0.022029
0.0041702
-0.014327
-0.005716
-0.11159
-0.017516
0.0089539
-0.0095429
-0.044623
-0.087995
-0.080979
-0.12531
-0.071411
-0.084168
-0.072687
-0.080341
-0.1033
-0.14125
-0.14572
-0.12244
-0.075876
-0.085443
-0.10011
-0.047493
-0.047812
-0.017516
0.023624
-0.0012513
-0.0031647
-0.0089051
0.013419
0.066039
0.08326
0.089957
0.075925
0.037337
0.066995
0.15246
0.20955
0.19233
0.10399
0.061893
0.041164
0.0035324
0.077201
0.074968
0.16012
0.13779
0.078157
0.052326
0.026175
0.00098112
-0.017835
0.033191
-0.025488
-0.010181
-0.024851
0.048499
0.085492
0.023943
0.011824
0.070503
0.094741
-0.014008
0.068909
0.1295
0.13237
0.073055
0.040207
0.088044
0.044353
0.0041702
0.024262
0.052645
-0.10203
-0.095968
-0.12977
-0.2044
-0.25797
-0.27647
-0.27679
-0.2972
-0.27264
-0.27998
-0.29082
-0.26722
-0.25478
-0.24011
-0.18016
-0.075238
-0.046855
-0.055466
-0.024213
0.11037
0.072417
0.069866
0.075606
0.11834
0.10495
0.066677
0.12855
0.1582
0.14003
0.072417
-0.0028458
-0.041434
-0.047174
0.086768
0.059023
0.0060837
0.04531
0.063487
0.031596
0.05392
0.034467
0.049455
0.14353
0.14098
0.071141
0.072417
0.060617
0.020116
-0.054509
-0.028678
0.044672
0.025218
0.050731
0.028088
-0.00029452
0.041483
0.07146
0.05105
0.064125
0.022348
0.04818
0.10048
0.12344
0.055834
0.038294
0.030959
-0.020067
-0.037607
0.01597
-0.042391
-0.077152
-0.096605
-0.078427
-0.11861
-0.15114
-0.18941
-0.085125
-0.051639
0.0064026
-0.062482
-0.034099
-0.087357
-0.093416
-0.074919
0.008635
0.028726
-0.063758
-0.058974
0.023624
0.041164
0.034148
-0.009224
0.0016189
-0.0050782
-0.03091
-0.034418
-0.053552
-0.031867
-0.04558
-0.068222
-0.028678
0.0016189
-0.02804
-0.083849
-0.10936
-0.097881
-0.0044404
0.044672
0.04531
0.022348
-0.026445
0.015651
0.008316
-0.00061343
0.06859
0.084217
0.12121
0.17893
0.21561
0.1295
0.16681
0.16905
0.15406
0.21529
0.16777
0.27397
0.14162
0.21019
0.14066
0.075925
-0.0085862
0.011824
-0.034099
-0.11191
-0.1403
-0.13456
-0.19611
-0.22162
-0.20057
-0.21747
-0.22672
-0.22289
-0.21875
-0.14636
-0.074282
-0.053552
-0.024532
0.067952
0.082622
0.10718
0.10973
0.10718
0.13078
0.084854
0.055196
0.12886
0.1464
0.10144
0.16394
0.10112
0.081665
0.031596
0.034786
-0.016878
-0.090227
-0.080022
-0.044623
-0.12307
-0.11159
-0.13774
-0.13169
-0.15401
-0.12563
-0.14125
-0.076195
-0.059612
-0.0076295
-0.020705
0.017246
0.061893
0.035104
-0.031548
-0.017516
-0.049407
0.06572
0.10303
0.22996
0.12504
-0.0098618
-0.059293
-0.11128
-0.12084
-0.097562
-0.10362
-0.097562
-0.078746
-0.12148
-0.13774
-0.10362
-0.058655
-0.055147
-0.050682
-0.066309
-0.01624
-0.0038025
0.034786
0.04818
0.074649
0.019478
0.23155
0.29374
0.19073
0.13524
0.094103
0.14577
0.16586
0.088681
0.063169
0.05679
0.023305
-0.085762
-0.033142
-0.047493
-0.091503
-0.037288
-0.062163
-0.11064
-0.16836
-0.22991
-0.1977
-0.13998
-0.14253
-0.095968
-0.043028
-0.0079484
-0.077152
-0.021661
0.015651
0.045947
0.14768
0.25898
0.21178
0.16841
0.12408
0.11164
0.10686
0.14704
0.12344
0.084536
0.034148
-0.085443
-0.096286
-0.11191
-0.16804
-0.21939
-0.23182
-0.25734
-0.2634
-0.25734
-0.21715
-0.20727
-0.10394
-0.078746
-0.12339
-0.13328
-0.099794
-0.010181
-0.0060349
0.0003433
-0.027402
-0.033142
-0.05132
0.022029
0.07433
0.075287
0.050731
0.12791
0.25547
0.2357
0.17351
0.17479
0.30203
0.26504
0.18499
0.23315
0.25005
0.1531
0.10367
-0.015283
0.057747
0.070503
0.025218
0.022029
-0.094692
-0.18781
-0.2382
-0.19005
-0.14061
-0.11829
-0.066947
-0.18016
-0.22289
-0.2044
-0.21333
-0.21078
-0.16134
-0.13232
-0.10043
-0.066628
-0.096605
-0.1049
-0.12307
-0.013051
-0.043347
-0.081935
0.031278
0.14736
0.1582
0.17255
0.19934
0.10112
0.11005
0.21401
0.22358
0.17957
0.16618
0.13907
0.0032135
0.097611
0.075287
0.00098112
-0.061525
-0.10745
-0.093416
-0.12722
-0.17761
-0.17442
-0.18494
-0.11574
-0.053234
-0.065033
-0.099794
-0.099794
-0.050682
-0.02198
0.031278
0.23347
0.24144
0.13811
0.069547
0.11101
0.062212
0.038294
0.11898
0.091552
0.094741
0.12312
0.074968
0.19169
0.16873
0.097292
0.066039
0.058704
-0.098838
0.041802
0.050731
-0.01337
-0.076514
-0.0095429
0.025537
0.070185
-0.056742
-0.13296
-0.040796
-0.097881
-0.10553
-0.11542
-0.097881
-0.012094
0.037018
0.01597
0.079114
0.051688
-0.047493
-0.087357
-0.13998
-0.075557
-0.078109
-0.14285
-0.18335
-0.18016
-0.20025
-0.24171
-0.25606
-0.25223
-0.2331
-0.26499
-0.25702
-0.24809
-0.17633
-0.19324
-0.19451
-0.12913
-0.070774
-0.022618
-0.033461
0.026175
0.061255
0.084536
0.08326
0.074968
0.14545
0.14959
0.19679
0.23155
0.25515
0.19552
0.20445
0.30905
0.26217
0.16076
0.19041
0.26185
0.23092
0.14034
0.11196
0.17128
0.15214
0.023624
0.071779
0.028407
-0.046536
0.079433
0.034786
-0.11829
-0.11064
-0.10617
-0.17091
-0.068222
-0.038245
-0.056423
-0.11159
-0.11829
-0.13264
-0.18271
-0.15943
-0.058655
0.058704
0.010867
-0.03952
-0.11829
-0.13487
-0.13583
-0.13934
-0.086081
-0.046855
-0.072368
-0.090227
-0.060569
-0.067585
-0.026445
0.023943
0.043715
0.023624
0.027451
0.0064026
0.11643
0.11101
0.15629
0.15374
0.1059
0.10335
0.11388
0.10112
0.079433
0.037018
0.038294
-0.019748
-0.047812
-0.13551
-0.20153
-0.13583
-0.1269
-0.074919
-0.069179
-0.071411
-0.071411
-0.088633
-0.0982
-0.13264
-0.047493
0.040526
0.055515
0.049455
-0.032186
-0.066947
-0.0095429
-0.012094
-0.024851
-0.031867
-0.067266
-0.082892
-0.076833
-0.099794
-0.068222
-0.032504
0.026175
-0.012413
-0.0095429
-0.0018891
-0.015602
0.066358
0.092189
0.10813
0.13747
0.17925
0.24718
0.20572
0.22517
0.16426
0.18499
0.073055
0.076563
0.06572
0.13205
0.15757
0.079433
0.040207
-0.030591
-0.091503
-0.050682
-0.15433
-0.16421
-0.15465
-0.15433
-0.132
-0.13998
-0.035375
0.042439
0.024262
-0.032823
-0.044623
-0.013689
0.054239
0.044991
0.057747
0.061574
0.017246
0.029045
0.19647
0.26759
0.14194
0.021072
0.021391
0.043077
0.086449
0.19392
0.14226
0.064444
0.015332
0.040207
0.013738
-0.043028
-0.081617
-0.052915
-0.091503
-0.11319
-0.17155
-0.23246
-0.25861
-0.22194
-0.20216
-0.17825
-0.20153
-0.24681
-0.21141
-0.078746
-0.04558
-0.086719
-0.013051
-0.094692
-0.13647
0.016927
-0.025807
-0.061206
-0.075876
-0.065671
-0.095011
-0.062482
0.011824
0.031278
0.042439
0.075287
0.11802
0.11547
0.063487
0.044353
0.02777
0.028726
0.073055
0.039888
0.087725
-0.0015702
-0.030272
-0.062801
-0.024213
-0.053552
-0.088314
-0.10745
-0.048131
-0.020705
0.056153
0.050731
0.11324
0.14098
0.15374
0.12886
0.18085
0.24463
0.27588
0.23347
0.25515
0.17032
0.12695
0.12312
0.097611
-0.0044404
-0.044942
-0.023575
-0.057061
-0.14827
-0.16358
-0.18112
-0.18813
-0.25
-0.26563
-0.24426
-0.21683
-0.2382
-0.20312
0.063487
0.1059
0.12217
0.061893
0.035742
0.06859
0.12121
0.16267
0.13429
0.14417
0.10016
0.12695
0.12536
0.07752
-0.017197
-0.10107
-0.13328
-0.16932
-0.17187
-0.17729
-0.0053971
0.097292
0.099524
0.02777
-0.029315
-0.03091
-0.040477
-0.002208
0.11388
0.14577
0.05105
-0.031229
-0.031548
0.0025757
-0.033461
-0.061206
-0.10553
-0.13169
-0.15114
-0.24235
-0.20535
-0.21492
-0.16677
-0.1336
-0.18622
-0.14061
-0.096924
-0.15847
-0.13615
-0.1202
-0.10649
-0.11446
-0.094373
-0.079065
-0.04845
-0.074282
-0.0038025
0.041164
0.060617
0.18212
0.29087
0.24431
0.23092
0.19934
0.18053
0.17925
0.19584
0.33456
0.46595
0.49051
0.38909
0.22741
0.17
0.11069
0.031278
0.059342
0.16905
0.096973
0.078157
-0.0095429
0.05105
-0.052915
-0.13711
-0.11893
-0.13998
-0.20631
-0.17442
-0.20185
-0.20344
-0.2162
-0.27647
-0.26977
-0.27647
-0.27296
-0.29784
-0.29273
-0.28572
-0.29433
-0.26148
-0.17761
-0.17825
-0.13551
-0.11446
-0.087357
-0.04558
-0.028678
0.058066
0.096973
0.18531
0.30012
0.24814
0.22996
0.20445
0.13875
0.14385
0.11834
0.13173
0.28641
0.21019
0.10367
0.062212
-0.015283
0.019478
0.010867
-0.042391
-0.10553
-0.14604
-0.12307
-0.099794
-0.044942
0.049774
0.017883
0.042121
0.049137
0.022986
0.011505
0.035423
0.040207
-0.012732
0.067633
0.054877
-0.023575
-0.084487
-0.17442
-0.12276
-0.17761
-0.20503
-0.075876
-0.037926
-0.15847
-0.18144
-0.19068
-0.17761
-0.16645
-0.14189
-0.052277
-0.042072
0.018521
0.060936
0.064125
0.069547
0.055196
0.21848
0.27333
0.29725
0.24909
0.25962
0.21848
0.22932
0.23634
0.23315
0.20062
0.27461
0.27779
0.21975
0.12025
-0.0063538
-0.10011
-0.14604
-0.086719
-0.055785
-0.087038
-0.14253
-0.18686
-0.22513
-0.2787
-0.25478
-0.22002
-0.20631
-0.22289
-0.2669
-0.17378
-0.15688
-0.15879
-0.13105
-0.11861
-0.10458
-0.10011
-0.078427
-0.023575
0.0019378
0.059979
-0.0050782
0.049774
0.11993
0.22645
0.13971
0.080071
0.030959
0.014056
0.081984
0.16203
0.072736
0.059661
0.03638
0.06285
0.19265
0.13684
0.088044
-0.0044404
-0.077152
-0.080979
-0.0053971
0.038612
0.078157
0.046904
-0.070455
-0.064714
-0.10553
-0.1808
-0.191
-0.12563
-0.043347
-0.02517
0.0095917
0.042758
0.00098112
-0.050363
-0.029953
-0.009224
-0.049407
-0.045899
-0.0098618
0.0003433
0.066039
-0.0031647
-0.013689
-0.043347
-0.073644
-0.10936
0.046904
0.22645
0.25707
0.19679
0.1362
0.092508
0.073055
0.058704
0.15246
0.15661
0.040845
-0.038245
0.10463
0.085811
-0.052596
-0.075876
-0.11893
-0.1454
-0.16868
-0.20312
-0.24617
-0.2551
-0.1438
-0.12212
-0.12116
-0.12212
-0.13009
-0.080979
-0.092778
-0.042391
0.027132
0.066677
0.03638
0.0044891
0.0038513
-0.0095429
0.052645
0.069547
0.040526
0.039888
0.0025757
0.020435
0.014375
-0.03665
-0.051639
-0.012413
-0.051639
-0.054509
0.014056
-0.048131
-0.065033
0.028726
0.096654
0.06572
0.096335
0.06572
0.14864
0.15884
0.19392
0.094103
0.13939
0.11388
0.045629
0.032872
0.079114
0.08039
0.063169
0.020116
-0.0038025
0.020435
0.0035324
0.050093
0.15501
0.17798
0.069547
-0.028678
-0.027721
-0.013051
-0.0034836
-0.0105
-0.060569
-0.080341
-0.0105
-0.12212
-0.13934
-0.14508
-0.20185
-0.23214
-0.26308
-0.22576
-0.25064
-0.13487
-0.15847
-0.19483
-0.16932
-0.13647
-0.12148
-0.088314
-0.012732
-0.066309
-0.096605
-0.036331
-0.039202
-0.096605
-0.046855
-0.00061343
-0.038245
-0.056104
-0.066947
-0.10681
-0.037607
0.066995
0.049455
0.11196
0.16586
0.1547
0.1346
0.19424
0.21912
0.19265
0.21274
0.19201
0.1362
0.046266
0.074968
0.1311
0.12408
0.053601
-0.061844
-0.12563
-0.069498
0.058704
0.11866
0.05679
0.052963
-0.002208
-0.024532
-0.019429
0.033191
0.028088
0.0019378
-0.0044404
0.072417
-0.026764
-0.076195
-0.020067
-0.13806
-0.21715
-0.17474
-0.20185
-0.21141
-0.18207
-0.14285
-0.16772
-0.20089
-0.11064
-0.065671
-0.10043
-0.092141
-0.051958
0.04818
0.28162
0.38144
0.31734
0.15948
0.17192
0.12855
0.12918
0.22645
0.24431
0.23219
0.060617
0.057747
0.12504
-0.018791
-0.10426
-0.13679
-0.14317
-0.10681
-0.12467
-0.13934
-0.15273
-0.1269
-0.097562
-0.095649
-0.051001
-0.072687
-0.031229
-0.088952
-0.054828
-0.10139
-0.087676
-0.14986
-0.15528
-0.18399
-0.19515
-0.20185
-0.18877
-0.15369
-0.096286
-0.072049
-0.092778
-0.068541
-0.062801
-0.0047593
0.13078
0.10909
0.10877
0.07146
0.081346
0.037656
0.086449
0.18754
0.10686
0.029045
-0.021343
0.073055
0.058704
0.019478
0.052963
0.029045
-0.014008
0.0060837
0.045629
0.12185
0.20604
0.11164
0.16777
0.094741
0.1059
0.13429
0.17511
0.16299
0.12599
0.032234
0.13843
0.12886
0.060298
0.034148
-0.079703
-0.12531
-0.12212
-0.12307
-0.14636
-0.14667
-0.19387
-0.22895
-0.23852
-0.18718
-0.21205
-0.21875
-0.19738
-0.20695
-0.18558
-0.013689
0.092189
0.19934
0.092827
0.059023
0.03351
-0.0028458
0.043396
0.078476
0.1649
0.1783
0.089638
0.060617
0.0070404
-0.0025269
-0.020386
-0.10426
-0.074601
-0.051639
-0.070136
-0.02804
-0.020386
-0.04558
-0.027721
-0.022618
-0.022937
0.028407
0.026175
0.085492
0.11898
0.059661
0.085811
0.055834
-0.0044404
0.13429
0.19615
0.12759
0.074649
-0.040796
-0.050363
-0.012413
-0.014008
0.015332
-0.034099
-0.068222
-0.1454
-0.078109
-0.095968
-0.17346
-0.20248
-0.1977
-0.065033
-0.050363
0.0013
0.036061
0.080709
0.1008
0.044353
0.030959
0.044034
-0.028996
0.03064
0.16777
0.15693
0.16713
0.19041
0.1413
0.16905
0.031915
0.041802
-0.0063538
-0.046536
0.008316
-0.064714
-0.022299
-0.062163
-0.069817
-0.08353
-0.12307
-0.1438
-0.14253
-0.19738
-0.18048
-0.096286
-0.10777
-0.10171
-0.10011
-0.085762
-0.077152
-0.047174
0.017883
0.084217
0.043396
0.0070404
0.01597
-0.030272
0.061893
0.089
0.053601
0.16235
0.17064
0.14353
0.11037
0.10176
0.034786
0.021072
0.089319
0.063487
0.063806
-0.024213
0.041802
0.048499
0.044353
0.065401
-0.022618
-0.093416
-0.087357
-0.095968
-0.028996
-0.0063538
0.05679
0.097292
-0.051001
-0.064714
-0.10745
-0.13232
-0.13711
-0.16772
-0.16517
-0.17442
-0.085125
-0.15752
-0.053234
-0.0095429
-0.026126
-0.044304
-0.019748
-0.002208
0.043715
0.088362
0.075606
0.0131
-0.087357
0.11515
0.21561
0.11419
0.017564
-0.062163
0.019797
-0.027721
0.018521
0.032234
-0.037607
-0.043985
-0.020386
0.0099106
-0.010819
0.040207
0.148
0.074968
0.027132
-0.023256
0.0044891
0.0003433
-0.0034836
0.0092728
0.018202
0.017564
-0.0053971
-0.01911
-0.027083
-0.039202
-0.075876
-0.072687
-0.10745
-0.12595
-0.075876
-0.021343
-0.083849
-0.10426
-0.11478
-0.066947
0.01023
0.12663
0.1582
0.079114
0.080071
0.10686
0.14864
0.14927
0.2121
0.16586
0.07752
0.055834
0.15884
0.23921
0.28035
0.26823
0.19328
0.12695
0.041164
-0.00061343
-0.018153
-0.024213
-0.043985
-0.026764
-0.048769
0.0067215
0.044353
0.090595
-0.047493
-0.10171
-0.14125
-0.14572
-0.11861
-0.087676
-0.073963
-0.099476
-0.098838
0.0038513
-0.073963
-0.093735
-0.13519
-0.18526
-0.25191
-0.23724
-0.1403
-0.12722
-0.19547
-0.16071
-0.14317
-0.093735
-0.067585
-0.04845
0.028726
0.016927
0.10718
0.077838
0.015332
-0.022299
0.033829
0.072098
0.1059
0.15214
0.20189
0.3218
0.28896
0.12855
0.11611
0.082303
0.059023
0.029045
0.063487
0.055834
0.043715
-0.022299
-0.011775
-0.098519
-0.20759
-0.19451
-0.22098
-0.28923
-0.30198
-0.28412
-0.2433
-0.22608
-0.20312
-0.19324
-0.12595
-0.13679
-0.11989
0.035423
0.087406
0.07146
0.067952
0.094103
0.095697
0.16331
0.37411
0.33297
0.22039
0.25069
0.31702
0.25802
0.19169
0.15565
0.28577
0.1818
0.10239
0.096016
0.15246
0.20381
0.27461
0.15597
0.069228
0.054239
0.092189
0.08039
0.2121
0.21784
0.19233
0.072736
-0.069817
0.13779
0.22103
0.057747
-0.11064
-0.15943
-0.2162
-0.24873
-0.28221
-0.30453
-0.2197
-0.28349
-0.33387
-0.28636
-0.14317
-0.2044
-0.14444
-0.11893
-0.14412
-0.023256
0.042439
0.0051269
-0.016878
0.041483
0.029683
0.017246
0.036699
0.15023
0.09793
-0.016878
-0.067903
0.0131
-0.058017
0.083579
0.18404
0.10845
0.010867
0.11643
0.034148
-0.014327
-0.014964
0.052326
0.09506
0.034786
0.010548
-0.062163
-0.038245
-0.05132
-0.13902
-0.1859
-0.14699
-0.19387
-0.20248
-0.17952
-0.16326
-0.18016
-0.056104
-0.072687
-0.10266
-0.12499
-0.03378
-0.029953
0.004808
0.12567
0.099205
0.059661
0.080709
0.02458
0.041483
0.081665
0.082303
0.078157
0.049774
0.044034
0.081028
0.076244
0.081984
0.014694
-0.090227
0.0060837
-0.012413
-0.041753
-0.056104
-0.053234
-0.09246
-0.055466
-0.11255
-0.1033
-0.072368
-0.043028
0.10526
0.15183
-0.036012
-0.0015702
0.0016189
0.024899
0.086768
0.092508
0.10845
0.12759
0.10941
0.023305
-0.023256
-0.053234
-0.06312
-0.032504
0.011186
-0.069179
-0.098838
-0.13105
-0.10649
-0.061844
-0.091503
-0.0073105
-0.034737
0.050731
0.01023
0.020754
0.061574
0.050731
0.022986
0.058385
0.046266
0.05105
-0.0066727
-0.075876
-0.046218
0.022348
0.017246
-0.064395
0.038612
0.054558
0.028407
0.02777
0.013738
0.064763
0.050412
0.055515
0.01597
0.0073593
0.027451
0.050731
0.089957
0.0095917
0.080709
0.08613
0.03351
-0.0063538
0.0060837
-0.0082673
-0.058655
0.091552
0.1126
0.12504
0.067952
0.058704
0.022348
0.085811
0.14098
0.12408
0.18914
0.20827
0.17128
0.083898
0.044991
0.045947
-0.047812
-0.059293
-0.1741
-0.055466
0.016289
-0.010181
-0.11446
-0.20503
-0.25287
-0.20727
-0.17729
-0.1521
-0.1218
-0.12658
-0.17825
-0.10011
-0.069817
-0.11542
-0.16645
-0.097881
-0.088633
-0.14444
-0.10171
-0.0053971
-0.060887
-0.028359
0.016289
0.084854
0.082622
0.1464
0.2121
0.10877
0.12025
0.21401
0.21306
0.19201
0.081984
0.092827
0.090914
0.096654
0.039569
-0.057379
-0.04271
-0.087357
-0.083849
-0.10522
-0.0982
-0.073644
-0.084487
-0.12148
-0.10841
-0.12339
-0.11957
-0.096605
-0.034737
0.10973
0.076882
-0.028359
-0.047174
-0.015921
0.064444
0.1295
0.026494
0.0032135
0.046585
0.087087
0.1177
0.098249
0.093784
0.082941
0.014694
-0.051001
-0.10298
-0.08353
-0.073963
0.008316
0.11196
0.041483
-0.026445
-0.045899
0.018202
0.16012
0.17255
0.044034
0.08613
0.0089539
-0.00061343
0.035742
0.05105
-0.0015702
-0.035375
0.022667
0.044991
-0.040477
-0.067585
-0.1403
-0.18303
-0.12626
-0.086081
-0.020386
0.01884
-0.026126
-0.061844
-0.083849
-0.0085862
-0.029634
-0.013051
0.037656
0.049455
0.046585
0.066358
0.097611
0.28035
0.3285
0.25356
0.25164
0.25611
0.18308
0.18372
0.19966
0.30203
0.39452
0.17479
0.17255
0.11547
0.021391
-0.14285
-0.094054
-0.086081
-0.034099
-0.16134
-0.28636
-0.21109
-0.22066
-0.27743
-0.2618
-0.23023
-0.16772
-0.25287
-0.19164
-0.17984
-0.18558
-0.12563
-0.17506
-0.15018
-0.17027
-0.13615
-0.10522
-0.088952
-0.048131
-0.021024
-0.11446
-0.11351
-0.094054
-0.052277
-0.068541
-0.044304
-0.038245
-0.047812
-0.032504
-0.031867
0.0099106
0.0044891
0.10208
0.079114
0.047223
0.010867
0.020435
-0.00061343
-0.020705
0.00066221
-0.00029452
-0.040158
-0.091184
-0.058974
-0.040158
-0.046855
-0.086719
-0.035056
-0.0063538
-0.03091
-0.077152
-0.017516
0.037337
0.064763
0.052326
0.035742
-0.034418
0.019159
0.11164
0.044353
-0.018153
0.026813
-0.031548
0.0057648
-0.075876
-0.04558
0.01023
0.078157
0.09506
0.056153
-0.11829
-0.11797
0.078157
0.097611
0.043077
0.0060837
-0.022618
0.055515
0.033191
0.064763
0.063169
-0.0044404
-0.06312
-0.034737
-0.0041214
-0.02198
-0.023256
-0.081935
0.016927
0.014694
0.0131
-0.073644
-0.11159
-0.14986
-0.13519
-0.090546
-0.023256
0.10367
0.079433
0.18818
0.06859
-0.022299
0.031278
0.037656
0.024899
0.080071
0.011505
-0.03091
-0.071411
-0.026126
-0.026764
-0.044942
0.017883
0.076882
-0.0060349
-0.032186
-0.12658
-0.15784
-0.14317
-0.093735
-0.0038025
-0.011456
-0.091184
-0.11829
-0.055785
-0.081298
-0.077471
-0.1336
-0.12339
-0.097562
-0.070455
-0.051639
-0.010181
0.11866
0.083898
0.066358
0.10654
0.16873
0.15214
0.12599
0.1818
0.18467
0.079433
0.11738
0.10845
0.075287
0.0064026
-0.015921
0.017564
-0.017516
-0.017197
-0.033142
-0.031548
-0.054828
-0.065033
0.14609
0.096654
0.0057648
-0.099476
-0.080979
-0.025807
0.04531
0.12855
0.10941
0.034786
0.0054459
-0.052915
-0.058974
0.054877
0.017883
-0.082254
-0.030591
0.008635
-0.081298
-0.13487
-0.098838
-0.1572
-0.21269
-0.18973
-0.13966
-0.14604
-0.15911
-0.0012513
-0.077152
-0.11415
-0.132
-0.19324
-0.15911
-0.093416
-0.058017
-0.12116
-0.13711
-0.20344
-0.088952
-0.036012
-0.071411
-0.12212
-0.15465
-0.12339
-0.16071
-0.16677
-0.14285
-0.099794
-0.080979
-0.066947
-0.063758
-0.06599
0.0013
0.080709
0.21497
0.23187
0.42417
0.35657
0.12918
0.20158
0.23219
0.2054
0.30937
0.44777
0.48126
0.29948
0.13046
0.1126
0.068271
-0.028678
-0.079065
-0.1151
-0.23374
-0.20376
-0.22289
-0.22576
-0.27392
-0.24139
-0.25957
-0.24203
-0.22449
-0.11
-0.050044
0.12791
0.097611
0.03925
0.069866
0.065082
0.12185
0.091552
0.19233
0.19041
0.14513
0.18117
0.054877
-0.00029452
0.031278
0.1008
0.10654
0.16363
0.052963
0.044672
-0.023575
0.0032135
0.16267
0.1008
0.22071
0.10654
0.027451
-0.026764
0.030002
-0.050682
-0.14285
-0.18303
-0.20822
-0.37533
-0.31283
-0.33356
-0.32973
-0.40244
-0.39542
-0.34695
-0.29337
-0.27679
-0.18431
-0.1521
-0.1639
-0.11191
0.0095917
0.20955
0.32818
0.29406
0.31766
0.15119
0.2223
0.36518
0.26408
0.16841
0.21114
0.12536
0.14258
0.1008
-0.087357
-0.017835
-0.067903
-0.17984
-0.14795
-0.14125
-0.16262
-0.16995
-0.22959
-0.21269
-0.16868
-0.094373
-0.066947
-0.046536
-0.040477
0.066358
0.23761
0.13939
0.094741
0.085492
0.063169
0.13078
0.1649
0.16522
0.12121
0.02171
0.013419
0.023305
0.0051269
-0.047493
-0.1741
-0.23087
-0.18494
-0.18367
-0.19802
-0.22098
-0.24586
-0.27073
-0.19802
-0.17633
-0.1269
-0.097562
-0.0082673
0.020116
0.044991
0.059342
0.065082
0.063487
0.076882
0.098886
0.044353
0.12791
0.20126
0.21943
0.31798
0.36135
0.3301
0.30841
0.19392
0.11037
0.073055
0.17319
0.20381
0.22199
0.2121
0.037018
0.22836
0.17064
0.032234
0.07146
0.012781
-0.099476
-0.0982
-0.1505
-0.10841
-0.082892
-0.056423
-0.11925
-0.16485
-0.12882
-0.039839
-0.055785
-0.13009
-0.069498
-0.0012513
0.01597
0.052007
0.037018
0.019159
0.047861
0.053601
0.12153
0.11388
0.10239
0.049774
-0.062482
-0.077471
-0.081298
-0.056742
-0.038245
0.03925
0.043715
-0.0018891
-0.091503
-0.1792
-0.089589
-0.084168
-0.017516
0.054558
0.10654
0.024899
-0.0095429
-0.0098618
-0.052277
0.092189
0.12759
0.020754
0.026175
-0.029634
-0.073006
-0.067903
-0.084487
-0.067266
-0.036331
-0.10872
-0.21173
-0.22321
-0.22991
-0.20918
-0.20312
-0.28763
-0.22417
-0.010181
0.079752
-0.026126
-0.059293
-0.026126
-0.014327
0.021391
0.026494
0.13747
0.20221
0.14577
0.0025757
0.025218
-0.0085862
-0.033142
-0.0095429
-0.014008
-0.10362
-0.15528
-0.19068
-0.093735
-0.091822
-0.050682
-0.029634
-0.03952
-0.03378
-0.020386
0.01023
0.090595
0.14672
0.14768
0.15055
0.26855
0.24399
0.1885
0.22549
0.2475
0.20891
0.18499
0.20126
0.14513
0.12886
0.19105
0.12695
0.0041702
0.065082
0.060617
0.029045
-0.072687
-0.11702
-0.053234
-0.06599
-0.013051
0.008635
-0.072687
-0.03091
-0.065352
-0.12212
-0.091503
-0.012094
-0.088952
-0.068222
-0.075557
-0.099157
-0.093097
-0.15241
-0.14667
-0.12818
-0.061206
0.051369
0.089957
0.11962
0.21019
0.10239
0.059023
0.019159
0.044034
0.051369
0.072736
0.089
0.051688
-0.045899
0.054877
-0.018153
-0.095011
-0.13232
-0.17187
-0.14699
-0.18144
-0.15688
-0.066628
-0.050682
-0.032186
0.013738
-0.027721
-0.037926
0.00098112
0.011824
-0.005716
-0.029634
-0.026445
0.0092728
-0.03378
-0.046536
0.0022568
-0.038564
-0.11478
-0.072687
-0.032186
-0.037288
-0.080979
-0.088633
-0.074601
-0.060569
-0.045899
0.098568
0.12918
0.16139
0.11579
0.12408
0.1244
0.18659
0.30777
0.56322
0.49625
0.21497
0.23506
0.16458
0.17479
0.20158
0.21274
0.13173
0.024262
0.032234
-0.024213
-0.093097
-0.25734
-0.29879
-0.31283
-0.24426
-0.22257
-0.25447
-0.22895
-0.23023
-0.20663
-0.1049
-0.075557
-0.070774
-0.059612
-0.049726
-0.025807
-0.04845
-0.060887
-0.030272
-0.029634
0.067952
0.0067215
-0.052277
-0.16198
-0.077471
-0.12276
-0.062482
-0.12499
-0.13966
-0.15018
-0.16007
-0.10235
-0.094692
-0.058017
-0.042391
0.02458
0.022667
-0.011775
-0.024851
-0.026126
0.024899
0.036699
0.057747
0.047223
-0.021024
-0.056742
-0.027402
-0.02517
-0.073325
-0.01624
0.10526
0.36741
0.21497
0.10909
0.16618
0.28258
0.36071
0.30331
0.28609
0.25707
0.3065
0.24431
0.2239
0.25515
0.18786
0.015332
0.046904
0.042758
-0.067903
-0.11702
-0.20535
-0.25797
-0.23246
-0.20759
-0.21269
-0.28476
-0.22353
-0.20886
-0.14827
-0.19005
-0.20759
-0.21173
-0.021343
0.02458
-0.0044404
-0.01911
-0.025488
-0.029315
-0.028678
-0.015283
-0.0089051
0.018521
-0.010181
-0.057379
-0.087995
-0.13647
-0.15369
-0.17506
-0.18144
-0.046855
-0.0018891
-0.051958
-0.098519
-0.11255
-0.08927
-0.036331
0.023624
-0.015602
0.01884
-0.0018891
0.075606
0.061893
0.037018
0.027132
0.052645
0.035423
0.03351
0.10654
0.17989
0.17479
0.21306
0.23634
0.1834
0.14098
0.27971
0.41333
0.23123
0.15119
0.41461
0.35784
0.22358
0.20413
0.088044
0.044034
0.008635
-0.01624
0.016927
-0.029953
-0.077152
-0.18399
-0.22034
-0.24362
-0.28923
-0.32144
-0.30103
-0.20599
-0.058017
-0.015921
-0.071411
-0.094054
-0.065352
-0.082892
-0.024213
0.031596
0.076563
-0.058017
-0.031548
-0.017197
-0.022618
-0.042072
-0.14795
-0.16772
-0.16326
-0.19738
-0.21683
-0.19961
-0.10809
-0.042391
0.0079971
0.043715
0.10686
0.17192
0.1362
0.15757
0.13205
0.10909
0.093465
0.018521
0.12089
0.14417
0.03925
-0.021024
-0.05132
-0.08927
-0.1438
-0.13966
-0.15433
-0.088952
0.056471
0.12791
0.18499
0.15151
0.063169
0.013419
-0.0047593
0.015651
0.078795
0.20732
0.21529
0.07433
-0.0018891
0.0089539
-0.072049
-0.15688
-0.17155
-0.16071
-0.18941
-0.17793
-0.19866
-0.13743
-0.14125
-0.10649
-0.11446
-0.11159
-0.067266
0.096335
0.20668
0.1429
0.069547
0.061255
0.12886
0.099205
0.090276
0.13875
0.15916
-0.0041214
-0.02198
0.13269
0.11196
0.018521
-0.059293
-0.063758
0.0131
0.23666
0.13907
0.055196
0.03064
0.00098112
-0.047493
-0.024851
0.045629
0.0067215
-0.018472
-0.071093
-0.041753
-0.11925
-0.20503
-0.21843
-0.21269
-0.21779
-0.23948
-0.23661
-0.18781
-0.16166
-0.092141
-0.0098618
-0.022618
-0.019429
-0.033461
-0.0066727
0.1834
0.18595
0.24782
0.2357
0.26536
0.17925
0.07752
0.29534
0.41525
0.38304
0.27333
0.21561
0.18404
0.1311
0.16426
0.14066
0.11164
0.02777
-0.072049
-0.11989
-0.09246
-0.14125
-0.15879
-0.18112
-0.15146
-0.059293
0.046585
-0.019429
-0.043347
0.05392
0.0131
-0.042072
0.059023
0.1295
0.086768
0.13524
0.10208
0.10909
0.055834
0.027451
0.0022568
0.052963
0.057109
-0.04845
0.030002
0.070185
0.030959
-0.0050782
-0.079065
-0.08066
-0.132
-0.085762
-0.018791
-0.059293
-0.017197
-0.10713
-0.098838
-0.076514
-0.15146
-0.11191
-0.11829
-0.17697
-0.22608
-0.17442
-0.10872
-0.088633
-0.10936
-0.1269
-0.19515
-0.13647
-0.022618
-0.012413
-0.058974
-0.039839
0.064444
0.16618
0.21975
0.17925
0.17351
0.12025
0.05105
0.14417
0.21529
0.26536
0.25898
0.22677
0.17702
0.16076
0.12376
0.087725
0.065401
0.043396
0.0060837
-0.012732
0.035423
0.022986
0.017564
-0.056742
-0.068222
-0.080979
-0.046218
0.04531
0.022986
0.035423
0.07433
0.0076782
0.051369
0.14098
0.06859
0.06859
0.17511
0.16618
0.24559
0.21943
0.28035
0.27269
0.25005
0.095378
0.069228
0.068271
0.079752
0.12791
0.14896
0.014375
-0.090227
-0.14731
-0.10235
-0.11542
-0.11415
-0.09246
-0.03952
-0.15337
-0.21524
-0.22513
-0.21524
-0.23693
-0.20759
-0.14412
-0.17155
-0.23437
-0.18973
-0.12626
-0.13806
-0.1757
-0.20759
-0.088314
-0.085125
-0.1202
-0.08927
-0.12467
-0.12913
0.0022568
0.027451
-0.032823
-0.035056
0.0076782
-0.056742
-0.026126
-0.043666
-0.053871
-0.12116
-0.10681
-0.096605
-0.12403
-0.12626
-0.15784
-0.10649
-0.033461
0.055196
0.17925
0.19105
0.19934
0.32786
0.25228
0.19743
0.20604
0.24941
0.23474
0.30108
0.20827
0.13397
0.049774
0.037975
-0.031867
-0.13073
-0.11797
-0.20216
-0.19515
-0.21843
-0.16517
-0.073644
-0.10266
-0.088633
-0.077471
-0.057698
-0.043347
0.04531
0.13205
0.072098
0.078157
0.16905
0.19169
0.010548
-0.017516
0.020435
-0.034737
-0.073325
-0.10777
-0.077152
-0.065352
-0.096924
-0.13774
-0.20089
-0.24681
-0.22768
-0.21492
-0.23119
-0.23214
-0.21014
-0.11032
0.17128
0.12631
0.11069
0.075606
0.10718
0.12727
0.15438
0.17319
0.23251
0.19679
0.12631
0.037975
0.13971
0.12153
0.012462
-0.021024
-0.026764
-0.076833
-0.14412
-0.16453
-0.12116
-0.10075
-0.090546
-0.10235
-0.13998
-0.14859
-0.11159
0.0060837
0.12408
0.18276
0.15087
0.14864
0.07433
0.049455
0.037337
0.10973
0.15119
0.16363
0.14609
0.025856
0.19871
0.11643
0.26791
0.39165
0.27301
0.058066
0.026813
0.1346
0.16937
0.14991
0.11738
0.06572
0.0079971
-0.048769
-0.11765
-0.070455
-0.15624
-0.21109
-0.32335
-0.39
-0.44741
-0.48727
-0.48663
-0.49588
-0.42157
-0.37948
-0.33069
-0.28125
-0.29784
-0.31091
-0.28955
-0.17697
0.0073593
0.070185
0.028407
-0.048769
-0.036969
0.0054459
0.008316
0.077838
0.0064026
0.093465
0.025856
0.052963
0.050412
0.023943
-0.0047593
-0.041753
-0.067266
-0.029315
0.087725
0.11037
0.15023
0.19647
0.16171
0.18595
0.18659
0.15214
0.15374
0.11419
0.05392
0.13429
0.17128
0.16363
0.12121
0.10526
0.0067215
0.053601
0.0057648
-0.084168
-0.10713
-0.044304
0.010548
0.080071
0.099205
0.092827
0.085811
0.019478
-0.019748
0.054558
0.18691
0.16777
0.13205
0.066677
0.010867
-0.045899
-0.035056
-0.043985
-0.095968
-0.080979
-0.03378
-0.090865
-0.20822
-0.26914
-0.19866
-0.22226
-0.24203
-0.22704
-0.19866
-0.12499
-0.12882
-0.12116
-0.17346
-0.17729
-0.13232
-0.13009
-0.15815
-0.090865
-0.050044
-0.013689
-0.088314
-0.053234
-0.099157
-0.073644
-0.09246
0.04531
0.057747
0.10845
0.097292
0.011186
-0.0098618
0.04531
0.037656
0.067952
0.080071
-0.01911
-0.045261
-0.0053971
0.045629
0.020754
-0.012094
-0.093735
-0.08066
-0.054828
-0.010181
-0.015283
-0.036969
-0.050044
-0.039839
-0.047812
-0.0012513
0.038931
0.072098
0.33392
0.36039
0.34764
0.27588
0.1818
0.11132
0.14704
0.18531
0.22422
0.058704
0.14162
0.091233
0.10495
-0.022618
-0.16326
-0.21269
-0.26116
-0.30996
-0.34631
-0.28157
-0.2382
-0.22863
-0.19515
-0.16007
-0.21109
-0.18749
-0.12307
-0.075557
0.027451
0.081665
0.058704
0.11005
0.074012
0.048499
0.063806
0.078476
0.076563
0.10239
0.096973
0.097611
0.029045
0.039569
0.04818
-0.011137
0.11483
0.18467
0.060617
-0.026126
-0.026764
-0.013689
-0.056423
-0.032504
0.020754
0.012143
-0.070455
-0.074282
-0.02804
-0.0864
-0.13232
-0.1792
-0.14349
-0.021343
-0.054828
-0.10235
-0.11159
-0.13296
-0.13424
-0.12116
-0.021343
-0.086081
-0.023575
-0.069179
0.0099106
-0.009224
0.044034
-0.020067
-0.042072
-0.031229
-0.049407
-0.055466
-0.038564
0.094741
0.094741
0.092508
0.10271
0.13173
0.12504
0.10877
0.082622
0.12759
0.15055
0.13811
0.15119
0.10208
0.019478
0.1008
0.11898
0.10463
0.083898
0.027451
0.07433
0.12631
0.10877
0.14353
0.17606
0.2054
0.22199
0.12791
0.034786
0.030959
0.05105
0.095378
0.016927
-0.022937
-0.013051
-0.14253
-0.21524
-0.19674
-0.22066
-0.30071
-0.36768
-0.32239
-0.30932
-0.28923
-0.20631
-0.11574
-0.10585
-0.10203
-0.11478
-0.10171
-0.087995
-0.03091
0.03638
0.067952
0.09793
0.14098
0.1885
0.1295
0.16586
0.19934
0.11706
0.1311
0.15151
0.11132
0.082303
0.11962
0.087087
0.0095917
-0.012413
-0.0031647
0.1346
0.034467
0.03638
0.1295
0.12886
0.051369
0.058066
0.046904
0.055515
0.096016
0.081984
0.072736
0.0089539
0.0032135
0.07433
-0.041115
-0.12563
-0.1505
-0.19961
-0.096924
-0.16166
-0.15592
-0.15305
-0.14221
-0.18558
-0.13838
-0.10872
-0.14285
-0.10585
-0.020705
0.037018
-0.0050782
-0.022618
-0.081935
-0.092778
-0.068541
-0.01911
0.047542
-0.0063538
-0.06312
-0.055466
0.053282
0.011824
0.060617
0.07146
0.023305
-0.060569
-0.011456
0.094103
0.10877
0.11451
0.14736
0.20253
0.30777
0.35019
0.31957
0.30458
0.21146
0.2357
0.25164
0.17351
0.23474
0.27811
0.12344
0.15087
0.16681
0.069228
-0.028359
-0.076514
-0.12658
-0.20535
-0.12626
-0.1403
-0.1285
-0.12595
-0.11733
-0.10745
-0.14221
-0.20153
-0.18367
-0.19228
-0.18207
-0.1741
-0.21269
-0.24394
-0.17793
-0.16804
-0.19642
-0.1977
-0.16581
-0.16358
-0.075876
-0.11351
-0.12626
-0.1269
-0.086719
-0.092778
-0.095011
-0.051639
-0.070455
-0.0066727
0.014694
-0.00029452
0.040526
0.0057648
0.095378
0.13237
0.14768
0.2711
0.27461
0.22677
0.20445
0.20158
0.1598
0.30044
0.38272
0.3572
0.32531
0.1464
0.10431
0.055196
0.091233
0.042758
0.037656
-0.005716
0.010867
-0.082892
-0.052277
-0.078109
-0.13838
-0.14954
-0.090227
-0.10585
-0.13296
-0.085443
-0.014964
0.089638
0.038612
0.01023
-0.050363
-0.019429
0.0032135
-0.018153
0.034786
0.08039
-0.067585
-0.084806
0.028407
-0.033461
-0.042391
-0.069498
-0.061844
-0.045261
-0.057379
-0.075238
-0.098838
-0.069498
-0.061844
-0.044623
-0.082573
-0.0095429
0.043715
0.011505
-0.043666
0.015651
0.03064
-0.0053971
-0.085762
-0.0012513
0.047542
0.020435
0.011186
0.01597
-0.0047593
0.047542
0.038294
-0.05419
-0.023256
-0.061206
-0.062163
-0.075238
-0.12052
-0.10107
-0.061525
0.030002
-0.053871
-0.11893
-0.089908
-0.072049
-0.072049
0.030959
0.11324
0.08326
0.019478
0.015651
0.073693
0.060936
0.05392
0.036699
0.010548
-0.0028458
0.015651
-0.058655
-0.022937
-0.06599
-0.084806
-0.10522
-0.10522
-0.10713
-0.096286
-0.11319
-0.029315
-0.014645
-0.0012513
-0.018791
0.02777
0.038612
0.063169
0.012143
0.055515
0.11037
0.12759
0.039888
0.071141
0.1311
-0.033142
-0.036012
0.05679
0.01884
-0.0079484
-0.028678
-0.0038025
-0.073325
-0.066309
0.055515
0.20094
0.1059
0.022029
-0.047174
-0.080341
-0.1202
-0.072049
0.014375
-0.080979
-0.078109
-0.11383
-0.21109
-0.2044
-0.15369
-0.17665
-0.1674
-0.15528
-0.10777
-0.10681
-0.13966
-0.07779
-0.052277
-0.027083
0.034467
0.099524
-0.0012513
-0.040477
0.059342
0.092827
0.16076
0.073374
0.060298
0.10112
0.032872
0.024899
0.03925
0.068271
0.089638
0.083898
0.096654
0.061574
0.020116
0.033191
-0.040796
-0.038564
-0.04271
-0.011137
0.13843
0.13173
0.061574
0.052326
0.075287
0.073055
0.12567
0.20413
0.26791
0.20859
0.22071
0.21688
0.229
0.12727
-0.031867
-0.11351
-0.06599
0.18754
0.21784
0.17606
0.19201
0.068909
-0.010181
-0.050363
-0.052915
-0.010819
0.014694
-0.036331
-0.067266
-0.014645
-0.028678
-0.037288
-0.11989
-0.15273
-0.17059
-0.13615
-0.19228
-0.20185
-0.20408
-0.20472
-0.16358
-0.13711
-0.1049
-0.10235
-0.1167
-0.11319
-0.10936
-0.046536
0.07433
0.020116
-0.041115
-0.06312
-0.044304
0.035742
0.018202
0.039569
0.076563
0.10144
0.077201
0.089319
0.10495
0.097292
0.072417
-0.023894
0.025537
0.010548
-0.035056
-0.046218
-0.046536
-0.029953
-0.032823
-0.044942
0.0038513
0.016927
-0.011775
-0.0028458
0.021391
0.18404
0.2341
0.25228
0.17542
0.14258
0.21082
0.15629
0.13524
0.12153
0.16426
0.16458
0.096335
0.022986
0.069547
0.12153
0.11515
0.18372
0.054877
-0.022618
-0.079384
-0.086719
-0.027402
0.043396
-0.0069916
0.066995
0.018202
0.01023
-0.054509
-0.15784
-0.12626
-0.14891
-0.14221
-0.13264
-0.13328
-0.12276
-0.18749
-0.15624
-0.13551
-0.12658
-0.10107
-0.066947
-0.014645
-0.016559
-0.016559
0.11132
0.25866
0.21848
0.23123
0.14162
0.15884
0.23219
0.17064
0.21943
0.16745
0.042439
0.16012
0.11675
0.091552
-0.058017
-0.10107
-0.15114
-0.15656
-0.16964
-0.16358
-0.13169
-0.13583
-0.15528
-0.22417
-0.18494
-0.17123
-0.19068
-0.14954
-0.11989
-0.087357
-0.12212
-0.061206
0.061255
0.017883
-0.055785
-0.04271
-0.02804
0.0032135
0.089957
0.12663
0.079752
0.081984
0.026813
0.089319
0.093146
0.017246
0.013738
-0.021661
-0.055785
-0.025488
-0.019748
0.06859
0.05392
0.081984
0.056471
0.00098112
-0.10298
-0.065033
0.015651
0.070185
0.043077
0.01023
-0.058336
-0.15688
-0.064714
-0.0025269
-0.055147
-0.0089051
-0.037607
-0.087995
-0.10968
-0.035375
0.0032135
-0.0012513
-0.025807
0.015651
0.019797
0.059342
0.023624
0.031596
0.064444
0.022667
-0.023894
0.015332
-0.039839
0.013738
-0.010819
-0.0018891
-0.03665
-0.068222
-0.12882
-0.084487
-0.088633
-0.065671
-0.11191
-0.12722
-0.11925
-0.048131
-0.055466
-0.044623
0.07752
0.18404
0.15597
0.10239
0.11643
0.12567
0.12599
0.19169
0.17096
0.13652
0.078795
-0.099794
0.024262
0.10526
0.07146
-0.011137
-0.093416
-0.13774
-0.14093
-0.075238
-0.033142
-0.058017
-0.028996
0.02171
0.1413
0.03351
0.018521
-0.024213
-0.017197
0.0041702
0.01884
-0.11925
-0.072368
-0.015602
-0.016878
-0.0012513
-0.015602
-0.058017
-0.087995
-0.13328
-0.034099
-0.018472
-0.087995
-0.023575
0.17383
0.14194
0.06859
0.019159
-0.024213
0.02458
0.057109
0.046585
-0.0060349
0.099524
0.19296
0.11898
0.023943
-0.064077
-0.063439
-0.034099
-0.082892
-0.11191
-0.071093
-0.17219
-0.14189
-0.21556
-0.11064
-0.1926
-0.22608
-0.25447
-0.28157
-0.26786
-0.22959
-0.22481
-0.18462
-0.18494
-0.16262
-0.15784
-0.12499
-0.045261
0.014694
0.020754
0.02171
0.049774
0.041164
0.047542
0.080709
0.10112
0.10495
0.15278
0.15438
0.16076
0.25133
0.31734
0.26376
0.37538
0.32021
0.3065
0.16937
0.22868
0.21752
0.22167
0.20317
0.21369
0.13843
0.047542
0.016608
0.031278
0.042439
0.038294
0.16331
0.22549
0.10686
0.022986
0.023624
0.07433
0.16235
0.19169
0.19137
0.15438
0.1244
0.035423
-0.047493
0.028726
-0.03378
-0.10394
-0.17346
-0.22895
-0.27679
-0.29018
-0.32207
-0.26977
-0.056423
-0.0034836
-0.10968
-0.11638
-0.1403
-0.12754
-0.070774
-0.10075
-0.097562
-0.094054
-0.15784
-0.18335
-0.12882
-0.10394
-0.16358
-0.18112
-0.20312
-0.21141
-0.1926
-0.17761
-0.11351
-0.10011
0.051688
0.045629
-0.052596
-0.10617
-0.026126
0.098568
0.1767
0.11802
0.091233
0.047542
0.057109
0.044672
0.080709
0.088681
0.067314
0.051688
0.044034
0.081984
0.028088
0.093465
0.14258
0.11611
0.13301
0.23219
0.19839
0.23251
0.30745
0.30299
0.21688
0.26918
0.22964
0.22645
0.15788
0.067314
0.16968
0.094422
0.023305
-0.034737
-0.13711
-0.15911
-0.21747
-0.15305
-0.098519
-0.14349
-0.091184
-0.11606
-0.10681
-0.09533
-0.055785
-0.035694
-0.035056
-0.041115
0.0041702
-0.029634
-0.099794
0.092189
0.069866
-0.058974
-0.095649
-0.12595
-0.13679
-0.16485
-0.16613
-0.13966
-0.11159
-0.1167
-0.13328
-0.16039
-0.14954
-0.15752
-0.16964
-0.14572
-0.14125
-0.10235
-0.08066
-0.051958
-0.0076295
0.026813
0.15278
0.3234
0.3419
0.32053
0.24973
0.31383
0.20317
0.18212
0.37187
0.30554
0.2829
0.34668
0.28928
0.16331
0.076882
0.099843
0.10558
0.085492
0.037337
0.00098112
-0.011775
-0.043028
-0.086719
-0.04845
-0.031867
-0.10298
-0.13232
-0.14285
-0.11829
-0.15114
-0.21652
-0.24107
-0.17984
-0.17601
-0.18877
-0.040477
-0.026445
-0.043028
0.0022568
-0.00061343
0.018521
0.015013
0.076244
0.21593
0.23921
0.24176
0.15948
0.057428
0.12823
0.13269
0.1346
0.13397
0.20413
0.095697
-0.028996
0.084217
0.052645
-0.074919
-0.11989
-0.12882
-0.14285
-0.11255
-0.16485
-0.097562
-0.094054
-0.14189
-0.22449
-0.15018
-0.1387
-0.13743
-0.16772
-0.10681
-0.055147
-0.097881
-0.009224
-0.0085862
-0.027402
-0.050044
-0.07779
-0.051639
-0.067585
-0.038564
-0.051001
-0.07173
-0.058655
-0.0085862
0.0044891
-0.038883
-0.015921
0.0019378
-0.0031647
-0.011456
0.011186
-0.055466
-0.11478
-0.025488
-0.0082673
-0.01624
-0.022299
-0.021343
-0.035694
0.0076782
0.032234
0.10335
0.25228
0.23315
0.18467
0.13365
0.065401
0.050412
0.1531
0.2105
0.22135
0.11579
0.058066
0.016289
-0.098838
-0.12786
-0.15497
-0.1792
-0.15082
-0.15943
-0.21269
-0.18048
-0.13456
-0.12244
-0.12563
-0.1151
-0.10266
-0.056423
-0.14253
-0.0050782
-0.066947
0.17383
0.17798
0.22932
0.10399
0.037656
0.063806
0.09187
0.15374
0.17224
0.20923
0.14417
0.045629
0.029045
-0.0034836
-0.046218
-0.082892
-0.063758
-0.13519
-0.21269
-0.19898
-0.19483
-0.2213
-0.26244
-0.2197
-0.25415
-0.24809
-0.20886
-0.20599
-0.11733
-0.11159
-0.037607
0.070185
0.18754
0.22677
0.21656
0.14545
0.12472
0.090276
0.12918
0.19902
0.2424
0.13365
0.07752
0.076244
-0.06599
-0.12595
-0.12626
-0.1218
-0.20185
-0.22417
-0.20854
-0.23565
-0.2433
-0.22513
-0.19387
-0.16964
-0.15879
-0.12052
-0.090546
-0.049407
-0.11893
-0.06599
-0.043028
0.022348
-0.028996
0.070822
0.11388
0.051688
0.042439
0.054239
0.18276
0.19998
0.16968
0.18659
0.11292
0.044034
0.33839
0.24654
0.099524
-0.054828
-0.015921
-0.057379
0.055196
0.034148
0.0016189
0.01597
0.011505
-0.066947
-0.022937
-0.057379
-0.11765
-0.12307
-0.13902
-0.11223
-0.11925
-0.082892
-0.12212
-0.18813
-0.23437
-0.20503
-0.16294
-0.17984
-0.21907
-0.27137
-0.27966
-0.28285
-0.19355
-0.14221
-0.014964
0.017564
0.041164
0.046904
0.047223
0.1346
0.15055
0.18914
0.13811
0.096654
0.13556
0.28959
0.16745
0.11579
0.09506
0.026494
-0.03665
-0.098838
-0.11223
-0.1285
-0.11351
-0.18399
-0.2146
-0.22704
-0.20472
-0.20727
-0.21556
-0.15688
-0.14731
-0.11064
-0.0031647
0.18148
0.20572
0.16012
0.14162
0.10239
0.070822
0.13301
0.22135
0.18722
0.12121
-0.022618
0.10399
0.024262
0.072736
0.045629
-0.097562
-0.11829
-0.057698
0.020435
0.055515
0.14896
0.32053
0.46372
0.48891
0.31575
0.24176
0.17957
0.24112
0.30522
0.33616
0.23474
0.084217
0.10845
0.1413
-0.026445
-0.18462
-0.28285
-0.34376
-0.3849
-0.41583
-0.37278
-0.3208
-0.23119
-0.30996
-0.16772
-0.17123
-0.11287
0.008316
0.18595
0.10558
0.038612
0.14864
0.32499
0.25451
0.074968
-0.067903
-0.20248
0.15246
0.14896
-0.0076295
-0.057379
-0.14827
-0.20408
-0.25797
-0.26308
-0.29082
-0.34536
-0.31474
-0.3039
-0.28604
-0.30932
-0.20886
-0.21811
-0.18558
-0.1572
-0.12531
-0.11925
-0.18909
-0.14253
-0.059612
0.023943
-0.054828
-0.053234
-0.04271
0.034467
0.032553
0.051369
0.040845
0.054558
0.056471
0.15757
0.18244
0.094103
0.07752
0.02171
0.0044891
0.013419
0.10558
0.11866
0.10718
0.038612
-0.028996
0.048499
0.15151
0.27556
0.3336
0.17511
0.16012
0.12249
0.068271
0.17893
0.19871
0.16044
0.11515
0.13269
0.11037
0.029683
0.067314
0.093465
0.081028
0.018202
-0.091184
-0.12499
-0.11925
-0.042072
-0.046855
-0.027083
0.0032135
-0.030591
-0.089908
-0.084806
-0.082573
-0.069817
-0.053552
-0.075876
-0.079703
-0.16581
-0.16932
-0.18909
-0.18144
-0.16964
0.05392
0.24112
0.28959
0.2695
0.16618
0.096654
0.097292
0.098568
0.13588
0.18435
0.27205
0.22549
0.14577
0.11164
0.028088
0.0073593
-0.056742
-0.13998
-0.19802
-0.20535
-0.23533
-0.25702
-0.20121
-0.1741
-0.28699
-0.27647
-0.22513
-0.26754
-0.27743
-0.26116
-0.23948
-0.22162
-0.19738
-0.11638
0.034786
0.096016
0.11675
0.057747
0.037656
0.040845
0.10558
0.16618
0.17542
0.29884
0.30331
0.11738
0.096973
0.06572
0.054239
0.0060837
-0.035694
-0.078427
-0.15433
-0.1403
-0.19387
-0.15433
-0.15241
-0.18399
-0.16613
-0.14795
-0.11383
0.035104
0.044034
0.015332
-0.028678
0.0079971
0.099205
0.035742
0.036061
0.1547
0.15246
0.17351
0.12982
0.082622
0.10367
0.15214
0.059661
-0.061206
-0.021024
0.060617
0.025537
0.032234
0.11101
0.15342
0.16076
0.096973
0.040207
0.06859
0.070503
0.041802
-0.0063538
0.055834
0.093784
0.038294
0.040845
-0.065671
-0.094692
-0.11159
-0.13456
-0.16645
-0.22576
-0.16868
-0.052915
-0.10139
-0.12467
-0.097881
-0.056423
-0.022937
-0.094054
-0.12403
-0.082573
-0.11223
-0.026764
-0.056104
-0.14699
-0.13647
-0.20472
-0.23693
-0.1792
-0.18813
-0.21396
-0.24139
-0.24745
-0.27073
-0.23948
-0.20567
-0.19738
-0.15465
-0.031548
0.09793
0.034786
-0.032186
0.012462
0.031915
0.10845
0.23123
0.21146
0.17287
0.25228
0.39739
0.49146
0.40249
0.25228
0.19615
0.099524
0.06859
0.14258
0.1582
0.13716
0.091233
0.014056
-0.097243
-0.16294
-0.19834
-0.228
-0.25478
-0.26563
-0.24745
-0.2449
-0.21046
-0.20089
-0.09533
-0.11032
-0.0034836
0.01597
0.034148
0.19105
0.19488
0.19679
0.20636
0.32467
0.36326
0.3521
0.25037
0.28035
0.29757
0.26121
0.18978
0.12504
0.23538
0.087087
0.1177
0.16235
0.053282
-0.038245
-0.10298
-0.18654
-0.0038025
0.026175
-0.055147
-0.12244
-0.18239
-0.17187
-0.26244
-0.1521
-0.090227
-0.12276
-0.13774
-0.22066
-0.25415
-0.28157
-0.31251
-0.32239
-0.23278
-0.14444
-0.06599
-0.17538
-0.15975
-0.062482
-0.14125
-0.14923
-0.12722
-0.14285
-0.11128
-0.064077
0.044672
0.062531
0.048818
-0.031548
-0.02517
-0.012732
0.057747
0.23028
0.28417
0.27843
0.25292
0.23123
0.15852
0.13333
0.17351
0.18053
0.059023
0.050412
0.10782
0.074012
-0.005716
-0.022618
-0.018153
-0.11702
-0.16326
-0.13902
0.019797
0.11292
0.019478
0.037656
0.27365
0.37634
0.28959
0.28672
0.34221
0.27333
0.16554
0.059342
0.15948
0.1362
0.11611
0.09506
-0.027083
-0.18558
-0.30166
-0.32654
-0.38777
-0.42444
-0.4726
-0.37501
-0.29943
-0.26435
-0.16995
-0.085125
-0.15114
-0.11223
0.044672
0.10654
0.089957
-0.020705
0.0038513
0.13811
0.13524
0.1531
0.083898
0.034148
0.019159
0.0025757
-0.032186
0.015013
0.040845
-0.011456
-0.075876
-0.11128
-0.10904
-0.11255
-0.0066727
0.0019378
0.020435
0.090595
-0.05419
0.056471
0.014694
-0.084806
-0.14093
-0.058017
0.10973
0.11643
0.055515
-0.03665
0.029683
0.055196
0.32372
0.4229
0.29534
0.2577
0.16777
0.10558
0.14513
0.19902
0.086768
-0.046855
-0.013689
0.082622
0.087087
-0.077152
-0.191
-0.13551
-0.21843
-0.31825
-0.26116
-0.17697
-0.1521
-0.11574
-0.15305
-0.15592
-0.1049
-0.22927
-0.10809
-0.034737
-0.041753
-0.082892
-0.12467
-0.18781
-0.16326
-0.091184
-0.053552
-0.082573
-0.088633
-0.11159
-0.073644
0.0070404
0.095697
0.038931
0.044353
0.008316
0.024899
0.042439
0.095378
0.24112
0.2593
0.26727
0.18053
0.23283
0.36167
0.32818
0.22486
0.12089
0.18021
0.18404
0.12121
0.19552
0.22039
0.25962
0.068271
0.028407
-0.0073105
0.14736
0.064763
-0.01911
-0.10713
-0.0031647
0.032872
-0.08927
-0.10617
-0.16708
-0.21014
-0.23469
-0.19483
-0.23406
-0.31889
-0.36034
-0.37406
-0.31442
-0.34089
-0.34854
-0.35779
-0.31889
-0.28955
-0.30007
-0.24873
-0.085125
-0.06312
0.020116
0.17319
0.29119
0.31862
0.22486
0.17734
0.17925
0.20795
0.26376
0.28545
0.33201
0.34445
0.24909
0.11898
-0.029953
0.010548
-0.0034836
-0.084168
-0.24107
-0.20727
-0.17091
-0.19451
-0.18462
-0.10681
-0.19834
-0.15369
-0.11542
-0.14349
-0.16549
-0.20982
-0.15688
-0.13551
-0.10394
-0.10171
-0.09533
-0.058974
0.060617
0.11451
0.11324
0.13301
0.10495
0.11643
0.25611
0.27078
0.30618
0.28959
0.3065
0.26121
0.2577
0.19296
0.079752
0.093465
0.070822
-0.028996
-0.084168
-0.11064
-0.16453
-0.15752
-0.1033
-0.11893
-0.056104
0.052007
-0.029634
-0.073644
-0.097243
-0.06025
-0.059612
-0.019429
0.11292
0.15629
0.20604
0.070503
0.047542
0.0041702
-0.036331
-0.090546
-0.11765
-0.043347
-0.039839
-0.12403
-0.020386
0.035104
0.018202
-0.061206
-0.078427
-0.074282
-0.10617
-0.057061
-0.079065
-0.076195
-0.083849
0.017564
-0.014645
-0.077152
0.03351
0.061893
0.048499
-0.0025269
-0.048131
-0.019748
0.0057648
-0.034099
0.0076782
0.014375
0.028726
0.01023
0.010548
0.057428
0.0016189
-0.053871
-0.1438
-0.0982
-0.10522
-0.096605
-0.10522
-0.051639
-0.079065
0.022029
0.19169
0.14672
0.072098
0.035742
-0.025807
-0.032186
0.050731
0.063169
0.12791
0.014694
0.08326
0.046585
-0.059612
-0.10522
-0.11191
-0.057698
-0.074601
-0.016878
0.0028946
0.0019378
-0.021343
-0.042391
-0.0105
0.11069
0.19201
0.12823
0.10144
0.096335
0.17989
0.066358
0.049137
0.14864
0.13046
0.072736
-0.0069916
-0.036331
-0.072368
0.020754
0.064125
0.0044891
-0.06025
-0.14827
-0.19419
-0.11542
0.081346
0.055834
0.020435
-0.028996
-0.084487
-0.088314
-0.11096
-0.06025
-0.074919
-0.082573
-0.081617
0.023305
-0.026126
0.019159
0.040207
0.071779
0.069866
-0.046536
-0.065352
0.014375
0.066677
0.22741
0.23187
0.060617
0.022348
0.061574
0.064125
0.008635
-0.0012513
-0.026445
-0.082892
-0.14157
-0.17187
-0.14699
-0.22034
-0.2685
-0.28381
-0.29497
-0.28763
-0.2146
-0.11383
-0.038883
-0.084168
-0.1336
-0.097562
-0.094373
-0.054509
0.0079971
0.078157
0.16235
0.29565
0.16873
0.25707
0.27971
0.1783
0.1649
0.23219
0.14577
0.11611
0.010867
0.089319
0.1429
0.16107
0.065082
0.074649
0.015651
-0.032823
0.0060837
0.23761
0.2188
0.033191
0.029683
-0.036012
-0.037926
-0.051639
0.039569
0.15757
0.051688
-0.17282
-0.17378
-0.15273
-0.19961
-0.23087
-0.29752
-0.29178
-0.31665
-0.34727
-0.37406
-0.36608
-0.36162
-0.32782
-0.2382
-0.13711
-0.1859
-0.18271
-0.010819
-0.00093234
-0.025807
0.0025757
0.057109
0.11005
0.17224
0.29789
0.29023
0.13237
0.10558
0.17798
0.16777
0.1531
0.15884
0.16618
0.10239
-0.012413
0.014056
0.025856
-0.032823
-0.067266
-0.081935
-0.053552
-0.086719
-0.11797
-0.094054
2.4388e-05
0.067633
0.18053
0.33839
0.48509
0.34094
0.26376
0.18212
0.22486
0.23028
0.25547
0.30044
0.30809
0.17734
0.090914
0.05679
-0.026126
-0.15146
-0.29752
-0.3511
-0.41105
-0.37629
-0.31315
-0.32526
-0.37342
-0.3157
-0.29433
-0.27519
-0.23469
-0.2146
-0.14412
0.0054459
0.0035324
-0.01337
-0.015921
0.0079971
-0.013689
0.0057648
0.042758
0.026175
-0.017835
-0.065352
0.19201
0.19902
0.046585
-0.0085862
-0.0063538
0.011186
-0.029634
0.040526
0.046585
0.018521
0.058066
0.098568
0.080071
-0.0031647
0.0038513
0.0022568
0.12759
0.049137
-0.0095429
-0.032504
0.0035324
0.043715
0.040526
-0.015283
-0.035694
-0.069498
-0.14636
-0.17187
-0.058974
-0.056742
-0.05132
-0.078109
-0.13647
-0.027402
0.072098
0.19711
0.13173
0.0016189
-0.002208
-0.018472
0.0070404
0.055196
0.19137
0.15597
0.1059
0.12312
-0.043666
0.052007
0.083579
0.037656
-0.047493
0.034786
0.10654
0.048499
0.075287
0.067633
0.044991
0.053601
-0.014327
-0.04271
-0.026126
-0.0034836
0.0057648
-0.046855
-0.068541
-0.020067
0.061574
0.16044
0.053601
0.055834
0.05679
0.09506
0.081028
0.19934
0.18595
0.28162
0.16331
0.11706
0.14736
0.078795
0.062531
0.016608
-0.027083
-0.059293
-0.076514
-0.12563
-0.16836
-0.23852
-0.21588
-0.23756
-0.21747
-0.25032
-0.21428
-0.19228
-0.16645
-0.17729
-0.18526
-0.14349
-0.13487
-0.10266
-0.10585
-0.0089051
0.078476
0.093146
0.11132
0.19073
0.1952
0.22741
0.1767
0.099524
0.27556
0.2829
0.21019
0.21975
0.17638
0.12791
0.051369
0.036699
-0.0105
0.0003433
-0.0060349
-0.067903
-0.073006
-0.038564
0.0028946
0.073374
-0.023575
-0.088633
-0.090546
-0.10841
-0.058336
0.029045
0.041483
-0.044623
-0.11191
-0.089589
0.063806
-0.0085862
-0.042391
0.17255
0.034467
-0.070774
-0.085443
-0.059931
-0.035375
0.020116
0.047542
0.074968
-0.024851
0.18659
0.22613
0.19584
0.049455
-0.033142
-0.044304
0.0070404
-0.038883
0.011505
0.08326
0.0025757
-0.051001
-0.045261
-0.056104
-0.12658
-0.19579
-0.19611
-0.2146
-0.32526
-0.32207
-0.25574
-0.2567
-0.26563
-0.28125
-0.26467
-0.24649
-0.21875
-0.20567
-0.10043
0.031596
0.11356
0.092508
0.21975
0.25388
0.347
0.4567
0.54345
0.52718
0.33042
0.35083
0.42704
0.40632
0.32627
0.2695
0.21114
0.096973
-0.06599
-0.050682
-0.10203
-0.13424
-0.22417
-0.21014
-0.16772
-0.19196
-0.27296
-0.19898
-0.20982
-0.25478
-0.2315
-0.19196
-0.081298
-0.10458
-0.095011
-0.10394
-0.044304
-0.068541
-0.047812
0.023624
-0.052915
-0.083849
-0.066628
-0.018153
-0.011775
-0.034418
-0.083211
-0.017516
0.0019378
-0.072049
-0.08353
-0.083849
-0.037607
0.0003433
-0.06025
-0.10458
-0.11797
-0.005716
-0.046855
-0.073325
-0.066309
0.098886
0.18531
0.17511
0.23697
0.12982
0.08613
0.017246
-0.012732
0.012143
-0.017835
0.094741
0.088681
-0.012094
-0.13679
-0.15241
-0.14253
-0.1741
-0.169
-0.18335
-0.15018
0.084854
0.10271
0.13078
0.066995
0.05679
0.026175
0.10526
0.25196
0.21082
0.27524
0.2223
0.25547
0.16713
0.043715
0.03638
0.059661
0.022667
-0.060569
-0.090546
-0.13519
-0.1336
-0.067585
-0.11829
-0.094054
-0.087038
-0.13041
-0.17665
-0.17282
-0.1285
-0.13966
-0.11829
-0.16836
-0.18718
-0.16517
-0.2197
-0.23693
-0.23693
-0.18813
-0.19642
-0.20982
-0.1285
-0.14604
-0.12977
-0.12148
-0.13551
-0.11128
-0.061844
0.026175
-0.014645
0.11993
0.060936
0.018521
0.087087
0.14194
0.1547
0.17479
0.17925
0.20508
0.17064
0.11738
0.20987
0.1885
0.14385
0.2459
0.15342
0.070185
0.12472
0.39356
0.32914
0.16873
0.11706
0.059342
0.030002
-0.036969
0.042121
0.050093
0.096654
-0.025488
-0.091503
0.092508
0.069547
-0.081935
0.023943
0.062531
-0.04271
-0.038564
-0.031548
-0.098838
-0.096286
-0.11829
-0.060887
-0.026445
-0.080022
-0.12148
-0.22513
-0.30996
-0.34854
-0.36895
-0.29848
-0.066947
-0.12052
-0.18781
-0.22768
-0.19515
-0.19866
-0.15273
-0.081935
-0.04845
-0.11383
-0.028359
-0.038245
-0.063439
-0.10043
-0.12913
-0.11446
-0.13169
-0.10011
-0.055147
-0.022618
-0.058655
-0.079065
-0.078109
-0.082254
0.0092728
0.040207
0.041483
0.075925
0.043396
-0.038245
0.093465
0.096335
0.064444
0.028088
0.098249
0.10239
0.10845
0.17766
0.20955
0.20508
0.25802
0.32085
0.20094
0.16363
0.29948
0.29023
0.36071
0.29661
0.21561
0.19105
0.11324
0.037656
0.065401
0.032872
0.03351
-0.097562
-0.13615
-0.16804
-0.18941
-0.18781
-0.23087
-0.26276
-0.21141
-0.26658
-0.26212
-0.2331
-0.21269
-0.18367
-0.17474
0.0019378
-0.0095429
0.010867
0.0067215
0.0016189
-0.058974
0.020754
0.066358
0.14417
0.14864
0.1059
-0.0105
-0.014645
0.03064
-0.01337
-0.065033
-0.12116
-0.13806
-0.12052
-0.055147
-0.017197
-0.03952
-0.048769
-0.072687
-0.07779
-0.082892
-0.072049
-0.028996
0.0073593
-0.03665
-0.069817
-0.12913
0.19169
0.13971
0.15884
0.26631
0.16618
0.10686
0.091552
0.071779
0.11675
0.14098
0.10399
0.14832
0.11356
0.069547
0.069547
-0.053234
-0.12882
-0.15879
-0.026764
-0.01337
0.081984
0.04531
-0.023894
-0.13934
-0.061525
0.029045
0.073055
0.13269
0.1295
0.092827
0.12408
0.016289
-0.0098618
-0.0066727
-0.033142
-0.073006
-0.14954
-0.132
-0.13456
-0.11415
-0.12626
-0.1757
-0.19515
-0.068222
0.15565
0.039888
-0.055785
-0.060887
-0.11861
-0.14763
-0.091503
-0.07173
0.077838
0.058066
0.014694
-0.013689
-0.14285
-0.1387
-0.078746
-0.097243
-0.086081
-0.087357
-0.080341
-0.039202
0.014056
0.080071
0.19456
0.25994
0.15151
0.070503
0.062531
0.09187
0.20094
0.21752
0.21433
0.077838
0.11611
0.081346
0.094741
0.077201
0.078795
-0.019748
-0.12212
-0.17442
-0.14125
-0.097562
-0.037926
0.035423
0.010867
0.004808
-0.021024
-0.049088
-0.031867
-0.12148
-0.13551
-0.10203
-0.059931
-0.01337
-0.050044
-0.051639
-0.11797
-0.15879
-0.18718
-0.15146
-0.11191
-0.056104
0.072098
0.049774
-0.034099
-0.050363
-0.0060349
0.064125
0.16267
0.32882
0.32882
0.21242
0.11037
0.069866
0.11483
0.10877
0.12344
0.093784
0.063806
0.069228
0.042121
-0.066309
-0.058336
-0.050363
-0.11574
-0.13615
-0.15401
-0.13041
-0.21556
-0.17633
-0.1572
-0.081935
-0.11223
-0.085125
0.0057648
-0.016559
0.010548
-0.018153
-0.060887
-0.0012513
0.044034
0.03638
0.042121
0.03351
-0.00029452
0.041483
0.06859
0.051369
0.0044891
-0.088314
-0.083211
-0.039839
-0.042072
-0.026764
-0.03091
-0.058655
-0.017197
0.11037
0.13237
0.11898
0.084854
-0.034418
-0.10553
0.08326
0.24527
0.20221
0.27971
0.18595
0.066995
0.064763
0.060617
0.064125
0.069547
0.043715
0.18117
0.092827
0.022029
-0.0063538
-0.041115
-0.2044
-0.17984
-0.18399
-0.018472
-0.086081
-0.16868
-0.26945
-0.29369
-0.24235
-0.16039
-0.15784
-0.17155
-0.12626
-0.15784
-0.17633
-0.10745
0.016289
0.079752
0.058385
-0.02517
-0.017516
-0.019748
-0.028996
-0.045261
0.012781
0.048499
-0.005716
-0.083849
-0.027402
-0.10841
-0.11861
-0.12977
-0.11542
0.016289
0.0032135
-0.012094
0.2762
0.3049
0.17128
0.11228
0.10048
0.11037
0.17574
0.20285
0.28354
0.26089
0.11132
0.059342
0.039569
-0.038883
-0.11446
-0.11446
-0.03665
-0.09533
-0.089589
-0.14444
-0.11733
-0.16485
-0.16485
-0.098838
-0.10777
-0.079703
-0.0047593
0.015332
0.031596
0.029045
2.4388e-05
-0.05132
-0.059293
-0.0079484
0.0092728
0.0041702
-0.061844
-0.062482
-0.040477
-0.021024
0.0076782
0.095378
0.21784
0.15374
0.11132
0.095378
-0.013689
-0.069498
0.00066221
0.1177
0.19137
0.097611
-0.036969
-0.042391
-0.022618
0.14959
0.03925
-0.065033
0.058066
0.070185
-0.021343
0.059342
0.08039
0.0035324
-0.11638
0.03064
0.081665
-0.013051
-0.041434
-0.095649
-0.1202
-0.10809
-0.1202
-0.16103
-0.17187
-0.24777
-0.28221
-0.26276
-0.22385
-0.17251
-0.1572
-0.22162
-0.22449
-0.22162
-0.08927
-0.053871
-0.080022
-0.10458
-0.069498
-0.086081
0.038612
0.19392
0.24431
0.24048
0.23251
0.26536
0.24686
0.13173
0.10877
0.25994
0.25643
0.18244
0.08326
-0.0060349
0.033191
0.042439
-0.036331
-0.080022
-0.031229
-0.049088
-0.032823
-0.11319
-0.13169
-0.073963
-0.026445
-0.064395
-0.049088
-0.0038025
0.017246
0.018521
-0.035375
-0.073644
-0.12148
-0.13838
-0.11733
-0.12499
-0.12244
-0.039839
-0.050682
-0.047174
0.029683
-0.027721
-0.065671
0.063806
0.038612
0.044991
0.07146
-0.032504
-0.030272
-0.087995
0.017564
0.1464
0.10271
0.029045
-0.010819
-0.035375
-0.067266
-0.091822
-0.04845
-0.065033
-0.1033
-0.11128
-0.041115
0.0092728
-0.039839
-0.095968
-0.094692
-0.11415
-0.084487
-0.095968
-0.084168
-0.029634
0.078476
0.07752
0.12599
0.19137
0.22517
0.30395
0.23857
0.28832
0.29916
0.27716
0.20349
0.24144
0.24559
0.22964
-0.032823
-0.0085862
0.03064
-0.068541
-0.16804
-0.18749
-0.13615
-0.019748
-0.056104
-0.13519
-0.17346
-0.16166
-0.093416
-0.0028458
-0.013051
0.20062
0.24495
0.19966
0.054239
0.032872
0.0060837
0.0095917
-0.0012513
-0.061844
-0.080341
-0.085125
-0.16326
-0.16804
-0.06312
-0.0076295
-0.10553
-0.13551
-0.12595
-0.1859
-0.17346
-0.13998
-0.11159
-0.088952
-0.055466
-0.047812
-0.092141
-0.14349
-0.15401
-0.095011
-0.06312
-0.077471
-0.10968
-0.1403
-0.091184
-0.060569
-0.056104
-0.066309
-0.039202
-0.0095429
-0.030591
0.047223
0.039888
0.094103
0.11834
0.33042
0.26185
0.24622
0.23538
0.12791
0.10813
0.13843
0.15438
0.13875
0.099205
-0.010181
0.024262
-0.03665
-0.057379
-0.12244
-0.2028
-0.21779
-0.19547
-0.097243
-0.086719
-0.083211
-0.0050782
0.020754
0.060936
0.19169
0.1767
0.24527
0.25802
0.52049
0.77211
0.52367
0.34253
0.42832
0.41684
0.42864
0.32691
0.22517
-0.049407
0.13779
0.11419
0.12663
0.0054459
-0.18654
-0.32463
-0.44039
-0.47196
-0.39989
-0.39734
-0.39479
-0.37725
-0.34025
-0.35492
-0.30868
-0.25064
-0.2197
-0.16358
-0.19451
-0.21078
-0.22608
-0.14923
-0.12658
-0.10872
-0.1454
-0.15624
-0.14604
-0.16294
-0.11925
0.026494
-0.023894
0.080709
0.10303
0.03064
0.088362
0.16012
0.31989
0.32212
0.2813
0.229
0.21912
0.18531
0.12312
0.11962
0.14034
0.051369
-0.022299
-0.034099
-0.024851
-0.082892
-0.14572
-0.19196
-0.21109
-0.20695
-0.19866
-0.18207
-0.15241
0.10112
0.16139
0.10112
0.048818
0.094741
0.09793
0.10303
0.063169
0.15884
0.27652
0.28194
0.20413
0.12791
0.16107
0.03351
0.0095917
0.02171
0.10686
0.019478
-0.044942
-0.14636
-0.13902
0.18053
0.2542
0.24367
0.14481
0.06285
0.096335
0.17224
0.13875
0.15884
0.20763
0.13492
-0.030272
-0.041753
0.044034
0.03064
-0.053234
-0.15656
-0.23693
-0.27775
-0.21428
-0.24426
-0.28668
-0.28731
-0.2618
-0.29242
-0.2972
-0.22895
-0.22895
-0.19674
-0.16677
-0.17825
-0.056423
-0.084168
-0.080341
-0.029315
0.061893
0.16235
0.13173
0.13333
0.1295
0.14864
0.16841
0.3808
0.40791
0.31925
0.266
0.24718
0.21497
0.14704
0.14481
0.12536
0.070503
0.030002
0.11866
0.089638
0.065082
-0.037288
0.023943
0.041802
0.037337
-0.10968
-0.088633
-0.093735
-0.12084
-0.13009
-0.074919
-0.091503
-0.13105
-0.066309
0.055834
0.087087
0.072098
-0.057379
-0.10522
-0.10649
-0.067585
-0.067903
-0.030272
-0.044942
-0.10107
-0.084168
-0.078427
-0.11478
-0.15305
-0.19419
-0.23661
-0.15305
-0.074282
-0.11064
-0.15018
-0.17825
-0.16772
-0.14795
-0.091503
0.061255
0.074012
-0.036012
-0.0041214
-0.071093
-0.068222
-0.012732
0.073693
0.10718
0.073374
0.01023
-0.0073105
0.0131
0.065401
0.15629
0.27014
0.21752
0.17479
0.039888
0.0070404
2.4388e-05
0.075606
0.13716
0.070503
0.07433
0.0019378
-0.01911
-0.096286
-0.093416
-0.067266
-0.069817
-0.081935
-0.0044404
0.054239
0.22422
0.32914
0.22741
0.13301
0.11579
0.19647
0.25005
0.13014
0.19839
0.17383
0.18627
0.19871
0.24941
0.16554
0.039888
-0.17984
-0.22417
-0.23214
-0.20822
-0.20599
-0.32367
-0.26467
-0.2567
-0.30677
-0.34248
-0.33069
-0.3208
-0.3377
-0.35365
-0.31633
-0.23342
-0.13934
-0.10553
-0.13009
-0.13838
-0.17825
-0.17761
-0.11893
-0.046536
-0.0015702
0.023624
-0.035694
-0.086719
-0.025807
0.046585
0.023943
-0.0105
2.4388e-05
0.09506
0.21433
0.35433
0.33265
0.29406
0.21369
0.17319
0.10048
0.17893
0.19966
0.30841
0.22167
0.11993
0.09506
-0.04558
-0.056104
0.13716
0.229
0.043077
-0.056104
-0.12116
-0.048769
-0.061525
-0.059612
-0.017835
0.034148
-0.054509
-0.005716
-0.09533
-0.10585
-0.13519
-0.06312
-0.14412
-0.11319
-0.05132
-0.058974
-0.10266
-0.16517
-0.087357
-0.038564
0.038612
0.026175
0.081028
0.27492
0.20987
0.13524
0.091552
0.060936
-0.043985
-0.017516
-0.0098618
-0.047493
0.0022568
-0.095011
-0.081617
-0.10617
-0.19483
-0.17825
-0.26308
-0.34089
-0.26244
-0.24968
-0.24809
-0.22576
-0.22257
-0.26371
-0.23469
-0.18144
-0.039839
0.047542
0.10622
0.13205
0.074649
0.026494
0.0067215
0.18435
0.24877
0.19839
0.15533
0.13173
0.12408
0.14449
0.14959
0.1818
0.16681
0.068271
0.022667
-0.037607
-0.078746
-0.11415
-0.15497
-0.10266
-0.039202
-0.052915
-0.087995
-0.15752
-0.15114
-0.12882
-0.036012
-0.057698
0.03925
0.16873
0.10558
0.092189
0.15533
0.1582
0.15214
0.2341
0.22805
0.38463
0.41716
0.24303
0.10271
0.10048
0.016289
0.084217
-0.055466
-0.11989
-0.18207
-0.13073
-0.21556
-0.16772
-0.14795
-0.15497
-0.19005
-0.25032
-0.19993
-0.16007
-0.15624
-0.048131
0.012781
0.0032135
-0.084806
-0.03091
-0.026126
-0.069498
-0.019429
-0.039839
-0.089589
-0.20248
-0.03665
0.0032135
-0.065033
-0.094373
-0.061844
-0.083849
-0.094373
-0.10011
-0.094692
0.0032135
0.14864
0.16012
0.15693
0.10845
0.10399
0.063487
0.10048
0.11228
0.12695
0.051369
0.10877
0.12599
0.1649
0.13524
0.044991
-0.023575
-0.062163
-0.097562
-0.063758
-0.062482
-0.053234
-0.066309
-0.027083
-0.034099
-0.044623
-0.0073105
0.10112
0.10877
0.03925
0.018202
0.058704
0.067314
0.073374
0.07146
0.081665
0.070185
0.23825
0.22613
0.10622
0.081665
0.16713
0.20572
0.17989
0.098568
0.039888
0.0016189
-0.027402
-0.10235
-0.04558
0.050412
-0.017197
-0.19547
-0.169
-0.090865
-0.18558
-0.17282
-0.12595
-0.1556
-0.14763
-0.1336
-0.11064
-0.12371
-0.044623
0.017564
-0.10043
-0.029953
-0.12754
-0.084806
0.064125
0.09187
0.19839
0.076563
-0.045899
-0.020386
-0.0015702
-0.011775
0.0003433
-0.023256
0.02458
0.012143
-0.064077
-0.071411
-0.12307
-0.19355
-0.27073
-0.28795
-0.28699
-0.29082
-0.28094
-0.26818
-0.22066
-0.11351
-0.06312
0.10686
0.13684
0.14449
0.18946
0.2695
0.31606
0.26249
0.18882
0.14449
0.21338
0.21975
0.18212
0.13684
0.10909
0.10622
0.05679
-0.10043
-0.14827
-0.20503
-0.21396
-0.23852
-0.21875
-0.15656
-0.17633
-0.16549
-0.21333
-0.16421
-0.043985
-0.014327
-0.085762
-0.058017
-0.029315
0.03351
0.081665
0.16905
0.22932
0.2711
0.27971
0.26504
0.22964
0.28577
0.2172
0.24144
0.41748
0.20891
0.16841
0.067952
0.033829
0.036061
-0.028996
-0.05132
-0.082573
0.018202
0.0044891
-0.0864
-0.16613
-0.20503
-0.14189
-0.21588
-0.16708
-0.14444
-0.14636
-0.24267
-0.21428
-0.17601
-0.1792
-0.0982
-0.13966
-0.15082
-0.14923
-0.12595
-0.13806
-0.13264
-0.08353
-0.057698
-0.071411
-0.063439
-0.013051
0.15151
0.073374
0.064125
0.11132
0.066677
0.038294
0.031915
0.0076782
0.023943
-0.0038025
0.093784
0.053601
0.0092728
-0.05132
-0.06886
-0.051001
0.0032135
-0.044304
0.023305
0.022986
-0.028678
-0.0015702
0.07146
0.055196
0.011186
0.10686
0.12121
0.15597
0.1008
0.13939
0.14672
0.14353
0.2239
0.21338
0.12855
0.0003433
0.0131
-0.0034836
0.019478
0.075287
0.10112
0.04818
-0.024213
-0.11574
-0.07173
-0.041115
-0.002208
-0.10649
-0.15018
-0.13998
-0.12913
-0.19292
-0.21237
-0.078109
-0.032823
-0.078427
-0.087676
-0.096605
-0.009224
0.13811
0.1665
0.10782
0.12823
0.15565
0.28417
0.3993
0.36518
0.30235
0.21401
0.21369
0.22103
0.30108
0.24271
0.028407
-0.053871
0.0067215
-0.021661
-0.16071
-0.22321
-0.28094
-0.27934
-0.31761
-0.34121
-0.37852
-0.31506
-0.28699
-0.31825
-0.32941
-0.26595
-0.2398
-0.18526
-0.14795
-0.11957
-0.10649
-0.14125
-0.12212
0.0016189
0.095378
0.20955
0.12791
0.064444
0.011186
0.0003433
0.074968
0.069228
0.066358
0.033191
0.069228
0.0041702
-0.028996
0.012462
-0.014964
-0.015602
-0.03952
-0.027721
-0.009224
0.037018
0.11005
0.16905
0.19073
0.12025
0.2121
0.26759
0.29565
0.18659
0.21433
0.27142
0.088044
0.11643
0.23219
0.38782
0.26918
0.15374
0.075606
-0.046536
-0.069817
-0.026126
0.032553
0.008316
-0.17187
-0.14412
-0.010181
0.021072
-0.13998
-0.2028
-0.24586
-0.19579
-0.20727
-0.18813
-0.2382
-0.2516
-0.24554
-0.11446
-0.12052
-0.096605
-0.08927
-0.054509
-0.077152
-0.12116
-0.079703
-0.04271
0.0044891
-0.038883
0.044034
0.037337
0.035423
0.049137
0.063806
0.059661
0.088681
0.050731
0.027451
0.013419
0.027451
0.046266
-0.0012513
0.040207
-0.0044404
-0.11478
-0.043985
-0.093416
-0.13169
-0.1336
-0.13456
-0.16294
-0.14891
-0.13073
-0.08927
-0.018791
-0.012413
-0.05132
-0.050044
-0.051001
-0.061525
0.0070404
0.00098112
0.0032135
0.066995
0.13492
0.1582
0.12855
0.22709
0.2188
0.2003
0.14066
0.22007
0.32404
0.31511
0.24622
0.20859
0.22773
0.21242
0.25037
0.27174
0.23538
0.25962
0.2695
0.12823
0.01023
-0.087995
-0.074282
-0.038883
-0.021661
-0.058336
-0.088314
-0.073325
-0.16198
-0.27966
-0.29816
-0.31028
-0.31346
-0.32271
-0.30709
-0.30007
-0.26371
-0.22895
-0.12212
-0.11255
-0.13743
-0.11893
-0.10936
-0.033142
-0.052596
-0.041434
-0.020067
-0.072368
-0.11638
-0.077471
-0.049088
-0.097562
-0.16836
-0.18399
-0.18654
-0.19068
-0.14891
-0.11064
-0.13328
-0.11574
-0.012094
0.15246
0.25611
0.27716
0.2695
0.3049
0.35529
0.28098
0.3336
0.32053
0.34445
0.18053
0.17479
0.21912
0.26376
0.14226
-0.0089051
-0.10075
-0.14954
-0.18399
-0.19579
-0.19579
-0.14891
-0.14253
-0.10522
-0.10075
-0.014964
-0.071093
-0.058017
-0.044304
0.047861
0.087406
-0.066628
0.02458
0.1177
0.1311
0.14991
0.087087
0.18499
0.33329
0.15342
0.069866
0.051688
0.034467
0.10686
0.04531
0.092508
0.13971
0.040526
0.075925
-0.017835
-0.078427
-0.15911
-0.19387
-0.21365
-0.20759
-0.23629
-0.27488
-0.28412
-0.26244
-0.21843
-0.24968
-0.22991
-0.22385
-0.23852
-0.22066
-0.18207
-0.10745
-0.026764
-0.029953
-0.010181
0.046585
0.0013
0.030959
0.048818
0.11228
0.19009
0.099205
0.10973
0.14896
0.089638
0.023305
0.015013
-0.038564
-0.048769
-0.083211
-0.033142
-0.041115
-0.052915
-0.035694
0.03638
0.14066
0.17925
0.15214
0.13716
0.07146
0.07752
0.23634
0.29055
0.34987
0.21465
0.19584
0.11738
0.12663
0.10431
0.14353
0.1008
0.059661
0.050731
0.054877
-0.012413
-0.064395
-0.057379
0.022667
-0.023894
-0.0012513
-0.014964
0.12312
0.12695
0.093146
0.083579
-0.028359
-0.058336
-0.043666
-0.074282
-0.084168
-0.065671
-0.037926
-0.11989
-0.11223
-0.15241
-0.15305
-0.17665
-0.20408
-0.25
-0.25765
-0.2433
-0.27073
-0.26308
-0.22289
-0.087995
-0.050044
-0.060569
0.057747
0.081028
