-0.0583
-0.0612
-0.066
-0.0743
-0.0765
-0.0756
-0.0708
-0.06569999999999999
-0.0727
-0.1023
-0.1116
-0.1039
-0.0956
-0.095
-0.09719999999999999
-0.1008
-0.1119
-0.1119
-0.1129
-0.1199
-0.1282
-0.1288
-0.1221
-0.1116
-0.1062
-0.1208
-0.1422
-0.1492
-0.1377
-0.1298
-0.1275
-0.1247
-0.1317
-0.1406
-0.1339
-0.1355
-0.1403
-0.1416
-0.1403
-0.1317
-0.1192
-0.1122
-0.1346
-0.1467
-0.1409
-0.1275
-0.118
-0.111
-0.1119
-0.1234
-0.1253
-0.1192
-0.1183
-0.1224
-0.1212
-0.1135
-0.1017
-0.08989999999999999
-0.08989999999999999
-0.1135
-0.1212
-0.111
-0.0992
-0.0905
-0.0877
-0.08699999999999999
-0.09089999999999999
-0.0864
-0.0848
-0.0893
-0.0956
-0.09089999999999999
-0.0765
-0.0603
-0.0494
-0.06279999999999999
-0.08
-0.08160000000000001
-0.0701
-0.0625
-0.058
-0.0532
-0.0532
-0.0593
-0.0536
-0.0552
-0.0634
-0.0654
-0.0574
-0.0491
-0.0395
-0.0322
-0.0545
-0.07049999999999999
-0.06850000000000001
-0.0504
-0.0408
-0.0373
-0.0351
-0.0427
-0.0469
-0.0411
-0.0373
-0.0411
-0.0449
-0.0402
-0.0284
-0.0127
-0.0127
-0.0392
-0.044
-0.0347
-0.0239
-0.0134
-0.0159
-0.0223
-0.0296
-0.0249
-0.0242
-0.0293
-0.0341
-0.03
-0.0223
-0.0121
-0.0032
-0.014
-0.0373
-0.0398
-0.0261
-0.0201
-0.0185
-0.0198
-0.0207
-0.0271
-0.0207
-0.0229
-0.029
-0.0322
-0.0306
-0.0242
-0.0121
-0.0076
-0.0316
-0.0456
-0.0424
-0.0277
-0.0201
-0.0162
-0.0153
-0.0233
-0.0293
-0.0261
-0.0242
-0.0277
-0.0274
-0.0217
-0.0175
-0.0092
-0.009900000000000001
-0.0328
-0.0382
-0.0309
-0.0242
-0.0153
-0.0131
-0.0147
-0.0261
-0.0242
-0.0223
-0.0287
-0.0376
-0.0328
-0.0229
-0.0124
-0.0051
-0.0169
-0.0363
-0.0437
-0.0335
-0.022
-0.0172
-0.0175
-0.0245
-0.0316
-0.0236
-0.0296
-0.0344
-0.0338
-0.0287
-0.022
-0.0131
-0.007
-0.0268
-0.0398
-0.0402
-0.028
-0.0185
-0.0166
-0.0108
-0.0188
-0.0252
-0.0245
-0.0236
-0.0309
-0.0306
-0.0217
-0.0115
-0.0035
-0.009900000000000001
-0.0351
-0.0398
-0.0303
-0.0191
-0.015
-0.0118
-0.0134
-0.0261
-0.022
-0.014
-0.0185
-0.0268
-0.0296
-0.0213
-0.0089
0.0045
-0.0041
-0.0335
-0.0382
-0.0242
-0.0131
-0.0067
-0.0083
-0.015
-0.0284
-0.0233
-0.0213
-0.0252
-0.0277
-0.0258
-0.0188
-0.0108
-0.0029
-0.0201
-0.0322
-0.0319
-0.0198
-0.0134
-0.0115
-0.0076
-0.0172
-0.022
-0.0169
-0.0178
-0.0252
-0.0242
-0.0198
-0.0111
-0.0016
-0.0035
-0.0322
-0.0405
-0.0312
-0.0185
-0.0089
-0.0086
-0.009900000000000001
-0.0217
-0.0201
-0.0178
-0.021
-0.0239
-0.021
-0.0121
-0.0029
0.0045
-0.0038
-0.0229
-0.0258
-0.014
-0.0057
0.0019
0.0035
-0.0035
-0.0108
-0.0022
-0.0035
-0.0041
-0.0041
-0.0022
0.0051
0.0182
0.0239
0.0061
-0.0089
-0.0102
0.0019
0.014
0.0201
0.0198
0.0058
-0.0022
0.0054
0.0067
0.001
0.001
0.0064
0.0153
0.0243
0.0255
0.0013
-0.0029
0.0061
0.0166
0.0217
0.0236
0.0278
0.022
0.0281
0.0322
0.0306
0.0271
0.0281
0.0357
0.0488
0.0638
0.0587
0.0399
0.0386
0.0479
0.0539
0.0555
0.0577
0.059
0.051
0.051
0.0447
0.0309
0.0239
0.0246
0.0287
0.0268
0.0255
0.0048
-0.0166
-0.0233
-0.0156
-0.0153
-0.0201
-0.0207
-0.03
-0.0414
-0.0414
-0.044
-0.0539
-0.0542
-0.0513
-0.0497
-0.0398
-0.0357
-0.0615
-0.0736
-0.06759999999999999
-0.0567
-0.0494
-0.0449
-0.0449
-0.0539
-0.0545
-0.0561
-0.059
-0.0612
-0.0571
-0.0494
-0.0379
-0.0265
-0.0344
-0.0567
-0.0618
-0.0513
-0.0408
-0.0322
-0.0303
-0.0351
-0.0472
-0.0395
-0.0367
-0.0395
-0.0449
-0.0443
-0.0363
-0.022
-0.015
-0.0309
-0.0504
-0.05
-0.0322
-0.0277
-0.0284
-0.0255
-0.0306
-0.0354
-0.0268
-0.0274
-0.037
-0.0382
-0.0312
-0.0226
-0.0095
-0.0064
-0.0344
-0.0402
-0.0303
-0.0172
-0.0057
-0.0019
-0.0041
-0.0194
-0.022
-0.0185
-0.0182
-0.0201
-0.0182
-0.007
0.0013
0.0109
0.0102
-0.007
-0.0035
0.016
0.0313
0.0456
0.0673
0.0912
0.1059
0.1257
0.1429
0.1646
0.1907
0.2188
0.2484
0.2845
0.3116
0.3106
0.3007
0.2995
0.3179
0.3157
0.2963
0.2787
0.2392
0.1847
0.14
0.0896
0.0294
-0.0331
-0.09719999999999999
-0.1575
-0.2162
-0.2803
-0.3619
-0.4241
-0.4652
-0.5016
-0.5341
-0.5625
-0.5842000000000001
-0.6046
-0.6094000000000001
-0.6046
-0.6027
-0.5944
-0.5659999999999999
-0.536
-0.5083
-0.4697
-0.4436
-0.4369
-0.4139
-0.3709
-0.3265
-0.2883
-0.2532
-0.2216
-0.205
-0.1725
-0.1464
-0.124
-0.1011
-0.073
-0.044
-0.0131
0.0166
0.0172
0.0153
0.0284
0.0552
0.06950000000000001
0.082
0.09569999999999999
0.0989
0.0944
0.1056
0.11
0.1065
0.1059
0.1113
0.1218
0.1349
0.1416
0.1196
0.1132
0.119
0.1304
0.1381
0.1397
0.1378
0.1317
0.1317
0.1343
0.1352
0.1266
0.1247
0.1288
0.1394
0.1496
0.1435
0.118
0.1104
0.1202
0.1295
0.1327
0.1333
0.1311
0.1193
0.1202
0.1218
0.1142
0.1081
0.1116
0.1151
0.1202
0.1279
0.1097
0.0906
0.08799999999999999
0.0954
0.103
0.1043
0.1043
0.0989
0.0864
0.0906
0.08550000000000001
0.0785
0.0772
0.082
0.0944
0.09950000000000001
0.0973
0.074
0.0644
0.0679
0.0769
0.0829
0.0832
0.08550000000000001
0.0756
0.07140000000000001
0.07049999999999999
0.0641
0.0584
0.0584
0.0619
0.073
0.0877
0.0794
0.051
0.044
0.0552
0.06510000000000001
0.0708
0.07530000000000001
0.0775
0.0622
0.0574
0.0536
0.0565
0.0565
0.0561
0.0549
0.0644
0.073
0.0577
0.0345
0.0329
0.0421
0.0482
0.0514
0.0523
0.0456
0.0383
0.0456
0.0453
0.0383
0.0376
0.0431
0.052
0.0654
0.06950000000000001
0.0447
0.0357
0.0392
0.0542
0.06320000000000001
0.06569999999999999
0.07049999999999999
0.0606
0.0558
0.0574
0.0603
0.0561
0.0584
0.0663
0.0781
0.0871
0.082
0.0561
0.0485
0.0616
0.0791
0.08359999999999999
0.08069999999999999
0.0801
0.06859999999999999
0.0721
0.0756
0.0743
0.0711
0.0746
0.0791
0.0893
0.1005
0.09089999999999999
0.07240000000000001
0.0683
0.0823
0.0896
0.095
0.103
0.0998
0.0906
0.0941
0.0922
0.0896
0.0906
0.09470000000000001
0.1043
0.1129
0.1186
0.0963
0.08169999999999999
0.0842
0.097
0.103
0.1059
0.1068
0.0944
0.09089999999999999
0.0963
0.09569999999999999
0.0842
0.0788
0.08260000000000001
0.0925
0.1027
0.0992
0.0699
0.0622
0.0699
0.0781
0.081
0.0788
0.07530000000000001
0.0596
0.0625
0.0609
0.0577
0.0539
0.0517
0.0574
0.0644
0.07049999999999999
0.0565
0.0373
0.0335
0.0351
0.0408
0.0491
0.0507
0.0392
0.0195
0.0201
0.0188
0.0112
0.0058
0.0042
0.0061
0.0089
0.0077
-0.0172
-0.0347
-0.0389
-0.03
-0.0277
-0.0331
-0.0373
-0.0507
-0.0593
-0.0583
-0.0625
-0.0733
-0.08069999999999999
-0.0791
-0.0759
-0.0701
-0.0756
-0.1017
-0.1126
-0.1084
-0.1001
-0.09760000000000001
-0.0988
-0.102
-0.1157
-0.1148
-0.1177
-0.1253
-0.1323
-0.1304
-0.1256
-0.1167
-0.1094
-0.1221
-0.1438
-0.1537
-0.1464
-0.1336
-0.1288
-0.1288
-0.1377
-0.1451
-0.1403
-0.1374
-0.1416
-0.146
-0.1451
-0.1355
-0.1221
-0.1132
-0.1355
-0.1467
-0.1425
-0.1275
-0.1215
-0.1205
-0.117
-0.1218
-0.124
-0.1186
-0.1177
-0.1243
-0.1243
-0.1141
-0.0985
-0.0851
-0.0883
-0.1154
-0.1215
-0.109
-0.0925
-0.08160000000000001
-0.0781
-0.0784
-0.0877
-0.0858
-0.0842
-0.0813
-0.07969999999999999
-0.07870000000000001
-0.07240000000000001
-0.06469999999999999
-0.0526
-0.0612
-0.0803
-0.08160000000000001
-0.06660000000000001
-0.0564
-0.0529
-0.0478
-0.0507
-0.0596
-0.052
-0.0497
-0.0507
-0.0532
-0.0488
-0.0382
-0.0274
-0.0194
-0.0395
-0.0529
-0.0507
-0.0373
-0.0265
-0.0236
-0.0194
-0.0261
-0.028
-0.0287
-0.0293
-0.0306
-0.028
-0.021
-0.0108
-0.0005999999999999999
-0.0032
-0.0287
-0.0331
-0.022
-0.0102
-0.0051
-0.0076
-0.0086
-0.0153
-0.0162
-0.0182
-0.0204
-0.0233
-0.0207
-0.0153
-0.0089
0.0007
-0.0089
-0.0341
-0.0351
-0.0242
-0.0153
-0.0115
-0.009900000000000001
-0.0162
-0.0239
-0.0172
-0.0188
-0.0245
-0.0265
-0.022
-0.0153
-0.0083
-0.0032
-0.0233
-0.0341
-0.0325
-0.0198
-0.008
-0.0041
-0.0035
-0.0115
-0.015
-0.0172
-0.0194
-0.0239
-0.0147
-0.0064
-0.0013
0.0054
0.0067
-0.0194
-0.0274
-0.0169
-0.0048
0.0003
0
0.001
-0.0076
-0.0064
-0.0054
-0.0054
-0.0086
-0.0095
-0.0057
0.0026
0.0125
0.0029
-0.0182
-0.0242
-0.0124
-0.0035
-0.0025
-0.0022
-0.006
-0.0156
-0.0095
-0.0089
-0.0156
-0.0198
-0.0201
-0.0134
-0.0016
0.007
-0.014
-0.0303
-0.03
-0.0169
-0.0108
-0.0102
-0.007
-0.0153
-0.022
-0.0185
-0.0182
-0.0226
-0.0245
-0.0252
-0.0175
-0.0025
0.0016
-0.0255
-0.0335
-0.0271
-0.0159
-0.009900000000000001
-0.0083
-0.0054
-0.0147
-0.0134
-0.0111
-0.0201
-0.0277
-0.0207
-0.007
0.0074
0.0137
0.0064
-0.0153
-0.0239
-0.0124
-0.0051
0.0048
0.0109
0.009599999999999999
-0.0064
-0.006
-0.0051
-0.0108
-0.0127
-0.0118
-0.0067
0.0019
0.009599999999999999
-0.015
-0.0328
-0.0319
-0.0178
-0.0086
-0.0057
-0.0064
-0.0166
-0.0188
-0.014
-0.0172
-0.0213
-0.0198
-0.0124
-0.0032
0.007
0.0074
-0.0178
-0.0245
-0.0156
-0.0025
0.0064
0.0067
0.0083
-0.0019
0.0019
0.0038
0.0029
-0.0005999999999999999
0.0022
0.0074
0.0172
0.0278
0.0223
-0.0048
-0.0095
0.007
0.0198
0.0227
0.0204
0.0153
0.008
0.0137
0.0109
0.0061
0.0058
0.0083
0.0166
0.0246
0.0322
0.0153
-0.0025
-0.0032
0.0125
0.0211
0.0243
0.0284
0.0236
0.0176
0.023
0.0233
0.0217
0.0246
0.0268
0.0373
0.0514
0.0587
0.0341
0.0268
0.0348
0.0479
0.0539
0.0552
0.059
0.053
0.0488
0.0533
0.0545
0.0469
0.0469
0.0542
0.0616
0.0718
0.0648
0.0389
0.0249
0.0319
0.0405
0.0447
0.0354
0.0217
0.0112
0.0128
0.0045
-0.0089
-0.0175
-0.0191
-0.0182
-0.0178
-0.0169
-0.0376
-0.0542
-0.0567
-0.0475
-0.043
-0.0421
-0.0405
-0.0475
-0.0548
-0.0507
-0.0523
-0.0587
-0.059
-0.0507
-0.0408
-0.0306
-0.029
-0.0555
-0.0625
-0.0548
-0.0408
-0.0316
-0.03
-0.0296
-0.0389
-0.0363
-0.0338
-0.0322
-0.0379
-0.0386
-0.0309
-0.0191
-0.0073
-0.0115
-0.0379
-0.0446
-0.0347
-0.0258
-0.0182
-0.0178
-0.0188
-0.028
-0.0236
-0.0277
-0.0316
-0.0357
-0.0354
-0.0258
-0.0108
-0.0038
-0.0233
-0.0386
-0.0373
-0.0258
-0.0166
-0.0105
-0.0067
-0.0124
-0.0198
-0.0166
-0.0153
-0.0147
-0.0147
-0.0092
-0.0013
0.0035
0.0083
-0.0191
-0.0312
-0.0252
-0.0134
-0.0064
0.0016
0.0067
-0.0005999999999999999
0.0026
0.0077
0.014
0.0233
0.0421
0.06569999999999999
0.0935
0.1247
0.1365
0.1317
0.1499
0.1914
0.2287
0.2602
0.2838
0.2998
0.3023
0.3128
0.316
0.3093
0.2902
0.2739
0.2641
0.244
0.2098
0.1438
0.0702
0.0089
-0.0309
-0.09089999999999999
-0.1607
-0.2168
-0.2835
-0.3511
-0.398
-0.4445
-0.4923
-0.5296999999999999
-0.5606
-0.5753
-0.5765
-0.5759
-0.5982
-0.602
-0.5871
-0.5574
-0.529
-0.5092
-0.4879
-0.4681
-0.4356
-0.4005
-0.3712
-0.3457
-0.3144
-0.2723
-0.2305
-0.1932
-0.1671
-0.1658
-0.1451
-0.1052
-0.066
-0.0363
-0.0131
0.0038
0.0102
0.0297
0.044
0.0558
0.0689
0.08260000000000001
0.097
0.1119
0.1285
0.1212
0.1081
0.1104
0.1282
0.1365
0.1371
0.1467
0.1435
0.1349
0.1429
0.1403
0.1343
0.132
0.1365
0.1445
0.155
0.1582
0.1336
0.1212
0.1257
0.1391
0.1426
0.1426
0.1438
0.1311
0.1263
0.1301
0.1295
0.1215
0.1186
0.1196
0.1269
0.1365
0.1314
0.1037
0.0935
0.1033
0.1135
0.1158
0.1151
0.1135
0.1005
0.1017
0.1046
0.0982
0.09089999999999999
0.08989999999999999
0.0979
0.1078
0.1129
0.0973
0.0769
0.0699
0.08260000000000001
0.0922
0.09470000000000001
0.0922
0.0839
0.0766
0.082
0.0775
0.0699
0.0654
0.0654
0.07340000000000001
0.0877
0.0919
0.0619
0.0482
0.0488
0.0622
0.0718
0.0727
0.07240000000000001
0.059
0.0549
0.0574
0.0561
0.052
0.0533
0.0584
0.06569999999999999
0.0759
0.0743
0.0514
0.0424
0.0459
0.0584
0.0689
0.07049999999999999
0.0663
0.0517
0.0498
0.0526
0.053
0.051
0.0504
0.0549
0.0648
0.07240000000000001
0.06
0.037
0.0335
0.0507
0.0619
0.0625
0.06320000000000001
0.0596
0.0555
0.0612
0.0596
0.053
0.052
0.0584
0.0673
0.0788
0.08550000000000001
0.06320000000000001
0.0514
0.0533
0.06279999999999999
0.0718
0.0781
0.08359999999999999
0.0791
0.0727
0.0737
0.07240000000000001
0.07240000000000001
0.0743
0.0788
0.0883
0.1014
0.1017
0.0772
0.073
0.08169999999999999
0.09279999999999999
0.09660000000000001
0.0973
0.0998
0.0931
0.09569999999999999
0.0944
0.09279999999999999
0.08740000000000001
0.0864
0.0941
0.1049
0.117
0.1046
0.0842
0.0794
0.0915
0.0992
0.1043
0.1084
0.1005
0.0919
0.1008
0.09859999999999999
0.0915
0.0906
0.09470000000000001
0.1014
0.1132
0.118
0.09470000000000001
0.08169999999999999
0.08550000000000001
0.097
0.1027
0.1046
0.1043
0.0922
0.0852
0.0887
0.0868
0.0794
0.07969999999999999
0.082
0.0871
0.0944
0.08989999999999999
0.06320000000000001
0.0526
0.0587
0.0667
0.0708
0.07049999999999999
0.06569999999999999
0.0523
0.0514
0.045
0.0383
0.0329
0.03
0.0309
0.0373
0.0459
0.0309
0.0048
-0.0005999999999999999
0.0067
0.0077
0.0045
0.0022
-0.0019
-0.0127
-0.009900000000000001
-0.0166
-0.0351
-0.0427
-0.0427
-0.036
-0.0293
-0.0319
-0.0612
-0.08069999999999999
-0.08160000000000001
-0.0717
-0.0689
-0.0781
-0.0835
-0.096
-0.1052
-0.103
-0.1033
-0.1167
-0.1183
-0.1167
-0.1151
-0.1071
-0.11
-0.1365
-0.1428
-0.14
-0.133
-0.1275
-0.1291
-0.1301
-0.1416
-0.1381
-0.1374
-0.147
-0.1566
-0.1546
-0.1473
-0.1377
-0.1288
-0.1416
-0.1661
-0.1706
-0.1553
-0.1448
-0.1416
-0.1403
-0.1428
-0.1495
-0.1387
-0.1368
-0.1444
-0.1483
-0.1419
-0.1307
-0.1183
-0.1074
-0.1237
-0.1339
-0.1326
-0.1199
-0.111
-0.1059
-0.1046
-0.1084
-0.1097
-0.1023
-0.1004
-0.1055
-0.1046
-0.09760000000000001
-0.0867
-0.0743
-0.0727
-0.09760000000000001
-0.103
-0.09180000000000001
-0.0784
-0.07049999999999999
-0.0673
-0.0682
-0.0772
-0.0736
-0.0701
-0.0692
-0.0701
-0.0663
-0.0596
-0.0504
-0.0392
-0.0465
-0.0663
-0.06850000000000001
-0.0542
-0.0446
-0.0395
-0.0376
-0.0414
-0.05
-0.044
-0.0456
-0.0485
-0.0478
-0.044
-0.0376
-0.0271
-0.0207
-0.0402
-0.0539
-0.0497
-0.0338
-0.0271
-0.0265
-0.0239
-0.0274
-0.0347
-0.0328
-0.03
-0.0331
-0.0325
-0.0271
-0.0182
-0.0089
-0.0073
-0.0296
-0.0373
-0.0328
-0.0194
-0.0118
-0.0092
-0.0044
-0.0121
-0.0108
-0.0118
-0.0169
-0.015
-0.0086
-0.0048
-0.0025
0.0013
-0.0025
-0.0185
-0.028
-0.0207
-0.0095
-0.008
-0.0092
-0.0156
-0.0274
-0.0233
-0.0255
-0.0316
-0.0357
-0.0331
-0.0255
-0.0169
-0.0111
-0.0312
-0.0437
-0.043
-0.029
-0.0242
-0.0217
-0.0191
-0.0277
-0.0347
-0.0287
-0.0258
-0.0319
-0.0319
-0.0287
-0.022
-0.0115
-0.006
-0.0316
-0.0398
-0.0338
-0.022
-0.014
-0.014
-0.0127
-0.0213
-0.021
-0.022
-0.0239
-0.0284
-0.0271
-0.0226
-0.0115
0.0013
-0.0067
-0.0351
-0.0411
-0.0261
-0.0159
-0.0124
-0.0111
-0.0159
-0.0252
-0.0191
-0.0178
-0.0229
-0.0274
-0.0255
-0.0175
-0.0067
0.0013
-0.0185
-0.0306
-0.03
-0.0207
-0.0131
-0.0105
-0.0092
-0.0124
-0.0166
-0.015
-0.0162
-0.0239
-0.0223
-0.0172
-0.0092
0.0032
0.0016
-0.0258
-0.0341
-0.0261
-0.0156
-0.0111
-0.0115
-0.0115
-0.0191
-0.0223
-0.0226
-0.0217
-0.0258
-0.0271
-0.0223
-0.0108
0
-0.0029
-0.0261
-0.0306
-0.0204
-0.0095
-0.009900000000000001
-0.008
-0.0153
-0.0258
-0.0156
-0.0162
-0.0207
-0.0284
-0.0306
-0.0242
-0.0137
-0.0076
-0.0287
-0.0424
-0.0418
-0.0309
-0.0233
-0.0175
-0.015
-0.0207
-0.0265
-0.0191
-0.0147
-0.0201
-0.0245
-0.0213
-0.009900000000000001
0.0038
0.0054
-0.0207
-0.0277
-0.0207
-0.0073
0
0.0054
0.0074
-0.0035
-0.0067
-0.0064
-0.0029
-0.0048
0.0016
0.0067
0.0102
0.0185
0.016
-0.0064
-0.0115
-0.0013
0.008
0.0121
0.0105
0.0089
0.001
0.0077
0.0077
0.0029
0.001
0.0064
0.0131
0.0236
0.0332
0.0172
0.0007
-0.0019
0.014
0.0243
0.0297
0.0329
0.0294
0.0236
0.0287
0.0284
0.0239
0.0268
0.0341
0.045
0.0561
0.0593
0.0361
0.0252
0.0284
0.0386
0.0456
0.0475
0.0472
0.0335
0.0243
0.022
0.0179
0.0058
0.0019
0.0029
0.0089
0.0128
0.0035
-0.0268
-0.0347
-0.0284
-0.022
-0.0175
-0.0178
-0.0265
-0.0414
-0.0328
-0.0386
-0.0494
-0.0507
-0.0443
-0.0382
-0.0306
-0.0233
-0.0376
-0.058
-0.0641
-0.0536
-0.0398
-0.0328
-0.036
-0.0459
-0.051
-0.044
-0.0421
-0.0481
-0.0513
-0.0469
-0.0395
-0.0316
-0.0271
-0.0507
-0.0583
-0.0539
-0.0437
-0.0357
-0.0357
-0.0312
-0.0376
-0.0427
-0.0418
-0.0402
-0.0443
-0.0437
-0.0351
-0.0229
-0.0153
-0.0236
-0.0437
-0.0453
-0.0354
-0.0271
-0.0223
-0.0201
-0.0204
-0.0316
-0.0271
-0.028
-0.0293
-0.0322
-0.029
-0.021
-0.0108
0
-0.0118
-0.0322
-0.0379
-0.0229
-0.0191
-0.0153
-0.008
-0.0172
-0.0217
-0.0108
-0.0108
-0.0178
-0.0115
0.0013
0.0179
0.0389
0.051
0.0431
0.052
0.0794
0.1129
0.1403
0.1668
0.1901
0.2089
0.2271
0.2513
0.2727
0.2838
0.2985
0.3103
0.3224
0.3339
0.3151
0.2647
0.2303
0.2092
0.1754
0.1314
0.074
0.0156
-0.0507
-0.1062
-0.177
-0.2433
-0.308
-0.361
-0.4088
-0.4471
-0.4799
-0.5281
-0.5718
-0.5925
-0.5887
-0.5858
-0.5826
-0.5711000000000001
-0.5635
-0.5548999999999999
-0.5274
-0.5048
-0.4809
-0.4541
-0.4231
-0.3814
-0.337
-0.3042
-0.2972
-0.2793
-0.2433
-0.1971
-0.161
-0.1323
-0.1049
-0.09180000000000001
-0.0721
-0.0453
-0.0252
-0.0124
0.0058
0.0271
0.0517
0.0762
0.082
0.06569999999999999
0.06950000000000001
0.08550000000000001
0.1043
0.1186
0.1215
0.1237
0.1199
0.1298
0.1327
0.1314
0.132
0.1375
0.1422
0.1524
0.1652
0.1531
0.1352
0.1308
0.1391
0.1486
0.1499
0.1493
0.1419
0.1349
0.1381
0.1314
0.1231
0.1222
0.1237
0.1288
0.1384
0.1387
0.1126
0.1001
0.0989
0.1126
0.1209
0.1206
0.1183
0.1107
0.1065
0.1075
0.1008
0.0922
0.09089999999999999
0.0935
0.1027
0.1107
0.1046
0.082
0.0743
0.0788
0.0852
0.0893
0.08799999999999999
0.0852
0.0746
0.0775
0.07779999999999999
0.0737
0.0667
0.0644
0.0711
0.0858
0.0915
0.07240000000000001
0.0565
0.0542
0.0641
0.07049999999999999
0.0737
0.0746
0.07049999999999999
0.0609
0.0663
0.06759999999999999
0.059
0.053
0.0565
0.0648
0.0759
0.08169999999999999
0.0555
0.0408
0.044
0.0587
0.06510000000000001
0.06320000000000001
0.0612
0.0517
0.0475
0.051
0.0507
0.0469
0.0459
0.0507
0.0609
0.0689
0.0635
0.0399
0.0348
0.045
0.0568
0.0641
0.0622
0.0612
0.0533
0.06
0.0619
0.0549
0.0482
0.0545
0.0641
0.07340000000000001
0.0823
0.0699
0.0523
0.0488
0.0625
0.0711
0.07140000000000001
0.07240000000000001
0.0699
0.0638
0.07140000000000001
0.0673
0.0612
0.06320000000000001
0.0683
0.0769
0.08740000000000001
0.0935
0.0737
0.0616
0.0648
0.0823
0.0906
0.09379999999999999
0.0992
0.0944
0.08989999999999999
0.0877
0.08550000000000001
0.0788
0.0813
0.0915
0.1008
0.1072
0.1033
0.0766
0.07240000000000001
0.0788
0.0906
0.09859999999999999
0.09760000000000001
0.0989
0.09030000000000001
0.0931
0.0931
0.09089999999999999
0.0868
0.08989999999999999
0.0998
0.1129
0.1206
0.1097
0.0858
0.0775
0.08799999999999999
0.09760000000000001
0.1049
0.1072
0.0989
0.0871
0.09279999999999999
0.0915
0.08169999999999999
0.0727
0.075
0.0887
0.0992
0.1017
0.0746
0.0565
0.0545
0.0711
0.0772
0.0737
0.07049999999999999
0.0603
0.0536
0.053
0.051
0.0402
0.0364
0.0383
0.0424
0.0507
0.0479
0.0185
0.0042
0.009599999999999999
0.0198
0.0227
0.0153
0.009900000000000001
-0.0029
-0.0016
-0.0089
-0.0185
-0.0226
-0.0213
-0.0198
-0.0175
-0.0162
-0.0309
-0.0558
-0.0638
-0.0564
-0.0523
-0.0507
-0.0555
-0.0654
-0.0756
-0.0759
-0.08260000000000001
-0.0905
-0.09279999999999999
-0.0982
-0.096
-0.0883
-0.0848
-0.11
-0.1228
-0.1282
-0.1215
-0.1126
-0.1132
-0.1135
-0.1288
-0.139
-0.1361
-0.1377
-0.1425
-0.1435
-0.1435
-0.1368
-0.1275
-0.1266
-0.1562
-0.1594
-0.1432
-0.1326
-0.1368
-0.1416
-0.1377
-0.1397
-0.1333
-0.131
-0.1314
-0.1432
-0.1425
-0.1349
-0.1215
-0.1119
-0.1196
-0.1406
-0.1444
-0.1333
-0.1199
-0.1126
-0.1068
-0.1161
-0.1279
-0.1154
-0.1161
-0.1218
-0.1196
-0.1126
-0.09950000000000001
-0.0905
-0.0842
-0.102
-0.1145
-0.1135
-0.1001
-0.0883
-0.0851
-0.0794
-0.0839
-0.0867
-0.0832
-0.0848
-0.089
-0.089
-0.0794
-0.06759999999999999
-0.0542
-0.0542
-0.0762
-0.0848
-0.07679999999999999
-0.0622
-0.0536
-0.05
-0.0497
-0.0567
-0.0529
-0.0478
-0.0548
-0.0552
-0.0526
-0.0449
-0.0331
-0.0236
-0.0325
-0.0529
-0.0542
-0.0335
-0.0249
-0.0258
-0.0271
-0.0287
-0.037
-0.0274
-0.0245
-0.029
-0.0325
-0.0274
-0.0201
-0.0115
-0.0064
-0.0274
-0.0402
-0.0389
-0.0271
-0.0188
-0.014
-0.014
-0.022
-0.0268
-0.0258
-0.0249
-0.0296
-0.0287
-0.0236
-0.0131
-0.0057
-0.0025
-0.0293
-0.0386
-0.0312
-0.0172
-0.0073
-0.0067
-0.0064
-0.0182
-0.0194
-0.0156
-0.0162
-0.0255
-0.0242
-0.0162
-0.006
0.0048
-0.0057
-0.0306
-0.0367
-0.022
-0.0147
-0.0089
-0.0076
-0.0108
-0.0233
-0.0147
-0.0124
-0.0188
-0.0245
-0.0191
-0.006
0.0007
0.0061
-0.0159
-0.0335
-0.0309
-0.0156
-0.008
-0.0064
-0.0057
-0.0185
-0.0284
-0.0242
-0.0229
-0.0284
-0.0316
-0.0322
-0.0255
-0.0108
-0.0057
-0.0347
-0.0456
-0.0363
-0.0265
-0.0245
-0.0207
-0.0156
-0.0252
-0.0284
-0.0277
-0.0268
-0.0303
-0.0312
-0.0229
-0.0147
-0.0051
-0.0105
-0.0296
-0.037
-0.0261
-0.0127
-0.0067
-0.0092
-0.0115
-0.0207
-0.0188
-0.0159
-0.0178
-0.0223
-0.0182
-0.0118
-0.006
0.0022
-0.0175
-0.0335
-0.0341
-0.0236
-0.0153
-0.0092
-0.0095
-0.0229
-0.0277
-0.0217
-0.022
-0.0261
-0.0287
-0.0277
-0.0185
-0.006
-0.0016
-0.0277
-0.0386
-0.0312
-0.0162
-0.0086
-0.0108
-0.0086
-0.0178
-0.0185
-0.0166
-0.0185
-0.0217
-0.0194
-0.0143
-0.0057
0.0029
-0.0051
-0.03
-0.0354
-0.0236
-0.0127
-0.0073
-0.0054
-0.0092
-0.0226
-0.0159
-0.0156
-0.022
-0.0242
-0.0182
-0.0092
-0.0016
0.0102
-0.0064
-0.0255
-0.0293
-0.0178
-0.0044
0.0042
0.0058
-0.0048
-0.0134
-0.0067
-0.0048
-0.0067
-0.0064
-0.0032
0.0016
0.0125
0.0195
-0.0025
-0.0086
-0.0025
0.009900000000000001
0.0198
0.0255
0.0294
0.0188
0.0169
0.0176
0.0201
0.0201
0.0137
0.0125
0.0223
0.03
0.0233
0.0022
-0.0048
-0.0003
0.0074
0.0064
0.0022
0.0061
0.0007
-0.0005999999999999999
-0.0025
-0.006
-0.0073
-0.0029
0.0074
0.0166
0.029
0.0137
0
-0.0016
0.014
0.0233
0.0303
0.0367
0.0332
0.0265
0.029
0.0243
0.0252
0.0281
0.0354
0.0447
0.0542
0.0571
0.0271
0.0166
0.0239
0.0348
0.0402
0.0383
0.0357
0.0227
0.0128
0.009599999999999999
0.0038
-0.0029
-0.0044
-0.0051
-0.0016
0.0013
-0.0102
-0.0379
-0.0485
-0.044
-0.0379
-0.0312
-0.0341
-0.0414
-0.052
-0.0494
-0.0532
-0.0561
-0.0587
-0.0564
-0.0485
-0.0382
-0.0325
-0.0469
-0.0606
-0.0615
-0.0532
-0.0449
-0.0389
-0.0354
-0.0395
-0.0465
-0.0411
-0.0456
-0.0481
-0.0481
-0.0449
-0.0341
-0.0258
-0.0252
-0.0488
-0.0552
-0.0494
-0.0354
-0.0268
-0.0277
-0.0287
-0.0395
-0.0392
-0.0357
-0.0395
-0.0421
-0.0376
-0.0303
-0.0185
-0.006
-0.0121
-0.0389
-0.0465
-0.0351
-0.0207
-0.0083
-0.0048
-0.0166
-0.0309
-0.021
-0.014
-0.0188
-0.0188
-0.0204
-0.0175
-0.006
0.0045
-0.0182
-0.0357
-0.037
-0.0255
-0.0162
-0.0143
-0.0134
-0.0217
-0.0293
-0.0233
-0.0236
-0.0261
-0.0213
-0.0134
0.0003
0.022
0.0386
0.029
0.0357
0.0596
0.0944
0.1222
0.1496
0.1744
0.192
0.2137
0.2398
0.2615
0.2752
0.2953
0.3151
0.3278
0.3371
0.3266
0.2816
0.2491
0.2271
0.1939
0.1521
0.103
0.0447
-0.0226
-0.0762
-0.147
-0.2245
-0.2902
-0.3447
-0.3925
-0.4321
-0.4703
-0.5207000000000001
-0.5743
-0.5995
-0.5982
-0.5944
-0.5911999999999999
-0.5901999999999999
-0.5836
-0.5721000000000001
-0.5459000000000001
-0.5255
-0.5044999999999999
-0.4739
-0.4391
-0.397
-0.3555
-0.3173
-0.3096
-0.2902
-0.2541
-0.2092
-0.1712
-0.1406
-0.1126
-0.096
-0.0746
-0.0481
-0.0335
-0.0207
0
0.0236
0.0472
0.07049999999999999
0.0781
0.06279999999999999
0.0622
0.081
0.0992
0.1119
0.1206
0.1253
0.1193
0.1253
0.1304
0.1327
0.1285
0.1273
0.1365
0.1483
0.1639
0.154
0.1333
0.1298
0.141
0.1473
0.1505
0.1518
0.1448
0.1355
0.1378
0.1394
0.1387
0.126
0.1237
0.1346
0.1467
0.1493
0.1228
0.1075
0.11
0.1199
0.1215
0.1247
0.1298
0.119
0.1033
0.0998
0.1027
0.0989
0.097
0.09950000000000001
0.1037
0.111
0.1065
0.0794
0.0711
0.08169999999999999
0.09279999999999999
0.09379999999999999
0.0912
0.0922
0.08260000000000001
0.08550000000000001
0.0842
0.07969999999999999
0.07530000000000001
0.07779999999999999
0.0839
0.09279999999999999
0.1008
0.08799999999999999
0.0654
0.059
0.0727
0.0804
0.0785
0.08359999999999999
0.0766
0.0644
0.073
0.06950000000000001
0.059
0.0552
0.059
0.06569999999999999
0.0743
0.0813
0.0625
0.0475
0.0459
0.0568
0.0663
0.06950000000000001
0.0708
0.0638
0.0561
0.0593
0.0612
0.0542
0.052
0.0587
0.0718
0.0871
0.07779999999999999
0.0475
0.0408
0.052
0.0625
0.0708
0.0721
0.0692
0.0603
0.06
0.0625
0.06320000000000001
0.0561
0.0552
0.066
0.0785
0.08799999999999999
0.074
0.0517
0.0504
0.067
0.0737
0.07779999999999999
0.0791
0.0743
0.067
0.07530000000000001
0.07140000000000001
0.067
0.0692
0.07240000000000001
0.0785
0.09089999999999999
0.096
0.0759
0.0619
0.0663
0.08260000000000001
0.0868
0.0877
0.0922
0.08450000000000001
0.08169999999999999
0.08799999999999999
0.0887
0.0839
0.07969999999999999
0.08450000000000001
0.09859999999999999
0.1119
0.1094
0.082
0.0759
0.0868
0.0979
0.1049
0.1075
0.1068
0.09279999999999999
0.0906
0.09470000000000001
0.09379999999999999
0.0877
0.0906
0.095
0.104
0.1142
0.1043
0.0801
0.075
0.0883
0.09660000000000001
0.09859999999999999
0.0992
0.096
0.0848
0.09030000000000001
0.0842
0.0781
0.0766
0.0794
0.08550000000000001
0.09379999999999999
0.09279999999999999
0.0708
0.0552
0.053
0.066
0.07240000000000001
0.07140000000000001
0.0679
0.0571
0.0472
0.0479
0.0434
0.0335
0.0313
0.0338
0.038
0.0418
0.0357
0.0067
-0.0025
0.0067
0.015
0.0153
0.0121
0.009599999999999999
-0.0048
-0.0083
-0.0115
-0.0166
-0.0252
-0.0268
-0.0229
-0.0159
-0.0127
-0.0287
-0.0571
-0.06660000000000001
-0.0574
-0.0526
-0.051
-0.0548
-0.0654
-0.0784
-0.0756
-0.0854
-0.0925
-0.09719999999999999
-0.09660000000000001
-0.0921
-0.0839
-0.0794
-0.1052
-0.1288
-0.132
-0.1157
-0.1141
-0.117
-0.1132
-0.1234
-0.1298
-0.1291
-0.1352
-0.1419
-0.1451
-0.1365
-0.1234
-0.1148
-0.1196
-0.146
-0.1582
-0.1499
-0.1307
-0.1215
-0.1231
-0.1253
-0.1374
-0.1377
-0.1374
-0.14
-0.1403
-0.1377
-0.1314
-0.1228
-0.1122
-0.1224
-0.1422
-0.1435
-0.1295
-0.1189
-0.1113
-0.109
-0.1116
-0.1196
-0.1087
-0.1052
-0.1068
-0.1084
-0.1014
-0.0915
-0.08260000000000001
-0.073
-0.08740000000000001
-0.0985
-0.09719999999999999
-0.08450000000000001
-0.0762
-0.0721
-0.0721
-0.07489999999999999
-0.07779999999999999
-0.0698
-0.0708
-0.07779999999999999
-0.07779999999999999
-0.07240000000000001
-0.0612
-0.0497
-0.0465
-0.0701
-0.0762
-0.0673
-0.0564
-0.0485
-0.0437
-0.0434
-0.0558
-0.0548
-0.0504
-0.0485
-0.0516
-0.0459
-0.0402
-0.0325
-0.0242
-0.0309
-0.0513
-0.0529
-0.0379
-0.0306
-0.0287
-0.0249
-0.0265
-0.0335
-0.0261
-0.0265
-0.0312
-0.0347
-0.0309
-0.0233
-0.0162
-0.0076
-0.0249
-0.037
-0.0392
-0.0265
-0.0198
-0.0156
-0.0111
-0.0188
-0.0287
-0.0226
-0.021
-0.0245
-0.0271
-0.0229
-0.0124
-0.0035
-0.0013
-0.0255
-0.0338
-0.0284
-0.0147
-0.0095
-0.0127
-0.009900000000000001
-0.0204
-0.0204
-0.0182
-0.0204
-0.0255
-0.0277
-0.0204
-0.015
-0.006
-0.0105
-0.0347
-0.0418
-0.0312
-0.0198
-0.014
-0.0143
-0.0169
-0.0245
-0.0175
-0.0185
-0.0239
-0.0265
-0.0226
-0.0153
-0.007
0.0045
-0.0124
-0.0287
-0.0306
-0.0175
-0.0092
-0.0064
-0.006
-0.0147
-0.022
-0.0178
-0.0194
-0.0242
-0.0242
-0.0185
-0.0089
-0.0003
0.0007
-0.0277
-0.0392
-0.0306
-0.0134
-0.0083
-0.009900000000000001
-0.0095
-0.0153
-0.0178
-0.0178
-0.0172
-0.0249
-0.03
-0.0249
-0.0111
0.0007
-0.0067
-0.0335
-0.0382
-0.0284
-0.0169
-0.0076
-0.008
-0.0131
-0.0233
-0.0166
-0.0172
-0.0204
-0.0249
-0.0207
-0.0073
0.0048
0.008
-0.008
-0.03
-0.0363
-0.0207
-0.006
-0.0016
-0.0041
-0.0118
-0.0175
-0.0178
-0.0249
-0.0309
-0.0255
-0.0207
-0.0115
-0.0044
-0.0022
-0.0284
-0.0405
-0.0316
-0.0166
-0.0095
-0.0159
-0.0159
-0.0239
-0.0242
-0.0236
-0.0233
-0.0258
-0.0265
-0.0233
-0.0131
-0.0035
-0.0067
-0.0296
-0.0376
-0.0265
-0.0159
-0.0108
-0.0041
-0.0064
-0.0188
-0.0127
-0.015
-0.0213
-0.0249
-0.0207
-0.0118
-0.0019
0.0064
-0.0124
-0.03
-0.0331
-0.0188
-0.0092
-0.0038
-0.0035
-0.0131
-0.0207
-0.015
-0.0153
-0.0188
-0.0175
-0.0147
-0.0064
0.0054
0.0089
-0.0134
-0.0233
-0.0207
-0.0095
-0.0005999999999999999
0.0029
0.0045
-0.0051
-0.0054
-0.0038
-0.0064
-0.0105
-0.0105
-0.0051
0.0038
0.0179
0.014
-0.0118
-0.0172
-0.0076
0.0048
0.0125
0.0156
0.0131
0
0.0029
0.0054
0.0013
-0.0029
0.0003
0.0077
0.0182
0.0252
0.008
-0.0111
-0.0115
0.0035
0.0163
0.0192
0.0204
0.015
0.0083
0.0121
0.0089
0.0064
0.0112
0.0176
0.0265
0.0373
0.0399
0.016
0.0074
0.015
0.0281
0.0329
0.0389
0.0431
0.0325
0.0309
0.0367
0.0367
0.0313
0.0325
0.0392
0.0514
0.0593
0.0479
0.014
0.0029
0.0128
0.0233
0.0271
0.0233
0.0153
-0.0029
-0.0051
-0.0073
-0.0156
-0.0213
-0.0261
-0.0245
-0.0147
-0.0089
-0.0258
-0.0446
-0.0504
-0.0402
-0.0335
-0.0306
-0.0309
-0.037
-0.0459
-0.0418
-0.0424
-0.0469
-0.0488
-0.0456
-0.0379
-0.0293
-0.0258
-0.0462
-0.0567
-0.0513
-0.037
-0.0309
-0.0293
-0.0271
-0.0347
-0.0376
-0.0347
-0.0341
-0.0376
-0.0373
-0.0316
-0.021
-0.0108
-0.0121
-0.037
-0.0481
-0.0402
-0.0249
-0.0153
-0.0159
-0.0188
-0.0293
-0.0271
-0.0258
-0.0303
-0.0354
-0.0319
-0.0255
-0.0115
0
-0.0175
-0.0395
-0.0434
-0.0271
-0.0156
-0.0156
-0.0137
-0.0178
-0.0226
-0.0124
-0.0156
-0.0226
-0.0226
-0.0178
-0.0083
0.0054
0.0128
-0.0111
-0.0226
-0.021
-0.0064
0.0029
0.016
0.0211
0.0125
0.0131
0.0271
0.0434
0.0482
0.0581
0.0756
0.1094
0.1445
0.1652
0.1601
0.1738
0.2095
0.2433
0.272
0.2934
0.3093
0.3113
0.3243
0.3349
0.3256
0.2979
0.2759
0.2551
0.2252
0.1891
0.1257
0.0504
-0.0054
-0.0609
-0.1202
-0.183
-0.2494
-0.3186
-0.3814
-0.426
-0.477
-0.5262
-0.5580000000000001
-0.5807
-0.5921999999999999
-0.5911999999999999
-0.5867
-0.6049
-0.6068
-0.5899
-0.5555
-0.5252
-0.4984
-0.4675
-0.4455
-0.4209
-0.3827
-0.3485
-0.3221
-0.2943
-0.2615
-0.2175
-0.1715
-0.1454
-0.1467
-0.1266
-0.0925
-0.0574
-0.0319
-0.0111
0.008
0.0109
0.0268
0.0453
0.0587
0.0667
0.075
0.0877
0.1068
0.1244
0.119
0.103
0.1046
0.1218
0.1346
0.1387
0.1426
0.1419
0.1346
0.1416
0.14
0.1359
0.1378
0.1429
0.1499
0.1607
0.1658
0.1429
0.1244
0.1241
0.1406
0.1486
0.1477
0.1461
0.1352
0.1298
0.1324
0.1279
0.1193
0.1174
0.1202
0.1266
0.134
0.1279
0.1027
0.09379999999999999
0.0989
0.1088
0.1142
0.1132
0.1145
0.1056
0.1046
0.09859999999999999
0.0868
0.0785
0.08740000000000001
0.0935
0.1021
0.1091
0.09470000000000001
0.0692
0.059
0.0711
0.0794
0.07969999999999999
0.0804
0.0785
0.0638
0.0699
0.07049999999999999
0.06510000000000001
0.0622
0.0673
0.0737
0.0871
0.0906
0.0619
0.0507
0.0552
0.0673
0.074
0.0788
0.0785
0.06510000000000001
0.0571
0.0571
0.0571
0.0514
0.0504
0.0561
0.0663
0.0743
0.0692
0.0424
0.0348
0.0434
0.0555
0.0603
0.06320000000000001
0.0622
0.0501
0.0504
0.0494
0.0482
0.044
0.0463
0.052
0.06
0.0699
0.0603
0.0389
0.0341
0.0459
0.0571
0.0622
0.0619
0.0558
0.0459
0.0574
0.0609
0.0539
0.0501
0.0552
0.06510000000000001
0.0788
0.0871
0.0673
0.0539
0.0577
0.075
0.08450000000000001
0.0858
0.0864
0.08069999999999999
0.0759
0.08260000000000001
0.0864
0.0801
0.0785
0.0839
0.09660000000000001
0.1049
0.103
0.07779999999999999
0.0702
0.07779999999999999
0.09379999999999999
0.0992
0.0992
0.0989
0.089
0.0922
0.096
0.09379999999999999
0.0906
0.09030000000000001
0.0954
0.1091
0.1228
0.1123
0.08799999999999999
0.0839
0.0979
0.1116
0.1196
0.1206
0.1139
0.1043
0.1104
0.1107
0.1091
0.1104
0.1123
0.111
0.1151
0.1269
0.1123
0.0973
0.09660000000000001
0.1049
0.1046
0.1068
0.1043
0.09569999999999999
0.0877
0.0871
0.0861
0.0794
0.0766
0.0781
0.0839
0.09030000000000001
0.08550000000000001
0.0581
0.0479
0.0542
0.0593
0.0581
0.0565
0.0536
0.0431
0.0421
0.0415
0.0303
0.0163
0.0102
0.0144
0.0252
0.0338
0.0211
-0.0086
-0.0207
-0.0102
-0.0051
-0.0048
-0.0051
-0.0131
-0.0258
-0.0236
-0.0306
-0.0398
-0.0462
-0.0462
-0.0449
-0.0437
-0.0389
-0.0622
-0.0861
-0.09089999999999999
-0.0784
-0.0736
-0.0752
-0.08160000000000001
-0.09370000000000001
-0.1014
-0.1004
-0.1039
-0.1122
-0.117
-0.1164
-0.1074
-0.1014
-0.1043
-0.1307
-0.1377
-0.133
-0.125
-0.124
-0.1266
-0.124
-0.1365
-0.1368
-0.1361
-0.14
-0.1454
-0.1448
-0.1393
-0.1298
-0.1199
-0.133
-0.1562
-0.1575
-0.1419
-0.132
-0.1263
-0.1237
-0.1253
-0.1352
-0.1314
-0.1314
-0.1304
-0.132
-0.1279
-0.1161
-0.1062
-0.0985
-0.1177
-0.1295
-0.1263
-0.1119
-0.1023
-0.09760000000000001
-0.0934
-0.1011
-0.1078
-0.09719999999999999
-0.096
-0.1023
-0.1008
-0.09370000000000001
-0.08069999999999999
-0.0708
-0.07140000000000001
-0.09719999999999999
-0.1039
-0.0925
-0.0765
-0.0689
-0.0663
-0.0641
-0.0711
-0.0698
-0.066
-0.0669
-0.0692
-0.0625
-0.0555
-0.0456
-0.0389
-0.0408
-0.0603
-0.06569999999999999
-0.0561
-0.0456
-0.043
-0.0414
-0.0414
-0.0542
-0.05
-0.051
-0.058
-0.0574
-0.0481
-0.044
-0.036
-0.0252
-0.0411
-0.0583
-0.0552
-0.0395
-0.029
-0.0252
-0.0245
-0.0322
-0.0357
-0.0309
-0.0316
-0.0392
-0.0398
-0.0338
-0.0213
-0.0108
-0.0095
-0.037
-0.0456
-0.0421
-0.0296
-0.0233
-0.0226
-0.0162
-0.0242
-0.0245
-0.0229
-0.0268
-0.0309
-0.029
-0.0207
-0.0105
-0.0003
-0.0073
-0.0328
-0.037
-0.0255
-0.0166
-0.0092
-0.0064
-0.0124
-0.022
-0.014
-0.0159
-0.022
-0.0274
-0.0242
-0.0166
-0.0051
0.0026
-0.0134
-0.0303
-0.0319
-0.0223
-0.015
-0.0111
-0.0089
-0.0147
-0.0239
-0.0194
-0.0166
-0.0213
-0.0245
-0.0229
-0.0156
-0.0057
-0.0009
-0.0242
-0.0341
-0.0296
-0.0156
-0.0089
-0.007
-0.0051
-0.0147
-0.0178
-0.0115
-0.0115
-0.015
-0.0131
-0.0051
0.0077
0.0201
0.0121
-0.0134
-0.0277
-0.0188
-0.0029
0.0054
0.0089
-0.0005999999999999999
-0.0127
-0.0095
-0.015
-0.0287
-0.0338
-0.0306
-0.0198
-0.0121
-0.0054
-0.0217
-0.0427
-0.0462
-0.0335
-0.0255
-0.0188
-0.0124
-0.0201
-0.029
-0.0223
-0.022
-0.03
-0.03
-0.0236
-0.0162
-0.0044
0
-0.0242
-0.0351
-0.0319
-0.0159
-0.0083
-0.0083
-0.008
-0.0162
-0.0213
-0.0169
-0.0153
-0.0207
-0.0182
-0.0124
-0.0064
0.0048
0.0019
-0.0236
-0.03
-0.0172
-0.006
-0.0022
-0.0016
-0.0032
-0.0124
-0.0092
-0.0108
-0.0124
-0.0153
-0.0131
-0.008
0.0029
0.0118
-0.0035
-0.0233
-0.0261
-0.0105
-0.0016
0.0003
0.0032
-0.0013
-0.0115
-0.0067
-0.0064
-0.0092
-0.0092
-0.0041
0.0067
0.0137
0.0105
-0.0153
-0.0191
-0.0108
0.001
0.007
0.009900000000000001
0.0112
-0.0019
-0.0041
0.0016
0.0029
-0.0022
0.0022
0.0112
0.0144
0.0204
0.0214
-0.0025
-0.008
0.0038
0.0118
0.0182
0.0182
0.0105
-0.0009
0.0019
0.0067
0.0038
-0.0025
-0.0032
0.0032
0.014
0.023
0.0083
-0.0108
-0.0124
-0.0003
0.0064
0.0115
0.0172
0.0102
0.0042
0.0134
0.0083
-0.0038
-0.006
0
0.0112
0.0252
0.0274
0.0045
-0.0044
-0.0016
0.0125
0.0211
0.0233
0.0233
0.0163
0.0166
0.0255
0.0243
0.0179
0.023
0.0325
0.0434
0.053
0.052
0.0309
0.022
0.0306
0.0421
0.0501
0.0549
0.0536
0.0424
0.0434
0.0431
0.0418
0.0361
0.0335
0.0399
0.0456
0.0488
0.0322
0.008
0.0026
0.014
0.0176
0.0156
0.0102
-0.0016
-0.0134
-0.0095
-0.0153
-0.0277
-0.0296
-0.028
-0.0229
-0.0162
-0.0134
-0.0382
-0.0526
-0.0494
-0.0354
-0.0296
-0.0328
-0.029
-0.037
-0.0424
-0.0376
-0.0341
-0.0398
-0.0408
-0.0357
-0.0226
-0.0134
-0.0175
-0.043
-0.0465
-0.037
-0.0255
-0.0159
-0.0121
-0.0169
-0.03
-0.022
-0.0239
-0.03
-0.0319
-0.0236
-0.0169
-0.0118
-0.0019
-0.0131
-0.0319
-0.0344
-0.0226
-0.0127
-0.008
-0.0051
-0.0111
-0.0201
-0.0127
-0.0162
-0.021
-0.0175
-0.0131
-0.0044
0.0054
0.009299999999999999
-0.0127
-0.0242
-0.0204
-0.0044
0.0016
0.0035
0.009599999999999999
0.0045
-0.0009
0.0035
0.0054
-0.0016
-0.0013
0.007
0.0192
0.0338
0.0313
0.0026
-0.0016
0.0131
0.0287
0.0421
0.0526
0.0577
0.0584
0.07240000000000001
0.0896
0.1021
0.1196
0.14
0.1725
0.2063
0.2411
0.2526
0.2539
0.2762
0.309
0.3342
0.3527
0.3623
0.3604
0.3425
0.3246
0.3026
0.2685
0.2315
0.1901
0.148
0.103
0.0427
-0.0434
-0.1199
-0.1884
-0.2347
-0.2867
-0.3447
-0.3964
-0.4483
-0.4943
-0.5265
-0.5504
-0.5708
-0.5788
-0.5775
-0.5631
-0.5415
-0.5296999999999999
-0.5399
-0.5271
-0.4911
-0.4477
-0.4098
-0.3779
-0.3469
-0.3284
-0.2953
-0.2643
-0.235
-0.2066
-0.1738
-0.139
-0.1036
-0.06950000000000001
-0.0558
-0.0558
-0.0398
-0.0035
0.0255
0.0424
0.0584
0.0683
0.06950000000000001
0.0861
0.09569999999999999
0.1001
0.1072
0.118
0.1295
0.1419
0.1515
0.1378
0.1288
0.1346
0.1502
0.1604
0.162
0.1639
0.1553
0.1537
0.1604
0.1607
0.1531
0.1509
0.1566
0.1642
0.1732
0.1716
0.1483
0.1403
0.1467
0.1575
0.1617
0.1601
0.1598
0.1486
0.1477
0.1467
0.1435
0.1365
0.1359
0.141
0.1451
0.1502
0.1426
0.1196
0.1142
0.1234
0.1304
0.1327
0.133
0.1273
0.1142
0.1174
0.1174
0.1123
0.1107
0.1107
0.1161
0.1237
0.1288
0.1081
0.0893
0.0868
0.1017
0.1091
0.1065
0.1065
0.0992
0.0935
0.0912
0.0871
0.082
0.0775
0.0813
0.0893
0.0998
0.09660000000000001
0.0679
0.0606
0.06510000000000001
0.0699
0.0743
0.0785
0.0785
0.06569999999999999
0.0638
0.06
0.0549
0.052
0.0542
0.0568
0.0673
0.0781
0.066
0.0392
0.037
0.0491
0.0565
0.06
0.06320000000000001
0.0581
0.0472
0.0545
0.0552
0.0491
0.0456
0.0517
0.0596
0.073
0.0801
0.059
0.0453
0.0456
0.0612
0.06950000000000001
0.0727
0.075
0.0683
0.0625
0.0692
0.0708
0.0635
0.0606
0.0648
0.0743
0.0852
0.0861
0.0635
0.053
0.0603
0.0727
0.0791
0.0791
0.0813
0.0737
0.074
0.0756
0.0737
0.0727
0.07779999999999999
0.0861
0.097
0.1033
0.09379999999999999
0.0772
0.07530000000000001
0.0842
0.09569999999999999
0.1046
0.1049
0.1027
0.096
0.103
0.1024
0.09760000000000001
0.09030000000000001
0.0915
0.1027
0.1167
0.1253
0.1043
0.0842
0.0842
0.097
0.1033
0.1024
0.1046
0.097
0.0906
0.0912
0.0852
0.0788
0.07969999999999999
0.081
0.09089999999999999
0.1001
0.0973
0.0721
0.0667
0.07340000000000001
0.075
0.0766
0.0788
0.0781
0.07240000000000001
0.0727
0.0683
0.0616
0.0552
0.0565
0.059
0.0625
0.0699
0.0561
0.0322
0.0281
0.0329
0.0399
0.0431
0.0405
0.0332
0.0262
0.0227
0.015
0.008
0.0051
0.0038
0.0074
0.0144
0.0172
-0.0076
-0.0287
-0.0312
-0.0204
-0.0172
-0.0236
-0.0261
-0.0357
-0.0462
-0.0532
-0.059
-0.066
-0.0736
-0.0756
-0.0689
-0.0609
-0.066
-0.09660000000000001
-0.1068
-0.1062
-0.0992
-0.0956
-0.1001
-0.1001
-0.1132
-0.1192
-0.1186
-0.1167
-0.1295
-0.139
-0.1339
-0.1275
-0.1218
-0.131
-0.1575
-0.1664
-0.1566
-0.1521
-0.1515
-0.1578
-0.1594
-0.1664
-0.1623
-0.1639
-0.1671
-0.1668
-0.1648
-0.155
-0.1428
-0.1336
-0.1473
-0.1648
-0.1696
-0.1492
-0.1358
-0.1352
-0.1419
-0.1505
-0.1521
-0.1473
-0.1486
-0.1566
-0.1601
-0.1601
-0.1467
-0.1314
-0.1288
-0.153
-0.1569
-0.1451
-0.1231
-0.1138
-0.109
-0.1164
-0.1301
-0.124
-0.1094
-0.1043
-0.1065
-0.1043
-0.1017
-0.0944
-0.0883
-0.09470000000000001
-0.1183
-0.1205
-0.1049
-0.09470000000000001
-0.0934
-0.0915
-0.0902
-0.095
-0.0867
-0.0877
-0.0915
-0.0921
-0.08450000000000001
-0.0743
-0.0612
-0.0529
-0.06759999999999999
-0.08260000000000001
-0.081
-0.06569999999999999
-0.0536
-0.05
-0.0481
-0.0536
-0.0593
-0.0529
-0.0507
-0.0532
-0.0529
-0.0494
-0.0411
-0.0306
-0.028
-0.0497
-0.0542
-0.0497
-0.0357
-0.0268
-0.0277
-0.028
-0.0316
-0.0341
-0.0306
-0.0351
-0.0395
-0.0335
-0.0268
-0.0134
-0.0032
-0.0111
-0.0434
-0.0513
-0.0386
-0.0258
-0.0194
-0.0201
-0.0201
-0.0306
-0.0312
-0.0347
-0.0367
-0.0335
-0.0347
-0.0335
-0.0255
-0.0166
-0.0316
-0.0485
-0.0526
-0.0427
-0.0309
-0.0268
-0.0274
-0.0382
-0.0472
-0.0408
-0.0421
-0.0488
-0.0481
-0.0437
-0.0357
-0.0239
-0.0194
-0.0507
-0.0622
-0.0523
-0.0392
-0.0338
-0.0325
-0.0338
-0.0469
-0.0481
-0.0437
-0.0456
-0.0552
-0.0523
-0.044
-0.0344
-0.0252
-0.029
-0.0529
-0.0564
-0.0465
-0.0376
-0.0354
-0.0363
-0.0382
-0.043
-0.037
-0.0398
-0.044
-0.0472
-0.0481
-0.044
-0.0319
-0.0255
-0.0411
-0.0567
-0.059
-0.044
-0.036
-0.0347
-0.0351
-0.0398
-0.0427
-0.0379
-0.0427
-0.0443
-0.0449
-0.0408
-0.0322
-0.0239
-0.0252
-0.05
-0.059
-0.0494
-0.0379
-0.0328
-0.0328
-0.0312
-0.0395
-0.0427
-0.0443
-0.0462
-0.0491
-0.0462
-0.0421
-0.0319
-0.0252
-0.0296
-0.0513
-0.0564
-0.0462
-0.0363
-0.0277
-0.0233
-0.0242
-0.0338
-0.0341
-0.0335
-0.0331
-0.0328
-0.03
-0.0255
-0.0115
-0.0003
-0.0134
-0.0386
-0.0456
-0.0312
-0.0217
-0.0172
-0.0204
-0.0293
-0.0357
-0.0293
-0.0316
-0.0395
-0.043
-0.0402
-0.0319
-0.0233
-0.0204
-0.0427
-0.0536
-0.0507
-0.0408
-0.0328
-0.0261
-0.0242
-0.0376
-0.0382
-0.0344
-0.0351
-0.037
-0.0347
-0.0261
-0.0229
-0.0191
-0.0159
-0.0363
-0.0376
-0.0271
-0.0201
-0.0153
-0.0134
-0.014
-0.022
-0.0182
-0.0191
-0.0239
-0.0268
-0.021
-0.0156
-0.0054
0.0016
-0.0121
-0.0306
-0.0347
-0.0236
-0.0127
-0.0073
-0.0057
-0.0105
-0.0201
-0.0137
-0.0175
-0.0207
-0.0194
-0.0166
-0.0089
0.0007
0.0086
-0.0108
-0.0245
-0.0194
-0.0054
0.0026
0.0058
0.0064
-0.0035
-0.0025
0.0042
0.0064
0.0016
-0.0064
-0.0051
0.0077
0.0223
0.0204
-0.0041
-0.0115
-0.0032
0.0083
0.0105
0.0058
0.0029
-0.0064
-0.0005999999999999999
0.0013
-0.0003
-0.0032
-0.0025
0.0032
0.0153
0.0243
0.009299999999999999
-0.0108
-0.008
0.009299999999999999
0.0185
0.0217
0.0236
0.0217
0.0156
0.0227
0.0227
0.0179
0.0211
0.0313
0.038
0.0459
0.0517
0.0319
0.0227
0.0265
0.0364
0.0402
0.0402
0.0373
0.0243
0.0236
0.0236
0.0172
0.0058
0.0016
0.0007
0.0077
0.0112
0.0045
-0.0242
-0.0344
-0.0265
-0.0178
-0.0137
-0.0166
-0.0217
-0.0347
-0.0335
-0.0335
-0.036
-0.0408
-0.0379
-0.0354
-0.0284
-0.022
-0.0376
-0.0583
-0.058
-0.0449
-0.037
-0.0309
-0.0309
-0.0398
-0.0494
-0.0437
-0.0437
-0.0437
-0.0449
-0.0386
-0.0309
-0.021
-0.0162
-0.0376
-0.0459
-0.0389
-0.0296
-0.0226
-0.0191
-0.0156
-0.0236
-0.0268
-0.0207
-0.022
-0.0255
-0.0258
-0.0201
-0.0121
-0.0013
-0.0029
-0.0271
-0.0309
-0.022
-0.0137
-0.008
-0.0038
-0.0019
-0.0095
-0.0105
-0.0073
-0.0108
-0.0153
-0.0143
-0.0048
0.0054
0.0125
0.0019
-0.0188
-0.0217
-0.0054
0.0029
0.001
0.0013
-0.0038
-0.0127
-0.0083
-0.0064
-0.009900000000000001
-0.0076
-0.0038
0.0064
0.023
0.0329
0.0204
0.0204
0.0313
0.0622
0.0871
0.1091
0.1282
0.141
0.1607
0.1904
0.2156
0.2338
0.2577
0.2832
0.3093
0.3345
0.3412
0.3205
0.3125
0.3004
0.2896
0.2701
0.2318
0.1901
0.1343
0.07779999999999999
0.0198
-0.0418
-0.111
-0.1789
-0.2353
-0.2848
-0.3297
-0.3935
-0.4652
-0.5086000000000001
-0.5309
-0.5488
-0.5631
-0.5718
-0.5788
-0.5842000000000001
-0.5695
-0.5564
-0.5421
-0.5249
-0.5003
-0.4649
-0.4267
-0.3909
-0.3795
-0.3594
-0.3265
-0.2854
-0.2465
-0.2089
-0.177
-0.1572
-0.1361
-0.1106
-0.0842
-0.0641
-0.0424
-0.0194
0.0102
0.0376
0.0526
0.0396
0.045
0.06510000000000001
0.0848
0.0989
0.1097
0.1199
0.1186
0.1231
0.1247
0.126
0.1273
0.1346
0.1483
0.1537
0.1623
0.1502
0.1263
0.125
0.141
0.1489
0.1489
0.1477
0.1426
0.1324
0.1365
0.1327
0.1253
0.1225
0.126
0.1295
0.1391
0.1451
0.1263
0.1116
0.111
0.1215
0.1279
0.1285
0.132
0.1237
0.1145
0.1151
0.1164
0.1097
0.1094
0.1132
0.1167
0.1218
0.1237
0.09030000000000001
0.0813
0.0915
0.1008
0.1072
0.1065
0.1021
0.08740000000000001
0.0883
0.0864
0.082
0.0813
0.08359999999999999
0.0912
0.0919
0.09569999999999999
0.08799999999999999
0.07140000000000001
0.0692
0.0772
0.0788
0.08169999999999999
0.0791
0.07340000000000001
0.0619
0.06759999999999999
0.066
0.0574
0.0523
0.0565
0.0635
0.0718
0.07530000000000001
0.0555
0.0396
0.0427
0.0577
0.0635
0.0625
0.0635
0.0581
0.0549
0.0587
0.0571
0.0514
0.0523
0.0561
0.0641
0.07140000000000001
0.0737
0.0485
0.0412
0.0475
0.0612
0.06859999999999999
0.0638
0.0683
0.0616
0.0596
0.0603
0.0561
0.0526
0.059
0.0689
0.0769
0.08260000000000001
0.074
0.052
0.052
0.067
0.0766
0.0842
0.0868
0.0788
0.0699
0.0769
0.0743
0.06950000000000001
0.0673
0.073
0.0858
0.0915
0.0963
0.07779999999999999
0.06279999999999999
0.0638
0.074
0.0842
0.0915
0.0922
0.08260000000000001
0.0775
0.0813
0.0864
0.0871
0.0877
0.0935
0.103
0.1167
0.1167
0.0935
0.0871
0.0941
0.1097
0.1151
0.1132
0.1164
0.1139
0.1148
0.1126
0.1049
0.09379999999999999
0.0989
0.1072
0.1142
0.1285
0.1174
0.08799999999999999
0.0842
0.09569999999999999
0.0998
0.1046
0.1059
0.1017
0.0915
0.09660000000000001
0.0887
0.0823
0.0839
0.0887
0.095
0.1008
0.1059
0.0858
0.066
0.0635
0.0766
0.08359999999999999
0.08550000000000001
0.0842
0.075
0.067
0.07140000000000001
0.07140000000000001
0.0622
0.0568
0.059
0.0587
0.066
0.06859999999999999
0.045
0.0345
0.0386
0.0402
0.0383
0.0376
0.0332
0.0223
0.016
0.009299999999999999
-0.0022
-0.0089
-0.0095
-0.0115
-0.0111
-0.0051
-0.0166
-0.0449
-0.0577
-0.051
-0.0475
-0.0481
-0.0532
-0.0558
-0.0682
-0.06850000000000001
-0.0765
-0.0839
-0.0877
-0.0883
-0.0854
-0.07779999999999999
-0.074
-0.0925
-0.1103
-0.1116
-0.1036
-0.1052
-0.1065
-0.1074
-0.1161
-0.1224
-0.1183
-0.1263
-0.139
-0.1422
-0.14
-0.1352
-0.1285
-0.133
-0.1597
-0.1674
-0.1604
-0.1502
-0.146
-0.147
-0.1432
-0.1483
-0.1534
-0.1518
-0.1505
-0.1534
-0.1492
-0.1428
-0.1355
-0.1234
-0.1259
-0.1546
-0.1546
-0.1371
-0.1231
-0.1212
-0.1247
-0.1272
-0.1361
-0.1288
-0.1288
-0.1279
-0.1256
-0.1237
-0.1141
-0.1049
-0.0982
-0.1135
-0.1263
-0.1231
-0.1052
-0.0985
-0.09660000000000001
-0.0941
-0.09660000000000001
-0.0988
-0.09370000000000001
-0.0934
-0.095
-0.0912
-0.0854
-0.0784
-0.0673
-0.0612
-0.0835
-0.0867
-0.08
-0.07140000000000001
-0.0574
-0.0513
-0.0513
-0.0603
-0.0609
-0.0555
-0.0516
-0.0497
-0.0485
-0.0446
-0.0344
-0.0204
-0.0306
-0.0513
-0.0504
-0.0351
-0.0233
-0.0201
-0.0226
-0.0255
-0.0322
-0.0271
-0.0255
-0.0245
-0.0287
-0.0322
-0.0284
-0.0153
-0.0032
-0.0172
-0.0344
-0.036
-0.0229
-0.0159
-0.0137
-0.0105
-0.0127
-0.0185
-0.0172
-0.0188
-0.0233
-0.0223
-0.0226
-0.0127
-0.0041
-0.0029
-0.0258
-0.0392
-0.0341
-0.021
-0.0169
-0.0182
-0.0159
-0.0268
-0.0277
-0.0245
-0.0229
-0.0287
-0.0319
-0.0261
-0.0178
-0.0054
-0.0102
-0.0347
-0.0376
-0.0271
-0.0207
-0.0166
-0.0121
-0.0115
-0.0236
-0.0188
-0.0162
-0.0226
-0.029
-0.0261
-0.0194
-0.0083
-0.0013
-0.014
-0.0303
-0.0341
-0.0249
-0.0191
-0.0166
-0.0143
-0.0204
-0.03
-0.0233
-0.0249
-0.0338
-0.0316
-0.0271
-0.0198
-0.0089
-0.0054
-0.0274
-0.0357
-0.0306
-0.0201
-0.0162
-0.0201
-0.014
-0.015
-0.0213
-0.0233
-0.022
-0.0271
-0.0255
-0.0236
-0.0159
-0.0067
-0.0115
-0.0335
-0.036
-0.0198
-0.009900000000000001
-0.0054
-0.0025
0.0022
-0.0156
-0.0204
-0.0175
-0.0118
-0.0175
-0.0178
-0.0105
-0.0025
0.0035
-0.0121
-0.0341
-0.0395
-0.0296
-0.0236
-0.0213
-0.0201
-0.0258
-0.0344
-0.029
-0.0312
-0.0392
-0.0405
-0.0338
-0.0242
-0.0137
-0.0115
-0.0331
-0.0456
-0.0437
-0.0293
-0.0236
-0.0185
-0.0166
-0.0265
-0.0287
-0.022
-0.0226
-0.0296
-0.0261
-0.0191
-0.0134
-0.0035
-0.0057
-0.0322
-0.0363
-0.022
-0.0102
-0.0092
-0.0092
-0.0073
-0.0131
-0.0115
-0.0143
-0.014
-0.0236
-0.021
-0.0092
0.0032
0.0112
-0.007
-0.0277
-0.0271
-0.0131
-0.0092
-0.006
-0.0051
-0.0131
-0.0207
-0.0108
-0.0175
-0.0258
-0.0252
-0.0198
-0.0102
-0.0013
-0.0019
-0.0249
-0.0373
-0.0319
-0.0185
-0.0105
-0.0076
-0.007
-0.015
-0.015
-0.0147
-0.0127
-0.0178
-0.014
-0.0038
0.008
0.0163
0.0134
-0.0073
-0.0086
0.0048
0.0019
-0.0025
0.0058
0.0134
0.008
0.0058
-0.0044
-0.0092
-0.014
-0.0127
-0.0067
0.0038
0.0128
-0.0019
-0.0252
-0.0284
-0.015
-0.0029
0.0051
0.0074
0.0022
-0.0035
0.0029
0
-0.0038
-0.0029
0.0026
0.009900000000000001
0.0227
0.0271
0.0013
-0.0067
-0.0013
0.0102
0.0131
0.0131
0.0176
0.009900000000000001
0.0061
0.009299999999999999
0.0109
0.007
0.0074
0.009599999999999999
0.0125
0.0249
0.0265
0.0029
-0.0038
0.0102
0.0243
0.0258
0.0278
0.0306
0.0233
0.0255
0.0278
0.0303
0.0281
0.0329
0.0396
0.0507
0.0619
0.0498
0.0316
0.0309
0.0408
0.0479
0.0475
0.0463
0.0431
0.0306
0.0294
0.0201
0.0118
0.0083
0.0074
0.0083
0.0121
0.0109
-0.0178
-0.0303
-0.0319
-0.0229
-0.021
-0.0233
-0.0188
-0.0303
-0.0398
-0.0357
-0.0405
-0.0472
-0.0443
-0.0405
-0.0274
-0.014
-0.0204
-0.0539
-0.0542
-0.0434
-0.0363
-0.03
-0.0293
-0.03
-0.0408
-0.036
-0.0405
-0.0449
-0.0465
-0.0386
-0.0319
-0.022
-0.0153
-0.0277
-0.0459
-0.0478
-0.0344
-0.0236
-0.0217
-0.0204
-0.022
-0.0284
-0.0233
-0.0242
-0.0271
-0.0274
-0.0229
-0.0166
-0.0057
-0.0013
-0.0236
-0.0341
-0.0293
-0.014
-0.0054
-0.0089
-0.0121
-0.0143
-0.0185
-0.0153
-0.0134
-0.0169
-0.021
-0.0191
-0.0118
-0.0016
-0.0022
-0.0249
-0.0306
-0.0226
-0.0134
-0.0083
-0.0086
-0.0083
-0.0207
-0.0134
-0.0134
-0.0147
-0.0131
-0.0054
0.0035
0.0188
0.0389
0.0427
0.0325
0.0361
0.0721
0.0935
0.1196
0.1483
0.1687
0.1792
0.2089
0.2306
0.2494
0.2714
0.2959
0.3234
0.3428
0.3505
0.3317
0.3116
0.2899
0.2743
0.2488
0.2083
0.1681
0.11
0.0475
-0.009900000000000001
-0.08
-0.1569
-0.2254
-0.2819
-0.3323
-0.3772
-0.4311
-0.5077
-0.5548999999999999
-0.5708
-0.5737
-0.5855
-0.5941
-0.5941
-0.5953000000000001
-0.5839
-0.5676
-0.5482
-0.5239
-0.4949
-0.4585
-0.4196
-0.3782
-0.3581
-0.3457
-0.3157
-0.271
-0.2302
-0.1961
-0.1696
-0.147
-0.1301
-0.0998
-0.0743
-0.0558
-0.037
-0.0147
0.008
0.0319
0.053
0.0463
0.0408
0.0539
0.0781
0.0919
0.0992
0.1097
0.1059
0.1021
0.1104
0.1129
0.1129
0.1167
0.1241
0.1333
0.1422
0.1403
0.118
0.1119
0.119
0.132
0.1419
0.1416
0.1352
0.1263
0.1295
0.1308
0.1247
0.1193
0.1237
0.1285
0.1365
0.1451
0.1371
0.119
0.1123
0.118
0.119
0.1253
0.1292
0.1266
0.1158
0.1148
0.1094
0.1027
0.0998
0.1027
0.1049
0.11
0.1164
0.0941
0.0794
0.08069999999999999
0.08989999999999999
0.0954
0.09760000000000001
0.0989
0.09379999999999999
0.08550000000000001
0.0868
0.0842
0.0791
0.0781
0.082
0.09470000000000001
0.1008
0.0944
0.07140000000000001
0.0667
0.0679
0.0766
0.0832
0.0813
0.0727
0.0587
0.0641
0.0673
0.0584
0.0494
0.0469
0.051
0.0593
0.0679
0.0635
0.0383
0.0316
0.0427
0.0536
0.0584
0.0616
0.0606
0.0536
0.0542
0.0574
0.053
0.0482
0.0514
0.0593
0.07140000000000001
0.0775
0.0561
0.0396
0.0396
0.0536
0.0593
0.0581
0.0568
0.0523
0.0485
0.0536
0.0507
0.0427
0.0459
0.0533
0.059
0.06759999999999999
0.0721
0.0494
0.0424
0.051
0.0606
0.0663
0.0699
0.0708
0.0638
0.06569999999999999
0.0663
0.0663
0.0644
0.066
0.07240000000000001
0.08450000000000001
0.09660000000000001
0.0842
0.0635
0.0625
0.0756
0.0877
0.0944
0.09379999999999999
0.0919
0.0794
0.08799999999999999
0.09089999999999999
0.0868
0.08260000000000001
0.0871
0.096
0.1065
0.117
0.0979
0.08359999999999999
0.0832
0.0954
0.1065
0.1119
0.1135
0.1091
0.1043
0.1088
0.1068
0.1011
0.1008
0.1072
0.1164
0.126
0.1222
0.09660000000000001
0.089
0.096
0.1091
0.1129
0.1078
0.1049
0.09569999999999999
0.09470000000000001
0.0915
0.0861
0.0766
0.0756
0.08260000000000001
0.0931
0.0989
0.0864
0.0622
0.0549
0.0612
0.0689
0.07140000000000001
0.0702
0.06859999999999999
0.0571
0.0581
0.051
0.0437
0.0431
0.0421
0.0498
0.0584
0.0584
0.0376
0.0188
0.0156
0.0236
0.0274
0.0265
0.0255
0.0131
0
0.0029
-0.0003
-0.0089
-0.015
-0.0131
-0.006
-0.0016
-0.0073
-0.0344
-0.0465
-0.0443
-0.0363
-0.037
-0.0392
-0.0405
-0.0532
-0.058
-0.0609
-0.0682
-0.08160000000000001
-0.0883
-0.0854
-0.081
-0.07489999999999999
-0.0842
-0.1132
-0.1224
-0.1161
-0.1097
-0.1071
-0.1126
-0.1186
-0.1307
-0.1291
-0.1339
-0.1397
-0.1416
-0.14
-0.1339
-0.1259
-0.1218
-0.1419
-0.1585
-0.1594
-0.147
-0.1368
-0.1349
-0.1346
-0.1403
-0.1515
-0.1479
-0.1464
-0.1505
-0.1518
-0.1479
-0.1384
-0.1282
-0.1279
-0.1527
-0.1607
-0.1508
-0.1381
-0.131
-0.1295
-0.1253
-0.1323
-0.1304
-0.1263
-0.1234
-0.1243
-0.1221
-0.1164
-0.1055
-0.0912
-0.0915
-0.111
-0.1148
-0.0992
-0.08740000000000001
-0.0829
-0.08160000000000001
-0.0832
-0.0893
-0.0759
-0.0727
-0.07679999999999999
-0.07969999999999999
-0.0762
-0.06660000000000001
-0.0536
-0.0478
-0.0638
-0.0756
-0.07489999999999999
-0.0606
-0.0507
-0.0456
-0.0437
-0.0494
-0.0567
-0.0507
-0.0469
-0.0485
-0.0494
-0.051
-0.0392
-0.0255
-0.022
-0.0462
-0.0574
-0.0491
-0.0335
-0.0274
-0.0277
-0.0261
-0.0363
-0.0373
-0.0351
-0.0341
-0.0402
-0.0398
-0.0306
-0.0172
-0.009900000000000001
-0.0172
-0.0395
-0.0459
-0.0309
-0.0182
-0.0169
-0.0147
-0.0127
-0.0233
-0.0204
-0.021
-0.0242
-0.0261
-0.0213
-0.0131
-0.0102
-0.0038
-0.0178
-0.0312
-0.0303
-0.0213
-0.0159
-0.0124
-0.0092
-0.0156
-0.0223
-0.0194
-0.0213
-0.0268
-0.0233
-0.0182
-0.014
-0.0041
0.0007
-0.0207
-0.0303
-0.0242
-0.0131
-0.0073
-0.0073
-0.0064
-0.015
-0.0188
-0.0147
-0.015
-0.0242
-0.0223
-0.0162
-0.0083
0.0022
-0.0038
-0.0293
-0.0379
-0.0268
-0.0137
-0.0073
-0.007
-0.0115
-0.0182
-0.0131
-0.0153
-0.0223
-0.0271
-0.0245
-0.0147
-0.0044
-0.0003
-0.0153
-0.0316
-0.0338
-0.0217
-0.0143
-0.0086
-0.0115
-0.0223
-0.0271
-0.0182
-0.0159
-0.0182
-0.0185
-0.0194
-0.0178
-0.0089
-0.0051
-0.0261
-0.0382
-0.0306
-0.0188
-0.0178
-0.0169
-0.0156
-0.0245
-0.0245
-0.0258
-0.0309
-0.0373
-0.0328
-0.0245
-0.0172
-0.0086
-0.0134
-0.0373
-0.0443
-0.0331
-0.0233
-0.0182
-0.0153
-0.0188
-0.03
-0.0274
-0.0249
-0.0258
-0.0284
-0.0287
-0.0217
-0.0127
-0.0025
-0.0143
-0.0325
-0.0338
-0.0213
-0.0127
-0.0067
-0.0064
-0.0115
-0.0188
-0.0159
-0.0166
-0.0182
-0.0201
-0.0191
-0.0105
0.001
0.0045
-0.0217
-0.0322
-0.0277
-0.0172
-0.0083
-0.0054
-0.0044
-0.0115
-0.0162
-0.0172
-0.0185
-0.0194
-0.0169
-0.0105
-0.0013
0.0074
0.0038
-0.0182
-0.0309
-0.0245
-0.0083
0
-0.0016
-0.0035
-0.0131
-0.0089
-0.0102
-0.0124
-0.0166
-0.0172
-0.0092
0.0035
0.015
-0.0016
-0.0239
-0.0265
-0.0134
-0.0057
0.0003
0.001
-0.008
-0.0188
-0.0121
-0.0131
-0.0213
-0.0233
-0.0198
-0.0108
0.001
0.0042
-0.022
-0.0373
-0.0341
-0.0166
-0.0057
-0.0019
-0.0032
-0.0127
-0.0147
-0.0102
-0.0086
-0.0134
-0.0134
-0.0089
-0.0009
0.0077
0.0077
-0.0147
-0.022
-0.0127
-0.0022
0.0026
0.001
-0.0016
-0.0102
-0.0048
-0.007
-0.0102
-0.0137
-0.0108
-0.0016
0.009599999999999999
0.0207
0.008
-0.0095
-0.0102
-0.0003
0.0083
0.014
0.0156
0.0137
0.0035
0.0102
0.009299999999999999
0.0003
-0.0005999999999999999
0.0058
0.0128
0.0204
0.0217
-0.0029
-0.0105
-0.0054
0.009900000000000001
0.015
0.014
0.0163
0.009900000000000001
0.009299999999999999
0.0185
0.0195
0.0112
0.015
0.0249
0.0367
0.0494
0.0453
0.0255
0.0255
0.0399
0.0545
0.0533
0.0491
0.0479
0.0418
0.0494
0.0501
0.0412
0.0309
0.0306
0.0345
0.0338
0.038
0.0217
-0.0035
-0.0121
-0.0048
0.0003
-0.0054
-0.0095
-0.0153
-0.0287
-0.029
-0.0338
-0.0414
-0.0446
-0.0443
-0.0408
-0.028
-0.0242
-0.0491
-0.0625
-0.0609
-0.0497
-0.0427
-0.0376
-0.0335
-0.0443
-0.0491
-0.044
-0.0465
-0.0504
-0.0481
-0.0395
-0.029
-0.0178
-0.022
-0.0462
-0.05
-0.037
-0.0258
-0.0185
-0.0194
-0.0194
-0.0265
-0.0226
-0.0255
-0.03
-0.0274
-0.0178
-0.0108
-0.0064
0.0038
-0.0131
-0.0357
-0.0382
-0.0162
-0.0051
-0.0048
-0.0067
-0.0166
-0.0277
-0.0223
-0.0201
-0.0258
-0.0255
-0.0239
-0.0217
-0.0111
-0.0064
-0.0265
-0.0408
-0.0379
-0.0255
-0.0175
-0.0124
-0.007
-0.0188
-0.0245
-0.022
-0.0217
-0.0265
-0.021
-0.0121
-0.0048
0.0035
0.0038
-0.0182
-0.0217
-0.0089
0.0131
0.0294
0.0383
0.0456
0.044
0.06510000000000001
0.08450000000000001
0.1046
0.1225
0.1413
0.1652
0.2
0.2421
0.2554
0.2554
0.2743
0.3017
0.3256
0.3377
0.3412
0.3345
0.3113
0.2966
0.2695
0.2252
0.177
0.1324
0.0877
0.0383
-0.0134
-0.1033
-0.1916
-0.2529
-0.2981
-0.3444
-0.3976
-0.4496
-0.5048
-0.544
-0.5638
-0.5813
-0.595
-0.5963000000000001
-0.5915
-0.5778
-0.5571
-0.5383
-0.5427
-0.5242
-0.4866
-0.4429
-0.4037
-0.3709
-0.3447
-0.3246
-0.2911
-0.2599
-0.2274
-0.1967
-0.1655
-0.1342
-0.1049
-0.0736
-0.0641
-0.0603
-0.0402
-0.0089
0.0169
0.0322
0.0453
0.0549
0.0593
0.0746
0.0829
0.08359999999999999
0.0832
0.095
0.1126
0.1298
0.1368
0.1123
0.096
0.1021
0.1244
0.1375
0.1343
0.1324
0.1263
0.1241
0.1237
0.1202
0.1148
0.1186
0.1199
0.1304
0.1391
0.1368
0.1116
0.1046
0.1142
0.1209
0.1247
0.1225
0.1222
0.1161
0.1151
0.1145
0.1113
0.104
0.1046
0.1097
0.1167
0.1273
0.1174
0.09089999999999999
0.0852
0.09950000000000001
0.1119
0.1094
0.1072
0.1008
0.08989999999999999
0.0989
0.0989
0.0915
0.09030000000000001
0.0912
0.09569999999999999
0.1049
0.111
0.0922
0.0794
0.0813
0.0896
0.09030000000000001
0.09030000000000001
0.09379999999999999
0.0864
0.0804
0.0823
0.0794
0.07049999999999999
0.0689
0.0689
0.0775
0.0858
0.08359999999999999
0.0577
0.0469
0.0555
0.0679
0.0718
0.0667
0.06569999999999999
0.0568
0.0581
0.0609
0.0581
0.053
0.0536
0.0606
0.06759999999999999
0.0737
0.0635
0.0418
0.0383
0.0539
0.0625
0.0638
0.06320000000000001
0.0609
0.0536
0.0565
0.0533
0.0485
0.0456
0.0517
0.0625
0.074
0.07779999999999999
0.0612
0.0434
0.0424
0.0596
0.0692
0.06759999999999999
0.06510000000000001
0.0606
0.0596
0.0667
0.06569999999999999
0.0549
0.0526
0.06
0.0708
0.0823
0.0852
0.0612
0.0523
0.0549
0.0692
0.0785
0.08450000000000001
0.08989999999999999
0.0813
0.07530000000000001
0.0762
0.0766
0.073
0.0769
0.08260000000000001
0.096
0.1046
0.0998
0.0788
0.07049999999999999
0.0832
0.0941
0.1017
0.1056
0.1046
0.09569999999999999
0.1014
0.0998
0.0944
0.0973
0.1027
0.1081
0.1199
0.1292
0.1107
0.09379999999999999
0.09279999999999999
0.1049
0.1107
0.1129
0.1167
0.1107
0.103
0.1068
0.1062
0.0998
0.0963
0.1011
0.1072
0.1151
0.1174
0.0912
0.0788
0.0858
0.0992
0.1053
0.104
0.097
0.082
0.08169999999999999
0.081
0.075
0.0667
0.0663
0.06859999999999999
0.0743
0.082
0.0689
0.0418
0.0329
0.0396
0.0479
0.0488
0.0434
0.0396
0.0265
0.0252
0.0252
0.0182
0.0121
0.0086
0.0109
0.0166
0.0214
-0.0009
-0.0233
-0.0271
-0.0159
-0.0118
-0.0134
-0.0147
-0.0239
-0.0379
-0.0376
-0.0434
-0.0532
-0.0631
-0.0615
-0.051
-0.0446
-0.0523
-0.0839
-0.0934
-0.0896
-0.0925
-0.0963
-0.0956
-0.095
-0.1068
-0.1116
-0.117
-0.125
-0.1339
-0.1409
-0.1365
-0.1266
-0.1212
-0.1333
-0.1572
-0.1655
-0.1562
-0.1486
-0.1422
-0.1397
-0.1467
-0.1623
-0.1562
-0.1553
-0.1588
-0.1626
-0.1601
-0.153
-0.1409
-0.1298
-0.1425
-0.1578
-0.1607
-0.1508
-0.1409
-0.1361
-0.1333
-0.1377
-0.1397
-0.1336
-0.133
-0.1381
-0.1361
-0.1307
-0.1212
-0.1084
-0.1059
-0.1285
-0.1361
-0.1279
-0.1126
-0.103
-0.1004
-0.09660000000000001
-0.1023
-0.1001
-0.09660000000000001
-0.0953
-0.1008
-0.0963
-0.08450000000000001
-0.0736
-0.0638
-0.07049999999999999
-0.0886
-0.0883
-0.0756
-0.06569999999999999
-0.0567
-0.0532
-0.0545
-0.0641
-0.0577
-0.0615
-0.06279999999999999
-0.0593
-0.0536
-0.0472
-0.0398
-0.0293
-0.0437
-0.0638
-0.06279999999999999
-0.0497
-0.0411
-0.0382
-0.0344
-0.0379
-0.0437
-0.0363
-0.0363
-0.0446
-0.0478
-0.037
-0.0226
-0.0092
-0.0057
-0.0328
-0.0434
-0.0335
-0.0194
-0.0162
-0.0159
-0.0089
-0.0194
-0.0217
-0.0191
-0.0172
-0.0185
-0.0223
-0.0188
-0.0095
0.0016
-0.0048
-0.0293
-0.0341
-0.0239
-0.0118
-0.0016
-0.0022
-0.0086
-0.0204
-0.0172
-0.0137
-0.015
-0.0207
-0.0255
-0.0204
-0.0064
0.0016
-0.0172
-0.0367
-0.0392
-0.0284
-0.0207
-0.0162
-0.0115
-0.0166
-0.0268
-0.0239
-0.0242
-0.03
-0.0335
-0.0213
-0.0095
0.0029
0.0058
-0.0226
-0.0338
-0.0258
-0.0147
-0.0134
-0.009900000000000001
-0.0076
-0.0159
-0.021
-0.0169
-0.0178
-0.0261
-0.0265
-0.0201
-0.0102
-0.0019
-0.0086
-0.0354
-0.0386
-0.0229
-0.0111
-0.0095
-0.0108
-0.0121
-0.0213
-0.0166
-0.0166
-0.0252
-0.0255
-0.0239
-0.0185
-0.008
0.001
-0.0153
-0.0338
-0.0335
-0.0204
-0.0121
-0.0115
-0.009900000000000001
-0.0143
-0.0242
-0.0175
-0.0159
-0.0204
-0.0245
-0.0198
-0.0111
-0.0038
-0.0016
-0.0213
-0.028
-0.0284
-0.0191
-0.0143
-0.0108
-0.0089
-0.0213
-0.0217
-0.0207
-0.0213
-0.0268
-0.0242
-0.0204
-0.0095
-0.0029
-0.0095
-0.028
-0.0322
-0.0239
-0.0143
-0.0095
-0.0054
-0.0083
-0.0182
-0.014
-0.0137
-0.0159
-0.0182
-0.0185
-0.0115
0.0038
0.009299999999999999
-0.0064
-0.0261
-0.0277
-0.0118
-0.0076
-0.0032
-0.0025
-0.0134
-0.0162
-0.0102
-0.0172
-0.0178
-0.0191
-0.0159
-0.006
0.0022
-0.0025
-0.0255
-0.0265
-0.0213
-0.0092
-0.0073
-0.008
-0.0029
-0.0111
-0.0131
-0.0159
-0.0162
-0.022
-0.0236
-0.0194
-0.007
0.0022
-0.0083
-0.0331
-0.036
-0.0198
-0.0115
-0.009900000000000001
-0.006
-0.0089
-0.0182
-0.0156
-0.0159
-0.0207
-0.0201
-0.0162
-0.008
0.0045
0.0112
-0.0029
-0.0239
-0.0245
-0.0064
-0.0009
0.0026
0.0035
0.0007
-0.007
-0.0022
-0.0009
-0.0022
-0.0029
-0.0035
0.007
0.0198
0.0255
0
-0.009900000000000001
-0.0083
0.0035
0.0144
0.0144
0.014
0.0115
0.0089
0.009599999999999999
0.0032
-0.0076
-0.0019
0.0086
0.0176
0.0278
0.0233
0.0003
-0.0121
-0.0051
0.0105
0.0201
0.0198
0.0144
0.0045
0.0105
0.009599999999999999
0.0054
0.0029
0.0035
0.009900000000000001
0.0201
0.029
0.015
-0.0044
-0.0083
0.0026
0.0105
0.0185
0.0182
0.0156
0.007
0.0112
0.0125
0.0125
0.0121
0.0109
0.0163
0.0294
0.037
0.0223
0.0125
0.0118
0.0243
0.0322
0.0367
0.0383
0.0329
0.03
0.0297
0.0255
0.0198
0.0204
0.0252
0.0309
0.0396
0.0357
0.0032
-0.006
0.0026
0.0109
0.009900000000000001
0.0067
0.0026
-0.007
-0.014
-0.0233
-0.0277
-0.0335
-0.0322
-0.0249
-0.0172
-0.0127
-0.0312
-0.0548
-0.059
-0.0449
-0.0341
-0.0312
-0.0303
-0.0382
-0.0453
-0.037
-0.0354
-0.0424
-0.0434
-0.0395
-0.0312
-0.0191
-0.0162
-0.0363
-0.05
-0.0462
-0.0316
-0.0255
-0.0239
-0.0217
-0.0338
-0.0382
-0.0309
-0.029
-0.0335
-0.0344
-0.0328
-0.0252
-0.0102
-0.0124
-0.0373
-0.0405
-0.0306
-0.0233
-0.0191
-0.0188
-0.0217
-0.0284
-0.0226
-0.0233
-0.0268
-0.0284
-0.0245
-0.021
-0.0092
0.0032
-0.0089
-0.03
-0.0325
-0.0191
-0.0108
-0.006
-0.0035
-0.0083
-0.014
-0.0041
-0.009900000000000001
-0.0213
-0.0245
-0.0162
-0.0064
-0.0022
0.0007
-0.0194
-0.0255
-0.0185
-0.0029
0.0118
0.0214
0.029
0.0335
0.0443
0.0654
0.08359999999999999
0.1008
0.1228
0.148
0.1808
0.2197
0.2421
0.2433
0.2641
0.2912
0.3135
0.3275
0.3317
0.3364
0.3164
0.2969
0.2778
0.2475
0.2028
0.154
0.1078
0.0606
0.0115
-0.0638
-0.1521
-0.2191
-0.2698
-0.317
-0.3677
-0.4161
-0.4633
-0.5134
-0.5411
-0.5638
-0.5823
-0.5921999999999999
-0.5901999999999999
-0.5746
-0.5526
-0.5328000000000001
-0.5354
-0.521
-0.4911
-0.4541
-0.4241
-0.3929
-0.3568
-0.3316
-0.3083
-0.2739
-0.2449
-0.2175
-0.191
-0.1607
-0.125
-0.0893
-0.07049999999999999
-0.0752
-0.0593
-0.0306
0.0013
0.0201
0.0354
0.0463
0.051
0.06510000000000001
0.0759
0.08169999999999999
0.0823
0.08989999999999999
0.1037
0.1196
0.1298
0.1209
0.104
0.1056
0.1218
0.1304
0.1359
0.1378
0.1355
0.1273
0.132
0.1346
0.1292
0.1263
0.1314
0.1378
0.1464
0.1483
0.1273
0.1142
0.1174
0.1269
0.1314
0.1327
0.133
0.1222
0.1164
0.1199
0.1174
0.1059
0.1046
0.1091
0.1174
0.1269
0.1225
0.09660000000000001
0.0861
0.0925
0.09950000000000001
0.1059
0.1056
0.1027
0.0919
0.0906
0.09089999999999999
0.0906
0.0864
0.0871
0.0906
0.0963
0.1059
0.0973
0.0785
0.0708
0.0772
0.081
0.08740000000000001
0.0919
0.08550000000000001
0.07240000000000001
0.0743
0.073
0.0635
0.0549
0.0568
0.06569999999999999
0.0766
0.0813
0.059
0.0431
0.0459
0.0581
0.0593
0.0571
0.0616
0.0577
0.0533
0.0498
0.0488
0.0443
0.0463
0.0456
0.0466
0.0593
0.0612
0.0329
0.0243
0.0335
0.0469
0.0533
0.053
0.0501
0.0402
0.044
0.0472
0.0447
0.0434
0.0463
0.052
0.0616
0.0708
0.0593
0.0399
0.0376
0.0539
0.06510000000000001
0.06759999999999999
0.0679
0.0673
0.0561
0.0609
0.0622
0.0616
0.06279999999999999
0.0667
0.0743
0.0842
0.09089999999999999
0.0743
0.0638
0.0635
0.0746
0.0848
0.0877
0.0883
0.081
0.0804
0.0848
0.0852
0.0785
0.0788
0.08450000000000001
0.097
0.1091
0.1107
0.0852
0.075
0.0871
0.0989
0.1037
0.1062
0.1059
0.0989
0.1021
0.103
0.1011
0.095
0.0998
0.1107
0.1196
0.1276
0.1161
0.0963
0.09569999999999999
0.1094
0.1151
0.1186
0.1212
0.1202
0.1097
0.1145
0.1123
0.1017
0.1011
0.1059
0.1135
0.119
0.1202
0.096
0.0852
0.0883
0.09950000000000001
0.0998
0.0973
0.0998
0.09089999999999999
0.0829
0.0832
0.0788
0.07049999999999999
0.0683
0.07049999999999999
0.0775
0.0848
0.0801
0.0539
0.0447
0.0514
0.0581
0.0577
0.0581
0.0558
0.0408
0.0424
0.044
0.0322
0.0134
0.0112
0.0163
0.0201
0.0217
0.0064
-0.0204
-0.0322
-0.0252
-0.0217
-0.0226
-0.0268
-0.0389
-0.0542
-0.0536
-0.0561
-0.06279999999999999
-0.0717
-0.07240000000000001
-0.0644
-0.0583
-0.0593
-0.08069999999999999
-0.1027
-0.1081
-0.0988
-0.0921
-0.0941
-0.095
-0.1094
-0.1218
-0.1186
-0.1199
-0.1307
-0.1352
-0.1355
-0.1291
-0.1234
-0.1237
-0.1515
-0.1648
-0.1601
-0.146
-0.1403
-0.1387
-0.1419
-0.1527
-0.1556
-0.1566
-0.1569
-0.1591
-0.1559
-0.1518
-0.1473
-0.1368
-0.1441
-0.169
-0.1712
-0.1569
-0.1486
-0.147
-0.1438
-0.1473
-0.1572
-0.1476
-0.1467
-0.1479
-0.1479
-0.1444
-0.1339
-0.1237
-0.1119
-0.1253
-0.1377
-0.1352
-0.1164
-0.1103
-0.1074
-0.1027
-0.1052
-0.1065
-0.1011
-0.1033
-0.1062
-0.1017
-0.09660000000000001
-0.0867
-0.07489999999999999
-0.07240000000000001
-0.09470000000000001
-0.09950000000000001
-0.0886
-0.0775
-0.0717
-0.06759999999999999
-0.065
-0.0727
-0.074
-0.07140000000000001
-0.0692
-0.0644
-0.0638
-0.0603
-0.0491
-0.0351
-0.0389
-0.0593
-0.0625
-0.0469
-0.0347
-0.029
-0.0261
-0.0255
-0.0354
-0.0309
-0.0328
-0.0389
-0.0408
-0.0338
-0.0233
-0.0191
-0.0137
-0.0338
-0.0523
-0.0494
-0.0328
-0.0268
-0.0207
-0.0217
-0.0303
-0.0319
-0.0229
-0.0252
-0.0386
-0.0379
-0.029
-0.0166
-0.0029
-0.0013
-0.0284
-0.0395
-0.0338
-0.0191
-0.0156
-0.015
-0.0124
-0.0204
-0.0233
-0.0201
-0.0188
-0.0258
-0.0239
-0.0159
-0.0064
0.0026
-0.007
-0.0284
-0.0331
-0.0194
-0.0118
-0.0105
-0.0073
-0.0067
-0.0178
-0.014
-0.009900000000000001
-0.0153
-0.0213
-0.0204
-0.0147
-0.0044
0.0038
-0.0166
-0.036
-0.0316
-0.0153
-0.0124
-0.0137
-0.0118
-0.0166
-0.0245
-0.0188
-0.0166
-0.0239
-0.0277
-0.0236
-0.0121
0.001
0.0042
-0.0242
-0.0363
-0.0319
-0.0185
-0.0131
-0.0111
-0.0051
-0.0159
-0.0172
-0.0188
-0.0261
-0.0284
-0.0252
-0.0178
-0.0076
0.0019
-0.0048
-0.0309
-0.0338
-0.0204
-0.0137
-0.0092
-0.008
-0.0118
-0.021
-0.0153
-0.0137
-0.0182
-0.022
-0.0239
-0.0201
-0.0121
-0.0025
-0.0191
-0.0357
-0.0331
-0.0201
-0.0143
-0.0143
-0.0159
-0.0229
-0.0303
-0.022
-0.0194
-0.0268
-0.0316
-0.0274
-0.0182
-0.0115
-0.0105
-0.0312
-0.0373
-0.0312
-0.0191
-0.0131
-0.015
-0.0166
-0.0226
-0.0178
-0.0137
-0.0245
-0.0322
-0.0287
-0.0201
-0.0041
0.008
-0.0029
-0.0328
-0.0418
-0.0309
-0.0172
-0.009900000000000001
-0.0118
-0.014
-0.0233
-0.0213
-0.0217
-0.0255
-0.029
-0.0277
-0.0188
-0.0118
-0.0054
-0.0204
-0.0347
-0.0351
-0.0236
-0.0162
-0.015
-0.0115
-0.0188
-0.0255
-0.0198
-0.0204
-0.0271
-0.028
-0.0226
-0.0137
-0.0009
-0.0005999999999999999
-0.0252
-0.0357
-0.0303
-0.0156
-0.006
-0.007
-0.0092
-0.0191
-0.021
-0.0198
-0.0204
-0.0255
-0.0233
-0.0156
-0.0057
0.0026
-0.0035
-0.0287
-0.0379
-0.0245
-0.009900000000000001
-0.0032
0
-0.0009
-0.0143
-0.0102
-0.0092
-0.014
-0.0159
-0.0083
-0.0003
0.0086
0.0153
0
-0.0185
-0.0207
-0.0057
0.0013
0.0032
0.0054
0
-0.0073
-0.0013
-0.0003
-0.0067
-0.0083
-0.0048
0.0058
0.0182
0.0192
-0.0073
-0.0162
-0.0035
0.0125
0.0188
0.0137
0.0118
0.0067
0.0058
0.0061
0.0061
0.0007
0.001
0.0019
0.0121
0.0223
0.0166
-0.0108
-0.0207
-0.0118
0
0.0083
0.0109
0.0118
0.0013
0.0054
0.0054
0.0016
-0.0057
-0.0009
0.014
0.0303
0.0405
0.0217
0.0029
0.0048
0.0227
0.0332
0.038
0.0383
0.0325
0.0255
0.0313
0.0306
0.0243
0.0262
0.0325
0.0415
0.0453
0.0447
0.0185
0.0035
0.0061
0.0163
0.0211
0.0204
0.0153
-0.0041
-0.0086
-0.0073
-0.0121
-0.021
-0.0258
-0.0249
-0.022
-0.0111
-0.015
-0.0469
-0.0561
-0.044
-0.0363
-0.0328
-0.0338
-0.0357
-0.0475
-0.0437
-0.0449
-0.0475
-0.0504
-0.0462
-0.0402
-0.0316
-0.0245
-0.0354
-0.052
-0.0542
-0.043
-0.0309
-0.0284
-0.0258
-0.028
-0.0354
-0.0328
-0.0322
-0.0319
-0.0354
-0.0338
-0.0252
-0.0131
-0.0108
-0.0363
-0.0437
-0.0351
-0.0242
-0.0175
-0.0188
-0.0204
-0.0261
-0.0255
-0.0255
-0.0258
-0.0354
-0.0335
-0.0268
-0.0175
-0.0057
-0.007
-0.0373
-0.0456
-0.0328
-0.0239
-0.0191
-0.0162
-0.0166
-0.0258
-0.0204
-0.0188
-0.0233
-0.0261
-0.022
-0.014
-0.0089
-0.0013
-0.0102
-0.0277
-0.03
-0.0159
-0.0073
-0.0019
0.0032
0.0003
-0.0005999999999999999
0.009599999999999999
0.0134
0.0195
0.0322
0.0536
0.0804
0.1094
0.1295
0.1285
0.1429
0.1709
0.207
0.2357
0.2583
0.2851
0.2969
0.3077
0.3186
0.3202
0.3113
0.3001
0.2854
0.2717
0.243
0.191
0.1193
0.067
0.0239
-0.029
-0.0867
-0.1553
-0.221
-0.2911
-0.3425
-0.3964
-0.448
-0.4975
-0.5281
-0.5478
-0.5571
-0.5593
-0.5790999999999999
-0.595
-0.5877
-0.5619
-0.5351
-0.5153
-0.4917
-0.4659
-0.4429
-0.4088
-0.374
-0.3476
-0.3208
-0.2876
-0.2529
-0.2076
-0.1706
-0.1642
-0.1527
-0.1234
-0.08989999999999999
-0.0622
-0.0354
-0.0108
0.0007
0.0102
0.0265
0.0408
0.0475
0.0587
0.075
0.096
0.1107
0.1126
0.09660000000000001
0.09660000000000001
0.1132
0.1257
0.1336
0.1362
0.1371
0.1279
0.1343
0.1365
0.1359
0.1349
0.1333
0.1384
0.148
0.1534
0.1445
0.125
0.1218
0.1352
0.1397
0.1416
0.1394
0.1355
0.1269
0.1276
0.125
0.1225
0.1209
0.1196
0.1202
0.1285
0.1365
0.1145
0.0973
0.09859999999999999
0.1097
0.1164
0.1164
0.1167
0.104
0.0954
0.0973
0.1005
0.0954
0.0944
0.0912
0.0989
0.1091
0.1046
0.0829
0.0813
0.0864
0.0864
0.089
0.0944
0.096
0.0813
0.0788
0.0762
0.0718
0.06950000000000001
0.0711
0.0772
0.0813
0.08450000000000001
0.0699
0.0488
0.0443
0.0593
0.06569999999999999
0.0699
0.07140000000000001
0.06569999999999999
0.0565
0.0581
0.0542
0.0526
0.0549
0.0549
0.0616
0.07240000000000001
0.0791
0.06
0.045
0.0408
0.0542
0.0635
0.06759999999999999
0.0683
0.0574
0.0494
0.0549
0.0549
0.0488
0.0498
0.0561
0.0673
0.07530000000000001
0.0689
0.0431
0.0396
0.0552
0.0663
0.06759999999999999
0.0692
0.0692
0.0565
0.0568
0.0577
0.0565
0.0549
0.0549
0.0587
0.0702
0.082
0.06759999999999999
0.0447
0.0396
0.0542
0.066
0.074
0.0772
0.0702
0.0596
0.0692
0.07240000000000001
0.0689
0.06569999999999999
0.0711
0.0829
0.09859999999999999
0.1053
0.0832
0.07140000000000001
0.0766
0.09089999999999999
0.0989
0.1024
0.1084
0.1001
0.09760000000000001
0.1059
0.1056
0.095
0.09279999999999999
0.1008
0.1142
0.1295
0.1285
0.09760000000000001
0.089
0.096
0.1084
0.1186
0.1218
0.1218
0.1123
0.1123
0.1097
0.1081
0.1075
0.1072
0.1139
0.1241
0.134
0.118
0.09279999999999999
0.0919
0.1046
0.111
0.1119
0.1119
0.1081
0.09569999999999999
0.09859999999999999
0.09569999999999999
0.089
0.0852
0.0852
0.09569999999999999
0.1027
0.1037
0.0801
0.06279999999999999
0.06
0.07140000000000001
0.0759
0.0746
0.0727
0.0616
0.0526
0.0533
0.0456
0.0316
0.0281
0.0319
0.038
0.0469
0.0392
0.0061
-0.0048
-0.0005999999999999999
0.0064
0.0121
0.007
-0.0025
-0.0229
-0.0252
-0.0252
-0.0312
-0.0414
-0.0465
-0.0456
-0.0411
-0.0344
-0.0488
-0.07779999999999999
-0.0858
-0.0823
-0.0794
-0.0781
-0.07779999999999999
-0.0851
-0.1008
-0.0969
-0.103
-0.1106
-0.1177
-0.1228
-0.1173
-0.1084
-0.1059
-0.1323
-0.1515
-0.1499
-0.1371
-0.1333
-0.1352
-0.1339
-0.1441
-0.1495
-0.1448
-0.1486
-0.1582
-0.1569
-0.1499
-0.1425
-0.1342
-0.1377
-0.1597
-0.1623
-0.1559
-0.147
-0.1432
-0.1393
-0.1371
-0.1479
-0.1448
-0.1419
-0.1416
-0.1435
-0.1428
-0.1361
-0.1218
-0.1097
-0.1199
-0.1368
-0.1381
-0.1259
-0.1135
-0.1052
-0.1014
-0.1059
-0.1135
-0.1049
-0.1052
-0.1043
-0.1043
-0.1027
-0.0915
-0.0791
-0.07140000000000001
-0.0921
-0.1046
-0.09950000000000001
-0.0848
-0.0784
-0.0756
-0.0721
-0.0736
-0.0781
-0.074
-0.07489999999999999
-0.08069999999999999
-0.07679999999999999
-0.06850000000000001
-0.059
-0.0488
-0.0497
-0.0721
-0.07870000000000001
-0.0698
-0.0548
-0.0478
-0.0456
-0.0456
-0.0516
-0.051
-0.0478
-0.044
-0.0449
-0.0481
-0.0424
-0.0274
-0.014
-0.0201
-0.0411
-0.0459
-0.0379
-0.0338
-0.0261
-0.021
-0.0229
-0.0328
-0.0312
-0.0382
-0.0424
-0.0462
-0.0469
-0.037
-0.0284
-0.0213
-0.0392
-0.059
-0.059
-0.0414
-0.036
-0.0344
-0.0319
-0.0347
-0.0351
-0.0309
-0.0347
-0.0405
-0.0411
-0.0309
-0.0226
-0.0108
-0.006
-0.0284
-0.0379
-0.0316
-0.0182
-0.0137
-0.0111
-0.0115
-0.0204
-0.021
-0.0194
-0.0207
-0.0261
-0.0261
-0.0191
-0.0102
-0.007
-0.015
-0.0373
-0.0421
-0.0258
-0.014
-0.015
-0.0172
-0.0185
-0.0271
-0.0194
-0.0213
-0.0255
-0.0284
-0.0268
-0.0169
-0.0054
-0.0009
-0.0185
-0.0325
-0.0331
-0.0217
-0.0172
-0.0153
-0.0131
-0.0188
-0.0242
-0.0239
-0.0252
-0.0316
-0.0277
-0.0233
-0.0166
-0.008
-0.0111
-0.0351
-0.043
-0.0354
-0.0223
-0.0172
-0.0134
-0.014
-0.0229
-0.0261
-0.0255
-0.0258
-0.0293
-0.0293
-0.0249
-0.0124
-0.0038
-0.0127
-0.0376
-0.0424
-0.0261
-0.0156
-0.0143
-0.0143
-0.0182
-0.03
-0.0229
-0.0188
-0.0242
-0.0277
-0.0284
-0.0255
-0.0166
-0.0105
-0.0255
-0.0411
-0.043
-0.0325
-0.0249
-0.0268
-0.0271
-0.0319
-0.036
-0.0312
-0.0309
-0.0357
-0.0389
-0.0418
-0.0309
-0.0169
-0.009900000000000001
-0.0354
-0.0481
-0.0424
-0.028
-0.0198
-0.0207
-0.0242
-0.0347
-0.036
-0.0344
-0.0354
-0.0382
-0.0373
-0.0287
-0.0191
-0.0118
-0.0213
-0.044
-0.0449
-0.036
-0.0258
-0.0204
-0.0191
-0.0236
-0.0331
-0.0296
-0.0322
-0.0347
-0.0338
-0.0306
-0.0268
-0.0194
-0.0105
-0.0268
-0.0453
-0.0453
-0.0316
-0.0185
-0.0143
-0.0156
-0.0213
-0.0265
-0.0239
-0.0233
-0.0274
-0.029
-0.0233
-0.0115
-0.0022
0.0016
-0.0242
-0.0354
-0.0287
-0.015
-0.006
-0.0057
-0.0067
-0.0166
-0.0162
-0.0124
-0.0115
-0.0175
-0.0185
-0.0121
-0.0048
0.007
0.0032
-0.0172
-0.0217
-0.0131
-0.0041
0.0019
0.0029
0.0013
-0.0067
0.0007
-0.0003
-0.0038
-0.0064
-0.006
0.0029
0.0109
0.0176
0.0035
-0.0108
-0.0105
-0.0019
0.0026
0.008
0.0115
0.0064
-0.0009
-0.0009
-0.0029
-0.0054
-0.0025
0.0007
0.0105
0.0214
0.0223
-0.0009
-0.0073
0.0019
0.0112
0.0131
0.0153
0.0118
0.0029
0.0067
0.0064
0.0061
0.0022
0.0013
0.0077
0.0153
0.0268
0.0166
-0.0159
-0.0191
0.0019
0.0182
0.0131
0.0128
0.0137
0.0074
0.009599999999999999
0.0029
-0.0029
0.001
0.0077
0.0112
0.0172
0.0217
0.0061
-0.0048
-0.0064
0.001
0.0086
0.0131
0.0176
0.0153
0.0061
0.009299999999999999
0.0086
0.0048
0.0045
0.014
0.0243
0.038
0.0402
0.0147
0.008
0.0156
0.0316
0.0376
0.0405
0.0437
0.0361
0.0364
0.0405
0.037
0.0319
0.0338
0.0408
0.0479
0.0536
0.0459
0.0179
0.0086
0.0179
0.0271
0.0313
0.0265
0.0188
0.0064
0.0051
0.0003
-0.0054
-0.0131
-0.0166
-0.015
-0.0044
-0.0005999999999999999
-0.0194
-0.0395
-0.0424
-0.0338
-0.028
-0.0242
-0.0284
-0.0344
-0.0443
-0.0386
-0.0367
-0.0402
-0.0395
-0.036
-0.0316
-0.0226
-0.0204
-0.043
-0.0481
-0.043
-0.0296
-0.0207
-0.0175
-0.0178
-0.0271
-0.0309
-0.0277
-0.0293
-0.0341
-0.0306
-0.0245
-0.0166
-0.007
-0.009900000000000001
-0.0312
-0.0363
-0.0271
-0.0207
-0.0127
-0.0095
-0.0102
-0.0188
-0.0121
-0.0131
-0.0233
-0.0245
-0.0182
-0.0105
-0.0013
0.0064
-0.0083
-0.0271
-0.028
-0.0134
-0.0067
-0.0073
-0.0057
-0.0089
-0.0143
-0.0092
-0.0102
-0.0207
-0.0172
-0.0105
0.001
0.008
0.0051
-0.0185
-0.0201
-0.0131
-0.0086
-0.0048
0.0035
0.007
-0.0025
-0.0009
0.009299999999999999
0.0156
0.0227
0.0322
0.0488
0.0775
0.11
0.1215
0.1183
0.1387
0.1713
0.2089
0.2405
0.2653
0.287
0.2931
0.3176
0.3329
0.3304
0.3282
0.3231
0.3071
0.2912
0.266
0.2124
0.1521
0.097
0.0536
-0.0025
-0.0587
-0.1218
-0.1932
-0.2663
-0.3182
-0.376
-0.4289
-0.4751
-0.5083
-0.5284
-0.5395
-0.5513
-0.5829
-0.5944
-0.5788
-0.5574
-0.5392
-0.5172
-0.4911
-0.4735
-0.4471
-0.4155
-0.3884
-0.3629
-0.3316
-0.295
-0.2573
-0.2159
-0.1846
-0.1846
-0.168
-0.1275
-0.095
-0.06469999999999999
-0.043
-0.022
-0.0124
0.0074
0.0236
0.0316
0.0408
0.0539
0.0772
0.0979
0.1142
0.1027
0.08799999999999999
0.0912
0.1123
0.1263
0.1343
0.1403
0.134
0.126
0.1336
0.133
0.1253
0.1279
0.1359
0.1432
0.1524
0.1544
0.1273
0.1164
0.1228
0.1365
0.1442
0.1413
0.1426
0.1317
0.1244
0.1288
0.1311
0.1266
0.1206
0.1225
0.1371
0.1493
0.1378
0.111
0.1091
0.1174
0.1237
0.1295
0.1279
0.1273
0.1142
0.1129
0.111
0.1068
0.103
0.1008
0.1065
0.1151
0.1186
0.1011
0.0772
0.0727
0.0842
0.09379999999999999
0.0944
0.0906
0.0788
0.0689
0.0759
0.073
0.06859999999999999
0.0663
0.0644
0.0708
0.0801
0.0832
0.0603
0.0494
0.0523
0.0648
0.0708
0.07140000000000001
0.0711
0.0635
0.0606
0.0663
0.0692
0.06
0.0574
0.0593
0.0699
0.0864
0.0813
0.0523
0.0459
0.0571
0.067
0.07140000000000001
0.0746
0.0718
0.0606
0.0625
0.0635
0.0612
0.0581
0.0558
0.06
0.07049999999999999
0.0832
0.0718
0.0507
0.0504
0.0625
0.0667
0.06950000000000001
0.0737
0.07140000000000001
0.0635
0.0667
0.06569999999999999
0.0619
0.0593
0.0648
0.0766
0.0864
0.0887
0.06279999999999999
0.0514
0.0574
0.0737
0.0794
0.0804
0.0813
0.0721
0.0711
0.0746
0.0743
0.0708
0.0692
0.0743
0.08550000000000001
0.0973
0.095
0.0699
0.06510000000000001
0.0766
0.0839
0.089
0.0931
0.095
0.0883
0.0941
0.0954
0.0864
0.08260000000000001
0.08989999999999999
0.09859999999999999
0.1097
0.1196
0.1075
0.08260000000000001
0.081
0.1001
0.1119
0.1155
0.117
0.1119
0.1014
0.1065
0.0998
0.0954
0.096
0.1021
0.1116
0.1158
0.1113
0.0919
0.0823
0.0832
0.0896
0.09279999999999999
0.0931
0.09470000000000001
0.0842
0.0785
0.0785
0.075
0.06859999999999999
0.0679
0.0708
0.0785
0.0877
0.081
0.0526
0.0434
0.0533
0.0612
0.06279999999999999
0.0603
0.06
0.0469
0.0479
0.0427
0.0332
0.0255
0.0258
0.0303
0.0373
0.0469
0.0316
0.0054
-0.0048
0.0045
0.0109
0.0118
0.0089
-0.0009
-0.0156
-0.0134
-0.0175
-0.0284
-0.0316
-0.0319
-0.0312
-0.0277
-0.0265
-0.0532
-0.0717
-0.0736
-0.065
-0.0618
-0.0631
-0.06660000000000001
-0.08160000000000001
-0.0864
-0.08989999999999999
-0.09719999999999999
-0.1046
-0.1062
-0.1059
-0.1014
-0.0944
-0.1036
-0.1317
-0.1381
-0.1326
-0.1234
-0.1224
-0.1263
-0.1275
-0.1397
-0.1352
-0.1358
-0.1406
-0.1457
-0.146
-0.14
-0.1339
-0.1314
-0.1355
-0.1511
-0.1521
-0.1432
-0.1336
-0.1355
-0.1358
-0.1381
-0.14
-0.132
-0.1317
-0.1374
-0.139
-0.1377
-0.132
-0.1215
-0.1145
-0.1323
-0.1444
-0.1406
-0.1285
-0.1228
-0.1196
-0.1196
-0.1269
-0.1301
-0.1272
-0.1253
-0.1298
-0.1266
-0.118
-0.1087
-0.0956
-0.096
-0.1196
-0.124
-0.109
-0.09660000000000001
-0.089
-0.0835
-0.08
-0.08799999999999999
-0.0864
-0.0851
-0.0867
-0.0848
-0.0743
-0.0654
-0.0577
-0.0488
-0.058
-0.0752
-0.07779999999999999
-0.0622
-0.0536
-0.05
-0.044
-0.0456
-0.0536
-0.0478
-0.0488
-0.0516
-0.0516
-0.0481
-0.0405
-0.028
-0.021
-0.0418
-0.0529
-0.0532
-0.0402
-0.0306
-0.0258
-0.0245
-0.0335
-0.0367
-0.0306
-0.0312
-0.0351
-0.0354
-0.0303
-0.0201
-0.0092
-0.0108
-0.0351
-0.0386
-0.0319
-0.0207
-0.0134
-0.0131
-0.0131
-0.0223
-0.0194
-0.0191
-0.0204
-0.0255
-0.0258
-0.021
-0.006
0.0058
-0.0064
-0.029
-0.0335
-0.0226
-0.0111
-0.0032
-0.0003
-0.006
-0.0175
-0.0105
-0.0147
-0.0178
-0.0185
-0.0166
-0.0121
0
0.0074
-0.0143
-0.0312
-0.0306
-0.0162
-0.0086
-0.007
-0.0025
-0.0121
-0.021
-0.0166
-0.0169
-0.0188
-0.0143
-0.0108
-0.0048
0.0058
0.008
-0.0166
-0.0198
-0.0127
-0.0064
-0.006
-0.0064
-0.0029
-0.0095
-0.009900000000000001
-0.0131
-0.0185
-0.0255
-0.0242
-0.0188
-0.0131
-0.0044
-0.0143
-0.0386
-0.0434
-0.0309
-0.0229
-0.015
-0.0064
-0.0108
-0.022
-0.0188
-0.021
-0.0217
-0.0194
-0.015
-0.0073
0.0038
0.0102
-0.0083
-0.0178
-0.0194
-0.0095
-0.0016
0.0042
0.0048
-0.0019
-0.0083
-0.0048
-0.0057
-0.0108
-0.009900000000000001
-0.0048
0.0019
0.0109
0.0105
-0.015
-0.0242
-0.0166
-0.008
0.0019
0.0048
0.0022
-0.0108
-0.0118
-0.0127
-0.0166
-0.0191
-0.0182
-0.0143
-0.0048
0.0029
-0.0083
-0.0325
-0.0376
-0.0249
-0.0169
-0.0143
-0.0131
-0.0166
-0.0268
-0.0236
-0.0252
-0.0265
-0.0265
-0.0268
-0.0188
-0.0064
0
-0.0191
-0.0322
-0.0316
-0.0178
-0.009900000000000001
-0.0057
-0.006
-0.0124
-0.0175
-0.014
-0.0169
-0.0226
-0.0217
-0.0162
-0.0041
0.0042
-0.0022
-0.0258
-0.0306
-0.022
-0.0131
-0.0073
-0.0051
-0.0022
-0.0124
-0.0089
-0.008
-0.0073
-0.0131
-0.0127
-0.0083
0.0013
0.0134
0.0067
-0.0127
-0.0185
-0.0048
0.0051
0.0105
0.0131
0.009599999999999999
-0.0073
-0.007
-0.0032
-0.0025
-0.0041
-0.0022
0.008
0.0144
0.0192
-0.0051
-0.0223
-0.021
-0.0032
0.0022
0.0013
0.0035
-0.0009
-0.0073
-0.0038
-0.0102
-0.0175
-0.0175
-0.0083
0.0035
0.0131
0.0115
-0.0137
-0.0252
-0.0185
-0.0041
0.0064
0.009299999999999999
0.0032
-0.0067
-0.0029
-0.0003
-0.0029
-0.0051
-0.0076
-0.0019
0.0109
0.0227
0.009299999999999999
-0.0121
-0.0178
-0.0064
0.0026
0.0054
0.0083
0.0054
-0.007
-0.0035
-0.0048
-0.0073
-0.0092
-0.0086
-0.0009
0.0128
0.0182
-0.0035
-0.0118
-0.0083
0.0064
0.0144
0.0121
0.0131
0.0077
0.0035
0.009299999999999999
0.0115
0.0067
0.0035
0.0042
0.0118
0.0297
0.0335
0.0038
-0.0067
0.0026
0.0169
0.0198
0.0211
0.0262
0.0223
0.0255
0.0258
0.0236
0.0198
0.0227
0.0335
0.0447
0.0561
0.052
0.0335
0.0316
0.0469
0.0558
0.0606
0.06510000000000001
0.0616
0.0514
0.0625
0.06320000000000001
0.0609
0.0549
0.0504
0.0536
0.0641
0.0692
0.0459
0.0262
0.0207
0.0319
0.0325
0.0294
0.0255
0.0125
0.0038
0.001
-0.0025
-0.0105
-0.0147
-0.0131
-0.008
-0.0005999999999999999
-0.0029
-0.0277
-0.0363
-0.029
-0.0207
-0.0166
-0.0169
-0.0162
-0.0274
-0.0255
-0.0236
-0.0217
-0.0265
-0.0258
-0.0175
-0.007
0.0061
0.0007
-0.022
-0.0287
-0.0166
-0.0064
0.0003
0.0064
0.0048
-0.0051
0.001
-0.0003
-0.0064
-0.0089
-0.0051
0.0064
0.0188
0.022
-0.0025
-0.015
-0.0153
-0.0013
0.009900000000000001
0.008
0.0022
-0.0029
-0.0076
-0.0025
-0.0025
-0.0153
-0.0159
-0.0083
0.0022
0.0105
0.007
-0.0252
-0.0306
-0.0182
-0.0051
-0.0003
-0.0005999999999999999
-0.0029
-0.0121
-0.0086
-0.008
-0.0127
-0.0194
-0.0207
-0.0134
-0.0005999999999999999
0.0115
0.0003
-0.0233
-0.0303
-0.0188
-0.0032
0.008
0.0169
0.0172
0.0176
0.0361
0.0463
0.0571
0.0711
0.09379999999999999
0.1202
0.155
0.1866
0.1904
0.2038
0.2322
0.2714
0.295
0.3128
0.3336
0.3396
0.3342
0.3361
0.317
0.2886
0.2641
0.2331
0.198
0.1611
0.1056
0.0214
-0.0459
-0.1033
-0.1671
-0.2245
-0.2835
-0.3374
-0.3999
-0.4509
-0.4939
-0.5293
-0.5593
-0.5788
-0.5823
-0.5780999999999999
-0.5635
-0.5638
-0.5746
-0.5641
-0.5309
-0.4968
-0.464
-0.433
-0.4098
-0.3919
-0.3536
-0.3201
-0.2921
-0.264
-0.2337
-0.1987
-0.1617
-0.1215
-0.1129
-0.1074
-0.0934
-0.0587
-0.028
-0.0041
0.0134
0.0204
0.0271
0.0396
0.0488
0.0549
0.0603
0.07049999999999999
0.0858
0.1027
0.1072
0.08359999999999999
0.0781
0.08989999999999999
0.103
0.1129
0.1167
0.1164
0.1062
0.1075
0.1091
0.1107
0.1097
0.1126
0.118
0.1253
0.1285
0.1174
0.0963
0.0963
0.1088
0.1139
0.1148
0.1158
0.1119
0.1011
0.1021
0.1005
0.0944
0.0842
0.08550000000000001
0.09470000000000001
0.1056
0.1142
0.0941
0.0769
0.0708
0.08169999999999999
0.0877
0.09030000000000001
0.0919
0.08359999999999999
0.0727
0.075
0.07140000000000001
0.06859999999999999
0.0679
0.0702
0.07340000000000001
0.082
0.08359999999999999
0.0561
0.0453
0.0501
0.06320000000000001
0.0679
0.0673
0.066
0.0565
0.0555
0.0542
0.0568
0.0507
0.052
0.0568
0.06510000000000001
0.06950000000000001
0.0616
0.038
0.0338
0.045
0.0552
0.059
0.0584
0.0507
0.0392
0.0443
0.0383
0.0332
0.0309
0.0345
0.038
0.0443
0.0552
0.0373
0.0201
0.0153
0.0252
0.0351
0.0392
0.0431
0.037
0.0258
0.0329
0.0306
0.0249
0.0252
0.029
0.0376
0.0494
0.0507
0.0262
0.0188
0.0246
0.0376
0.0437
0.0421
0.0453
0.0405
0.0376
0.0424
0.0421
0.038
0.0348
0.0383
0.0517
0.0644
0.0625
0.038
0.0332
0.0408
0.0501
0.0555
0.0574
0.0593
0.0536
0.0549
0.0507
0.0485
0.0507
0.0526
0.0587
0.06510000000000001
0.0756
0.06
0.0459
0.0447
0.0571
0.06510000000000001
0.0663
0.06950000000000001
0.0619
0.0561
0.0644
0.0644
0.06
0.06
0.0679
0.0769
0.0832
0.0864
0.06759999999999999
0.0616
0.0667
0.0804
0.0868
0.08740000000000001
0.08450000000000001
0.0759
0.07530000000000001
0.07969999999999999
0.07779999999999999
0.0683
0.067
0.0692
0.0794
0.0887
0.0839
0.0555
0.0475
0.0606
0.07049999999999999
0.0727
0.0759
0.0772
0.0644
0.0699
0.0667
0.067
0.0641
0.0663
0.074
0.08260000000000001
0.0912
0.0766
0.0568
0.0514
0.0638
0.07530000000000001
0.0785
0.07240000000000001
0.0593
0.0504
0.0533
0.0491
0.0443
0.0421
0.0383
0.0443
0.0479
0.0456
0.0192
0.0061
0.0074
0.0137
0.0179
0.0144
0.009299999999999999
-0.0035
-0.0073
-0.0086
-0.0147
-0.0239
-0.0293
-0.0274
-0.0188
-0.0143
-0.0233
-0.0542
-0.0618
-0.0561
-0.0485
-0.0462
-0.0485
-0.0577
-0.07489999999999999
-0.0781
-0.0791
-0.0835
-0.0893
-0.0941
-0.0934
-0.0858
-0.0823
-0.0988
-0.1183
-0.1304
-0.1237
-0.1129
-0.1113
-0.1119
-0.1196
-0.1288
-0.1247
-0.1256
-0.1333
-0.1403
-0.1371
-0.1256
-0.1141
-0.1135
-0.1457
-0.1559
-0.1486
-0.1323
-0.1256
-0.1266
-0.1282
-0.1368
-0.1368
-0.1349
-0.1358
-0.1355
-0.1298
-0.1275
-0.118
-0.1036
-0.1043
-0.1228
-0.1205
-0.1106
-0.1014
-0.0934
-0.08799999999999999
-0.0861
-0.0912
-0.0848
-0.0854
-0.0877
-0.0883
-0.08450000000000001
-0.0781
-0.066
-0.051
-0.0567
-0.08450000000000001
-0.09180000000000001
-0.07489999999999999
-0.0596
-0.0532
-0.0523
-0.058
-0.0618
-0.0542
-0.0545
-0.059
-0.0577
-0.0485
-0.0392
-0.0287
-0.0239
-0.0446
-0.0545
-0.0494
-0.0351
-0.0271
-0.021
-0.0178
-0.0255
-0.0265
-0.0201
-0.0204
-0.0271
-0.029
-0.0223
-0.009900000000000001
0.0035
0.0013
-0.0178
-0.0255
-0.0201
-0.0105
-0.0038
0.0007
0.0035
-0.0067
-0.006
-0.0051
-0.007
-0.0131
-0.009900000000000001
0.0003
0.0112
0.0195
0.0067
-0.0115
-0.014
-0.0041
0.0061
0.009599999999999999
0.009900000000000001
0.0067
0.0016
0.0074
0.0061
-0.0022
-0.0051
-0.0025
0.0074
0.0179
0.0211
-0.0013
-0.0121
-0.0083
0.0038
0.008
0.0064
0.0067
-0.0016
-0.0029
0.0019
0.0045
-0.0035
-0.0073
-0.0051
0.0016
0.0125
0.0137
-0.0086
-0.0182
-0.0127
-0.0029
0.0013
0.0026
-0.0013
-0.009900000000000001
-0.0057
-0.0092
-0.0169
-0.0204
-0.015
-0.0095
-0.0044
0.0061
-0.0064
-0.0293
-0.0376
-0.0274
-0.0175
-0.0118
-0.0089
-0.0166
-0.0261
-0.0207
-0.0201
-0.0284
-0.037
-0.0357
-0.021
-0.0089
-0.0067
-0.028
-0.0398
-0.0402
-0.028
-0.0204
-0.0182
-0.0153
-0.022
-0.0252
-0.0242
-0.0258
-0.0296
-0.0268
-0.0223
-0.0118
0.0003
-0.0003
-0.0277
-0.0319
-0.0242
-0.0127
-0.0076
-0.0073
-0.0064
-0.0166
-0.0156
-0.0147
-0.0178
-0.0204
-0.0191
-0.0185
-0.008
0.0022
-0.0089
-0.03
-0.0347
-0.0255
-0.0201
-0.014
-0.0086
-0.0143
-0.0249
-0.021
-0.0188
-0.0226
-0.0239
-0.0223
-0.0143
-0.006
-0.0032
-0.0268
-0.0344
-0.0261
-0.0156
-0.0124
-0.0102
-0.0089
-0.0182
-0.021
-0.0217
-0.0207
-0.0229
-0.0236
-0.0194
-0.0086
0.001
-0.0013
-0.0258
-0.0335
-0.0233
-0.0092
-0.0029
0
-0.0025
-0.0118
-0.0137
-0.015
-0.0191
-0.0207
-0.0159
-0.0111
-0.0022
0.0035
-0.0073
-0.03
-0.0367
-0.0255
-0.0166
-0.0089
-0.007
-0.0134
-0.0245
-0.0169
-0.0198
-0.0233
-0.0178
-0.0182
-0.0201
-0.0092
0.0016
-0.0175
-0.029
-0.028
-0.0185
-0.0182
-0.0162
-0.0108
-0.0188
-0.021
-0.0178
-0.0249
-0.0309
-0.0287
-0.0213
-0.0134
-0.0051
-0.0083
-0.0328
-0.0373
-0.0242
-0.0147
-0.0067
-0.0064
-0.0051
-0.0147
-0.0137
-0.0143
-0.0191
-0.0207
-0.0182
-0.0115
-0.0005999999999999999
0.007
-0.0029
-0.0239
-0.0284
-0.0178
-0.0127
-0.0064
-0.0035
-0.0064
-0.014
-0.0086
-0.0089
-0.0118
-0.0178
-0.0169
-0.0029
0.0074
0.0121
-0.0092
-0.0223
-0.0201
-0.0102
-0.0032
-0.0022
-0.0016
-0.0089
-0.014
-0.0086
-0.0086
-0.0162
-0.0134
-0.0118
-0.0029
0.009900000000000001
0.0144
-0.0092
-0.0175
-0.0102
0.0074
0.0172
0.0188
0.0188
0.009900000000000001
0.014
0.0185
0.0192
0.0204
0.0198
0.0223
0.0376
0.0488
0.038
0.016
0.0121
0.0223
0.0341
0.0405
0.0399
0.0316
0.0176
0.0201
0.0179
0.0118
0.0105
0.0064
0.0042
0.0032
0.0054
-0.014
-0.0268
-0.029
-0.0242
-0.0213
-0.0252
-0.0306
-0.0402
-0.0446
-0.0449
-0.0526
-0.0561
-0.0548
-0.051
-0.0434
-0.0319
-0.0293
-0.0561
-0.0663
-0.0599
-0.0469
-0.043
-0.0363
-0.0312
-0.0437
-0.0475
-0.0437
-0.0424
-0.0427
-0.0386
-0.0322
-0.0258
-0.0239
-0.0347
-0.0507
-0.0561
-0.0402
-0.0331
-0.0271
-0.0271
-0.0354
-0.0437
-0.0389
-0.0418
-0.0449
-0.0459
-0.0434
-0.0357
-0.0226
-0.0156
-0.0351
-0.0523
-0.0552
-0.0395
-0.029
-0.0268
-0.0245
-0.0328
-0.0392
-0.0376
-0.0354
-0.0395
-0.0421
-0.037
-0.0255
-0.0102
-0.0086
-0.0357
-0.0402
-0.0293
-0.0153
-0.0086
-0.0083
-0.0086
-0.0134
-0.0111
-0.0121
-0.008
-0.0064
-0.0009
0.0134
0.03
0.0488
0.0539
0.044
0.0549
0.08450000000000001
0.1186
0.147
0.1649
0.1805
0.2019
0.2379
0.2621
0.2835
0.3026
0.316
0.3333
0.3502
0.3591
0.3342
0.3023
0.2845
0.2711
0.235
0.1866
0.1387
0.0794
0.0172
-0.043
-0.1141
-0.1888
-0.2509
-0.3074
-0.3559
-0.396
-0.4423
-0.5112
-0.5538999999999999
-0.5727
-0.5836
-0.5883
-0.5874
-0.5836
-0.5816
-0.5695
-0.5497
-0.5313
-0.5144
-0.4847
-0.4452
-0.4056
-0.3632
-0.3402
-0.3319
-0.3061
-0.2643
-0.22
-0.1798
-0.1518
-0.132
-0.1161
-0.0848
-0.0663
-0.05
-0.0274
-0.0029
0.0201
0.0427
0.0638
0.0568
0.0561
0.0692
0.09279999999999999
0.1091
0.1196
0.1292
0.132
0.1349
0.1483
0.1473
0.1406
0.1457
0.1579
0.17
0.1843
0.185
0.1585
0.1505
0.1531
0.1658
0.1716
0.1706
0.1668
0.1569
0.1582
0.1579
0.1477
0.1387
0.1365
0.14
0.1502
0.1566
0.1467
0.1199
0.1126
0.1222
0.1285
0.1295
0.1279
0.1196
0.1059
0.1107
0.1081
0.1005
0.09030000000000001
0.0915
0.097
0.1056
0.1091
0.0839
0.0692
0.06950000000000001
0.081
0.0842
0.0842
0.0896
0.0794
0.0718
0.0781
0.07969999999999999
0.0711
0.0702
0.0766
0.08450000000000001
0.0941
0.097
0.0769
0.0673
0.0692
0.0775
0.08359999999999999
0.08740000000000001
0.0915
0.081
0.0801
0.08169999999999999
0.0781
0.07049999999999999
0.0727
0.0791
0.0823
0.0922
0.0883
0.0718
0.06279999999999999
0.0663
0.07049999999999999
0.0781
0.0823
0.0788
0.0711
0.07140000000000001
0.0692
0.0654
0.0619
0.0625
0.07140000000000001
0.0801
0.0852
0.07049999999999999
0.0587
0.059
0.0721
0.0788
0.0804
0.0823
0.0756
0.07049999999999999
0.0772
0.0746
0.0702
0.0708
0.0785
0.0861
0.0925
0.0915
0.0692
0.0568
0.06320000000000001
0.0737
0.08069999999999999
0.0832
0.081
0.07530000000000001
0.0788
0.0766
0.07049999999999999
0.0667
0.0721
0.0801
0.0915
0.1056
0.103
0.0785
0.07240000000000001
0.0877
0.1033
0.1084
0.1037
0.0973
0.0954
0.1021
0.0998
0.0935
0.0925
0.09279999999999999
0.0979
0.1075
0.1151
0.09569999999999999
0.0756
0.0756
0.0871
0.09760000000000001
0.1021
0.1049
0.0989
0.0912
0.097
0.097
0.09089999999999999
0.0887
0.096
0.1049
0.1158
0.1209
0.0922
0.0829
0.0877
0.09950000000000001
0.1065
0.1059
0.1043
0.09470000000000001
0.08989999999999999
0.0887
0.0864
0.0804
0.08069999999999999
0.0858
0.0931
0.0992
0.0906
0.066
0.0593
0.067
0.075
0.0788
0.0788
0.0727
0.0603
0.0606
0.0571
0.0552
0.0504
0.0479
0.052
0.0596
0.0606
0.0392
0.0204
0.0169
0.0278
0.0303
0.0294
0.0284
0.0115
-0.0032
-0.0003
-0.0035
-0.014
-0.0185
-0.0201
-0.0207
-0.0159
-0.0169
-0.0485
-0.0615
-0.0587
-0.0523
-0.0504
-0.05
-0.0552
-0.07679999999999999
-0.0854
-0.08450000000000001
-0.09089999999999999
-0.1001
-0.1001
-0.0969
-0.0963
-0.0956
-0.1052
-0.1352
-0.1441
-0.1377
-0.1282
-0.1263
-0.131
-0.1374
-0.1527
-0.1518
-0.1559
-0.1636
-0.1664
-0.1648
-0.1613
-0.1537
-0.1489
-0.1658
-0.1811
-0.184
-0.1709
-0.1655
-0.1617
-0.1607
-0.1645
-0.1703
-0.1642
-0.1633
-0.1712
-0.1712
-0.1629
-0.1527
-0.1384
-0.1342
-0.1582
-0.1661
-0.1597
-0.1432
-0.1346
-0.1291
-0.1295
-0.1374
-0.1397
-0.1323
-0.1298
-0.1323
-0.1298
-0.1218
-0.109
-0.0969
-0.103
-0.1256
-0.1323
-0.1196
-0.1023
-0.09089999999999999
-0.0861
-0.08989999999999999
-0.09760000000000001
-0.0893
-0.0915
-0.08799999999999999
-0.0864
-0.0893
-0.0823
-0.0654
-0.0542
-0.0682
-0.0829
-0.0823
-0.0746
-0.066
-0.0574
-0.0545
-0.0625
-0.0663
-0.0542
-0.0536
-0.0567
-0.0555
-0.0542
-0.0437
-0.0347
-0.0293
-0.0485
-0.0558
-0.0507
-0.0357
-0.0265
-0.0265
-0.0258
-0.0357
-0.037
-0.0341
-0.0344
-0.0382
-0.0357
-0.0322
-0.0191
-0.009900000000000001
-0.015
-0.0379
-0.0443
-0.0322
-0.0198
-0.0156
-0.0124
-0.0147
-0.0242
-0.0188
-0.022
-0.0242
-0.0258
-0.0265
-0.0194
-0.006
0.0045
-0.0118
-0.0319
-0.0344
-0.0217
-0.015
-0.0115
-0.008
-0.0121
-0.0198
-0.0162
-0.0172
-0.0236
-0.022
-0.0182
-0.0159
-0.0048
-0.0019
-0.0242
-0.0325
-0.0316
-0.0191
-0.0143
-0.014
-0.0137
-0.0213
-0.0217
-0.0217
-0.0261
-0.0303
-0.0258
-0.0204
-0.0118
-0.0013
-0.0064
-0.03
-0.0335
-0.0239
-0.0143
-0.0086
-0.0108
-0.0137
-0.0255
-0.0213
-0.0188
-0.022
-0.0265
-0.0274
-0.0223
-0.0147
-0.0054
-0.022
-0.0405
-0.043
-0.029
-0.0191
-0.015
-0.0159
-0.0233
-0.0277
-0.0194
-0.0223
-0.0293
-0.0351
-0.0319
-0.0233
-0.0102
-0.0029
-0.0277
-0.0421
-0.037
-0.0239
-0.0201
-0.0185
-0.0166
-0.0249
-0.0277
-0.0249
-0.0194
-0.0245
-0.0265
-0.0249
-0.0162
-0.0035
-0.0067
-0.0331
-0.0459
-0.0427
-0.0341
-0.0303
-0.0335
-0.0395
-0.0529
-0.0539
-0.0606
-0.07140000000000001
-0.07969999999999999
-0.08069999999999999
-0.0772
-0.07140000000000001
-0.0679
-0.0842
-0.103
-0.1074
-0.0944
-0.089
-0.08740000000000001
-0.0839
-0.0867
-0.09370000000000001
-0.0861
-0.0848
-0.0851
-0.0851
-0.0819
-0.07049999999999999
-0.0548
-0.0478
-0.06850000000000001
-0.0762
-0.0708
-0.0558
-0.0485
-0.044
-0.0408
-0.0475
-0.0494
-0.0446
-0.0437
-0.0437
-0.0434
-0.0398
-0.0309
-0.0166
-0.0137
-0.0398
-0.0529
-0.0418
-0.0223
-0.0111
-0.0134
-0.0178
-0.0236
-0.0188
-0.0226
-0.0236
-0.0217
-0.0178
-0.0131
-0.0038
0.0058
-0.0032
-0.0191
-0.0233
-0.0076
0.0007
0.0022
0.0064
0.0035
-0.0025
0.0054
0.0022
-0.0067
-0.0044
0.0029
0.0118
0.0211
0.0246
0.0026
-0.0086
-0.007
0.0029
0.0112
0.0153
0.0223
0.0134
0.009299999999999999
0.0118
0.009299999999999999
0.0061
0.0102
0.016
0.0223
0.0294
0.0284
0.0048
0.0013
0.0118
0.023
0.03
0.029
0.0262
0.0172
0.023
0.0214
0.0188
0.0166
0.0182
0.0243
0.0335
0.0427
0.0309
0.0118
0.0089
0.0243
0.0335
0.0373
0.0367
0.0278
0.0198
0.0255
0.0258
0.023
0.0233
0.0236
0.0322
0.0402
0.045
0.0236
0.0089
0.0109
0.0268
0.0361
0.037
0.037
0.0278
0.0227
0.0294
0.0294
0.0265
0.0265
0.0354
0.0463
0.0555
0.0526
0.0303
0.0265
0.0386
0.051
0.0552
0.0536
0.0517
0.0415
0.0475
0.0482
0.0386
0.0313
0.0284
0.0322
0.0408
0.0456
0.0287
0.007
-0.0029
0.0058
0.0128
0.009900000000000001
0.0089
0.0026
-0.0086
-0.0089
-0.0131
-0.0172
-0.0166
-0.0194
-0.0191
-0.0108
-0.0035
-0.0261
-0.0405
-0.0408
-0.0306
-0.0245
-0.0245
-0.0245
-0.0331
-0.037
-0.0344
-0.0319
-0.0354
-0.0357
-0.0306
-0.0191
-0.0064
-0.006
-0.0284
-0.0376
-0.0344
-0.0213
-0.0089
-0.0095
-0.015
-0.0229
-0.0178
-0.0201
-0.0284
-0.0351
-0.0319
-0.0255
-0.0185
-0.0092
-0.0198
-0.0386
-0.0456
-0.0357
-0.0261
-0.0182
-0.0153
-0.0207
-0.03
-0.0245
-0.0236
-0.0268
-0.03
-0.0287
-0.0178
-0.0089
-0.0038
-0.0245
-0.0357
-0.0293
-0.015
-0.0111
-0.0115
-0.0076
-0.0124
-0.0185
-0.015
-0.0159
-0.0233
-0.0229
-0.0156
-0.0041
0.0134
0.016
-0.0102
-0.0134
0.0042
0.0287
0.0466
0.0574
0.0718
0.08169999999999999
0.1075
0.1253
0.1432
0.1646
0.1907
0.2216
0.2526
0.2835
0.2883
0.2889
0.2979
0.3125
0.3189
0.3176
0.2995
0.2692
0.2261
0.1933
0.1477
0.0906
0.0354
-0.015
-0.0692
-0.1263
-0.1872
-0.2704
-0.346
-0.3938
-0.4247
-0.4646
-0.499
-0.5284
-0.5593
-0.5797
-0.5832000000000001
-0.5816
-0.5778
-0.5669999999999999
-0.5494
-0.5214
-0.4892
-0.4643
-0.4579
-0.4337
-0.3986
-0.3578
-0.3176
-0.2844
-0.2532
-0.234
-0.1974
-0.1668
-0.1438
-0.1243
-0.0985
-0.07140000000000001
-0.0392
-0.0089
0.0007
-0.0009
0.009299999999999999
0.0354
0.059
0.07240000000000001
0.0829
0.0871
0.0864
0.1005
0.1075
0.111
0.1126
0.1164
0.1279
0.1445
0.1534
0.1343
0.1234
0.1202
0.1343
0.1464
0.1534
0.1534
0.1426
0.1362
0.1381
0.1375
0.1311
0.1317
0.1352
0.1442
0.1512
0.1505
0.125
0.1164
0.1212
0.1298
0.1317
0.1343
0.1387
0.1263
0.1247
0.1222
0.1209
0.1161
0.1174
0.1225
0.134
0.1416
0.1193
0.09660000000000001
0.09470000000000001
0.11
0.1174
0.1199
0.1193
0.1113
0.09859999999999999
0.0992
0.0925
0.0864
0.0823
0.08550000000000001
0.09760000000000001
0.104
0.1088
0.08450000000000001
0.06950000000000001
0.0699
0.0788
0.0852
0.08989999999999999
0.09089999999999999
0.08069999999999999
0.0788
0.08359999999999999
0.07969999999999999
0.073
0.0727
0.0743
0.0788
0.0919
0.0915
0.0644
0.0533
0.0609
0.0718
0.0785
0.07779999999999999
0.0772
0.066
0.06510000000000001
0.0635
0.059
0.0514
0.0549
0.0663
0.0759
0.08169999999999999
0.0718
0.0479
0.0421
0.0533
0.06510000000000001
0.0737
0.074
0.0737
0.06
0.066
0.067
0.0641
0.06510000000000001
0.0711
0.0775
0.0861
0.09379999999999999
0.075
0.0587
0.0603
0.0756
0.08550000000000001
0.08550000000000001
0.08550000000000001
0.0769
0.06950000000000001
0.0766
0.0766
0.0692
0.0667
0.0711
0.0839
0.09760000000000001
0.0906
0.0616
0.0574
0.0679
0.08260000000000001
0.0906
0.0906
0.0915
0.08359999999999999
0.08799999999999999
0.0896
0.0877
0.0858
0.08799999999999999
0.0963
0.111
0.1241
0.1177
0.0931
0.09089999999999999
0.1072
0.1174
0.1222
0.1253
0.1183
0.1088
0.1174
0.1174
0.1107
0.1104
0.1132
0.1212
0.1301
0.1346
0.1135
0.0992
0.1014
0.1148
0.1218
0.1225
0.1263
0.1183
0.1119
0.1139
0.1135
0.1078
0.1059
0.1123
0.1222
0.1288
0.1247
0.0982
0.0887
0.0954
0.1072
0.11
0.1075
0.1059
0.0931
0.0912
0.0915
0.0829
0.0759
0.0711
0.0743
0.0864
0.0963
0.08799999999999999
0.0565
0.0447
0.0533
0.0622
0.0648
0.06510000000000001
0.0561
0.0424
0.0453
0.0412
0.0345
0.0265
0.0233
0.0287
0.0338
0.0367
0.0121
-0.0064
-0.0137
-0.0092
-0.0095
-0.0115
-0.0108
-0.0201
-0.0287
-0.0335
-0.0427
-0.0564
-0.0603
-0.0593
-0.0529
-0.0437
-0.0459
-0.08160000000000001
-0.0992
-0.0915
-0.0794
-0.07489999999999999
-0.08160000000000001
-0.09089999999999999
-0.1017
-0.1027
-0.1062
-0.1141
-0.1224
-0.1253
-0.1205
-0.1119
-0.1055
-0.1215
-0.1451
-0.1527
-0.1416
-0.1339
-0.1352
-0.1342
-0.1371
-0.1511
-0.1435
-0.14
-0.1444
-0.1553
-0.1613
-0.1508
-0.1336
-0.125
-0.1451
-0.1578
-0.1591
-0.1479
-0.1377
-0.1326
-0.1291
-0.1333
-0.1368
-0.132
-0.1301
-0.1323
-0.1279
-0.1205
-0.1106
-0.0998
-0.0985
-0.1199
-0.1231
-0.1122
-0.1011
-0.0944
-0.0864
-0.0864
-0.1011
-0.09760000000000001
-0.0934
-0.0925
-0.0915
-0.0883
-0.0823
-0.06950000000000001
-0.0599
-0.0631
-0.0861
-0.0867
-0.073
-0.0593
-0.0526
-0.05
-0.0583
-0.0638
-0.0532
-0.052
-0.0526
-0.0606
-0.058
-0.0478
-0.0322
-0.0226
-0.0421
-0.0558
-0.0555
-0.043
-0.0312
-0.0265
-0.0236
-0.028
-0.0335
-0.0271
-0.0274
-0.0341
-0.0312
-0.0252
-0.022
-0.007
-0.0048
-0.03
-0.0367
-0.0303
-0.022
-0.0156
-0.0121
-0.0121
-0.0185
-0.0175
-0.0166
-0.0194
-0.022
-0.0191
-0.014
-0.0083
-0.0032
-0.0041
-0.021
-0.0204
-0.0092
-0.0025
0.0007
-0.0022
-0.0137
-0.0217
-0.0127
-0.0083
-0.006
-0.0089
-0.0086
-0.0054
0.0026
0.0083
-0.0102
-0.0245
-0.0207
-0.0051
0.0019
0.0074
0.0089
-0.0032
-0.0095
-0.0038
-0.0032
-0.009900000000000001
-0.0083
-0.0051
-0.0009
0.0118
0.0153
-0.0127
-0.0223
-0.0162
-0.0025
-0.0005999999999999999
-0.0029
0.0007
-0.0102
-0.0095
-0.0064
-0.0032
-0.0137
-0.0166
-0.0102
-0.0003
0.0128
0.0064
-0.0213
-0.0261
-0.0124
-0.0025
0.0022
0.0026
0
-0.008
-0.0005999999999999999
-0.0005999999999999999
-0.0035
-0.0095
-0.0092
0
0.0105
0.0172
-0.0022
-0.0166
-0.0166
-0.0051
-0.0029
0
0.001
-0.0038
-0.0089
-0.0048
-0.0073
-0.015
-0.015
-0.0131
-0.0041
0.0089
0.0118
-0.0131
-0.0204
-0.0127
-0.0013
0.0022
0.0038
0.0026
-0.0038
-0.0019
-0.0051
-0.0067
-0.0111
-0.0102
-0.0041
0.0064
0.0137
0.0045
-0.021
-0.0249
-0.0127
-0.0035
0.0016
0.0026
0.0019
-0.0073
-0.0051
-0.0067
-0.0032
-0.0044
-0.0073
-0.0025
0.009900000000000001
0.0195
0.0029
-0.0111
-0.0156
-0.0076
-0.0013
0.0077
0.0089
-0.0003
-0.0086
-0.0013
-0.0003
-0.0086
-0.0105
-0.0118
-0.009900000000000001
0.0016
0.0086
-0.0162
-0.0236
-0.0185
-0.0111
-0.0073
-0.0054
-0.0029
-0.0162
-0.0191
-0.0131
-0.0159
-0.0255
-0.0226
-0.0156
-0.0076
0.0035
-0.0041
-0.0268
-0.0325
-0.0217
-0.0137
-0.009900000000000001
-0.0083
-0.0086
-0.0162
-0.0147
-0.0182
-0.021
-0.0226
-0.0175
-0.0102
-0.0035
0.0032
-0.0127
-0.0287
-0.0287
-0.0131
-0.0067
-0.0051
-0.0029
-0.0041
-0.0118
-0.007
-0.0083
-0.0178
-0.0233
-0.0217
-0.0108
0.0038
0.0038
-0.0217
-0.0322
-0.0325
-0.0207
-0.0134
-0.0134
-0.0172
-0.0274
-0.0242
-0.021
-0.0271
-0.0351
-0.0296
-0.0213
-0.0095
-0.0003
-0.0064
-0.0316
-0.036
-0.0226
-0.0115
-0.007
-0.0029
-0.0048
-0.0134
-0.008
-0.0086
-0.0089
-0.0083
-0.0064
0.0019
0.0125
0.0188
0.0051
-0.0095
-0.014
-0.0003
0.007
0.0128
0.014
0.0061
-0.007
-0.0067
-0.0057
-0.0073
-0.0067
-0.0067
0.0007
0.009900000000000001
0.009900000000000001
-0.0166
-0.0207
-0.0162
-0.0076
0.0007
0.0054
0.0067
-0.0029
0.0003
0.0042
0.0042
0.0022
0.0054
0.014
0.0246
0.0376
0.0373
0.0172
0.0115
0.0239
0.037
0.0456
0.0427
0.0383
0.0316
0.038
0.0386
0.0294
0.0172
0.0163
0.0182
0.0223
0.0294
0.0083
-0.0137
-0.021
-0.0137
-0.0076
-0.008
-0.0137
-0.0277
-0.0398
-0.037
-0.0411
-0.0472
-0.0497
-0.0481
-0.0437
-0.0328
-0.0328
-0.0609
-0.07240000000000001
-0.06850000000000001
-0.0558
-0.0465
-0.0462
-0.0485
-0.059
-0.0609
-0.0567
-0.0548
-0.0615
-0.0577
-0.0481
-0.0449
-0.0357
-0.0367
-0.0593
-0.0663
-0.0583
-0.0472
-0.0331
-0.0293
-0.0367
-0.0513
-0.0465
-0.0395
-0.0408
-0.0469
-0.0465
-0.0414
-0.029
-0.0172
-0.0338
-0.0488
-0.0539
-0.0405
-0.0322
-0.0274
-0.0261
-0.0347
-0.0414
-0.0335
-0.0331
-0.0373
-0.0392
-0.036
-0.0277
-0.0131
-0.0108
-0.0379
-0.0459
-0.0379
-0.0239
-0.0188
-0.0153
-0.0143
-0.0233
-0.0268
-0.0242
-0.022
-0.0312
-0.0284
-0.0204
-0.009900000000000001
0.0051
0.0026
-0.0185
-0.0226
-0.0073
0.0201
0.0383
0.0536
0.0679
0.0769
0.1024
0.1244
0.1445
0.1582
0.1872
0.2194
0.2554
0.2902
0.2896
0.2896
0.2972
0.3144
0.3253
0.3234
0.3001
0.2685
0.2293
0.1933
0.1422
0.089
0.0325
-0.0185
-0.0708
-0.1266
-0.1945
-0.2832
-0.3543
-0.4021
-0.4394
-0.4812
-0.5159
-0.5437
-0.5746
-0.5921999999999999
-0.5982
-0.6011
-0.6024
-0.5899
-0.5669999999999999
-0.5364
-0.5077
-0.4904
-0.4869
-0.4592
-0.418
-0.3785
-0.3431
-0.3007
-0.2688
-0.249
-0.2133
-0.1894
-0.1709
-0.1441
-0.1119
-0.0794
-0.0459
-0.0153
-0.0172
-0.0207
-0.0064
0.0211
0.0434
0.0606
0.0702
0.0683
0.0679
0.0823
0.08740000000000001
0.089
0.09379999999999999
0.1014
0.1161
0.1266
0.1333
0.1123
0.1084
0.1167
0.1304
0.1365
0.1426
0.1454
0.1381
0.133
0.1314
0.1324
0.134
0.132
0.1314
0.1391
0.1489
0.1473
0.1196
0.1107
0.118
0.1292
0.1301
0.1295
0.1266
0.1148
0.117
0.1132
0.1081
0.1037
0.1017
0.1081
0.1148
0.1202
0.1065
0.0864
0.0804
0.08989999999999999
0.0954
0.0979
0.1001
0.0944
0.0829
0.0829
0.0813
0.0746
0.07240000000000001
0.0756
0.08260000000000001
0.0925
0.0919
0.066
0.0558
0.0571
0.07049999999999999
0.0791
0.0791
0.07340000000000001
0.0622
0.0625
0.067
0.0641
0.0574
0.0581
0.0641
0.0711
0.08069999999999999
0.07779999999999999
0.0507
0.0447
0.0555
0.066
0.074
0.0766
0.0743
0.0616
0.059
0.0514
0.0514
0.0565
0.0609
0.0654
0.0721
0.0775
0.0603
0.0427
0.0418
0.0504
0.0587
0.0635
0.06279999999999999
0.0581
0.0488
0.0555
0.0568
0.0491
0.0431
0.0488
0.0593
0.07140000000000001
0.0756
0.0514
0.0357
0.0383
0.0565
0.0667
0.0699
0.07049999999999999
0.0609
0.0568
0.0587
0.0587
0.0584
0.06279999999999999
0.0644
0.07340000000000001
0.0858
0.0848
0.059
0.0552
0.0654
0.0772
0.08450000000000001
0.08550000000000001
0.0871
0.08069999999999999
0.0858
0.0839
0.0801
0.07969999999999999
0.08359999999999999
0.09089999999999999
0.1027
0.1123
0.0992
0.082
0.08260000000000001
0.0941
0.103
0.1097
0.1129
0.1072
0.1011
0.1113
0.1088
0.1014
0.0979
0.1053
0.1139
0.126
0.1304
0.1091
0.0992
0.1014
0.1135
0.1206
0.1237
0.1244
0.1129
0.1078
0.1119
0.1119
0.1081
0.1033
0.1065
0.1193
0.1279
0.1241
0.0982
0.0877
0.0931
0.09660000000000001
0.0982
0.0998
0.1027
0.08989999999999999
0.08740000000000001
0.08260000000000001
0.0775
0.06950000000000001
0.06510000000000001
0.0679
0.0746
0.0785
0.0622
0.0402
0.0354
0.0383
0.0399
0.0447
0.0466
0.0338
0.0179
0.0207
0.0156
0.0061
0.0026
0.0026
0.0089
0.0147
0.0147
-0.014
-0.0312
-0.0312
-0.0217
-0.0185
-0.0229
-0.0245
-0.0354
-0.0443
-0.0459
-0.0526
-0.0634
-0.073
-0.0708
-0.0634
-0.0583
-0.0669
-0.09470000000000001
-0.1059
-0.1017
-0.09660000000000001
-0.09760000000000001
-0.0988
-0.102
-0.1119
-0.1161
-0.1228
-0.1285
-0.133
-0.1323
-0.1266
-0.1189
-0.1122
-0.131
-0.155
-0.1575
-0.1444
-0.1361
-0.1355
-0.1352
-0.1368
-0.1479
-0.1441
-0.146
-0.1546
-0.1559
-0.1489
-0.139
-0.1301
-0.125
-0.1467
-0.1566
-0.1515
-0.1397
-0.1323
-0.1259
-0.1196
-0.1275
-0.1336
-0.1298
-0.1288
-0.1323
-0.1275
-0.1186
-0.1084
-0.1011
-0.1017
-0.1237
-0.1266
-0.1161
-0.0998
-0.0915
-0.09089999999999999
-0.09180000000000001
-0.0992
-0.095
-0.0848
-0.0835
-0.0867
-0.0858
-0.07679999999999999
-0.0612
-0.0485
-0.0574
-0.0813
-0.0858
-0.06950000000000001
-0.0577
-0.0548
-0.0494
-0.0536
-0.0603
-0.0523
-0.0545
-0.0587
-0.0577
-0.0552
-0.0456
-0.0338
-0.0265
-0.0449
-0.0552
-0.0548
-0.0421
-0.0328
-0.0277
-0.0268
-0.0357
-0.0376
-0.0309
-0.0287
-0.0344
-0.0367
-0.0303
-0.021
-0.0095
-0.008
-0.0325
-0.0408
-0.0325
-0.0178
-0.0089
-0.0095
-0.0089
-0.0191
-0.0166
-0.0178
-0.0175
-0.0213
-0.0182
-0.0115
-0.0016
0.007
-0.0025
-0.0207
-0.0213
-0.0124
-0.0025
0.0026
0.0058
0.0016
-0.0095
-0.0029
-0.0025
-0.0086
-0.0083
-0.008
0
0.0045
0.0058
-0.0143
-0.0226
-0.0217
-0.0115
-0.0083
-0.0076
-0.008
-0.0185
-0.0242
-0.0182
-0.0169
-0.0249
-0.0287
-0.0239
-0.0137
-0.0025
-0.0041
-0.0306
-0.0363
-0.0265
-0.0182
-0.0095
-0.008
-0.0076
-0.0169
-0.0156
-0.0166
-0.0191
-0.0204
-0.0185
-0.0134
-0.0029
0.0077
-0.0029
-0.0261
-0.0316
-0.0188
-0.008
-0.0022
-0.0003
-0.0054
-0.0159
-0.0067
-0.0089
-0.0213
-0.0255
-0.0249
-0.0131
0.0016
0.009299999999999999
-0.0162
-0.0338
-0.0344
-0.0239
-0.0162
-0.0105
-0.0092
-0.0191
-0.0255
-0.0223
-0.0239
-0.029
-0.0268
-0.0162
-0.0057
0.0013
-0.0003
-0.0252
-0.0344
-0.0277
-0.0147
-0.0051
-0.0025
-0.0032
-0.0143
-0.015
-0.0162
-0.0175
-0.0207
-0.0207
-0.0111
-0.0025
0.0042
-0.0073
-0.0293
-0.0322
-0.0185
-0.009900000000000001
-0.007
-0.0035
-0.0044
-0.0172
-0.014
-0.0118
-0.0175
-0.0223
-0.022
-0.0162
-0.0035
0.0029
-0.0178
-0.0331
-0.0319
-0.0207
-0.0118
-0.0095
-0.0115
-0.021
-0.0268
-0.021
-0.0194
-0.0261
-0.0261
-0.0223
-0.0086
0.001
-0.0013
-0.0261
-0.0331
-0.0261
-0.0153
-0.0083
-0.0044
-0.0029
-0.0121
-0.0086
-0.0095
-0.0118
-0.0156
-0.0137
-0.0073
0.0029
0.0128
0.0054
-0.0147
-0.0207
-0.0102
0
0.0035
0.0051
0.0048
-0.0029
-0.0041
-0.0035
-0.0073
-0.0051
-0.0016
0.0048
0.0147
0.0204
-0.0038
-0.0188
-0.0175
-0.0022
0.0048
0.0058
0.0089
-0.0029
-0.009900000000000001
-0.0054
-0.0013
-0.0083
-0.0134
-0.0108
-0.0009
0.009299999999999999
0.0109
-0.0131
-0.0201
-0.0131
-0.0003
0.0045
0.0067
0.0067
-0.0038
0
0.0054
0.001
-0.0051
-0.0076
-0.0009
0.0121
0.0233
0.016
-0.0083
-0.0178
-0.0009
0.0134
0.0125
0.0121
0.0061
-0.0022
0.0022
-0.0003
-0.0022
-0.0051
-0.0019
0.008
0.0182
0.0192
-0.0029
-0.0178
-0.0127
0.0045
0.009599999999999999
0.0131
0.014
0.0042
0.0016
0.0067
0.0029
-0.0016
-0.0025
0.0013
0.009900000000000001
0.0236
0.0214
-0.0089
-0.0188
-0.0102
0.0042
0.0086
0.0074
0.0064
-0.006
-0.0041
0.0016
0.0013
-0.0038
-0.0016
0.0077
0.0217
0.0338
0.0258
0.0058
0.0061
0.0223
0.0348
0.045
0.052
0.0504
0.0434
0.0542
0.0507
0.0463
0.0475
0.0577
0.0622
0.06859999999999999
0.0759
0.0584
0.0437
0.0399
0.0456
0.0475
0.0412
0.0412
0.0319
0.022
0.0195
0.0163
0.0067
-0.0029
-0.0032
0.0029
0.007
0.0045
-0.0245
-0.0367
-0.0303
-0.0182
-0.0131
-0.0143
-0.0162
-0.0271
-0.0258
-0.0245
-0.0268
-0.029
-0.0312
-0.0249
-0.0127
-0.0003
-0.0095
-0.0319
-0.0338
-0.022
-0.0115
-0.0089
-0.0089
-0.009900000000000001
-0.0204
-0.0153
-0.0131
-0.0185
-0.0223
-0.0166
-0.0095
0.0019
0.009299999999999999
-0.009900000000000001
-0.0261
-0.0271
-0.0159
-0.0067
-0.0005999999999999999
0.0032
-0.0051
-0.009900000000000001
-0.006
-0.0089
-0.0166
-0.0172
-0.0089
-0.0019
0.0061
0.0042
-0.0223
-0.0284
-0.0223
-0.0089
-0.0038
-0.0054
-0.0051
-0.0118
-0.0137
-0.0137
-0.0143
-0.0185
-0.0159
-0.0083
0.001
0.0102
0.0048
-0.0188
-0.0229
-0.0118
-0.0019
0.0026
0.0054
0.001
-0.0048
0.0089
0.0128
0.0115
0.009599999999999999
0.0243
0.0447
0.0689
0.0877
0.08169999999999999
0.0896
0.1123
0.1464
0.1767
0.2012
0.229
0.2481
0.2628
0.2864
0.3049
0.3176
0.3246
0.3336
0.3393
0.3352
0.3176
0.2669
0.2226
0.1824
0.1445
0.0992
0.0431
-0.0175
-0.0934
-0.1626
-0.2305
-0.2946
-0.3575
-0.4088
-0.455
-0.4933
-0.5207000000000001
-0.5542
-0.5969
-0.6151
-0.611
-0.5989
-0.5851
-0.5733
-0.5596
-0.5482
-0.5191
-0.4933
-0.4665
-0.4369
-0.404
-0.368
-0.3316
-0.2918
-0.2723
-0.2525
-0.2242
-0.1856
-0.1559
-0.1256
-0.09760000000000001
-0.0829
-0.06950000000000001
-0.0437
-0.0226
-0.0115
0.0019
0.0211
0.0408
0.0622
0.0746
0.06
0.0616
0.0766
0.0893
0.0982
0.1078
0.1151
0.1088
0.1104
0.1132
0.1119
0.1088
0.1132
0.1222
0.1336
0.1422
0.132
0.1091
0.104
0.117
0.1288
0.1362
0.132
0.1282
0.117
0.1222
0.1212
0.1158
0.1142
0.1151
0.1215
0.1288
0.1336
0.1072
0.0883
0.089
0.104
0.111
0.1123
0.1078
0.096
0.0883
0.0893
0.0906
0.0868
0.0861
0.0839
0.09089999999999999
0.1021
0.1056
0.0775
0.0644
0.0711
0.0823
0.0877
0.0887
0.0868
0.0762
0.07240000000000001
0.0699
0.06569999999999999
0.0606
0.0619
0.0641
0.0708
0.0781
0.06950000000000001
0.0475
0.0431
0.0526
0.0555
0.0571
0.0606
0.0581
0.0494
0.0536
0.052
0.0488
0.0443
0.0427
0.0498
0.0612
0.0692
0.0504
0.0361
0.0367
0.0501
0.0577
0.0609
0.0616
0.0565
0.0453
0.0479
0.0491
0.0447
0.0472
0.0498
0.0581
0.0727
0.0721
0.0392
0.0325
0.0412
0.0536
0.06
0.0644
0.0635
0.0654
0.06859999999999999
0.0702
0.0721
0.0801
0.07969999999999999
0.0794
0.08069999999999999
0.1037
0.09660000000000001
0.0648
0.0622
0.07969999999999999
0.09030000000000001
0.0906
0.0896
0.0848
0.0673
0.0635
0.0584
0.0565
0.0587
0.0635
0.06859999999999999
0.0785
0.0842
0.07049999999999999
0.0549
0.0581
0.075
0.0832
0.08740000000000001
0.0871
0.0794
0.0772
0.0858
0.0839
0.0766
0.0788
0.0864
0.0982
0.1059
0.1043
0.0791
0.07140000000000001
0.082
0.0963
0.1017
0.1021
0.104
0.0963
0.0941
0.09660000000000001
0.0954
0.09279999999999999
0.09379999999999999
0.09950000000000001
0.1091
0.1174
0.1123
0.0893
0.0804
0.09030000000000001
0.1011
0.1046
0.1059
0.1014
0.0941
0.0963
0.09279999999999999
0.0858
0.08169999999999999
0.08550000000000001
0.09030000000000001
0.097
0.1059
0.08740000000000001
0.0644
0.06279999999999999
0.0743
0.0785
0.0804
0.0804
0.0759
0.0654
0.06320000000000001
0.0584
0.051
0.045
0.0456
0.0552
0.0638
0.0609
0.0268
0.014
0.0169
0.0278
0.0287
0.0217
0.0147
0.0022
-0.0032
-0.0057
-0.0127
-0.0223
-0.0249
-0.0245
-0.0236
-0.0217
-0.0328
-0.0609
-0.0708
-0.0615
-0.0545
-0.0577
-0.0634
-0.0717
-0.0832
-0.0829
-0.089
-0.0982
-0.1017
-0.1036
-0.103
-0.0963
-0.0941
-0.1113
-0.1285
-0.1317
-0.1228
-0.1199
-0.1192
-0.1186
-0.1288
-0.139
-0.1339
-0.1365
-0.1467
-0.146
-0.1473
-0.1384
-0.132
-0.1326
-0.161
-0.17
-0.1636
-0.153
-0.1476
-0.1448
-0.1377
-0.1467
-0.1518
-0.1515
-0.1479
-0.1457
-0.1441
-0.1361
-0.1285
-0.1164
-0.1145
-0.1381
-0.1368
-0.1259
-0.1151
-0.1106
-0.1052
-0.1052
-0.1157
-0.1094
-0.1046
-0.1116
-0.1141
-0.1094
-0.1004
-0.0893
-0.0759
-0.089
-0.1084
-0.1103
-0.0969
-0.08699999999999999
-0.0842
-0.07779999999999999
-0.0813
-0.0864
-0.0829
-0.0803
-0.0823
-0.0791
-0.074
-0.0609
-0.05
-0.0494
-0.0721
-0.0791
-0.0708
-0.0567
-0.0475
-0.0437
-0.0411
-0.0513
-0.0516
-0.0491
-0.0485
-0.0536
-0.0529
-0.0497
-0.0351
-0.0249
-0.03
-0.0574
-0.059
-0.0443
-0.0351
-0.0306
-0.028
-0.0255
-0.0367
-0.0312
-0.0331
-0.0338
-0.0347
-0.0335
-0.0226
-0.009900000000000001
-0.0025
-0.0166
-0.0331
-0.0379
-0.0249
-0.0137
-0.0086
-0.0048
-0.0137
-0.0245
-0.0194
-0.0204
-0.0265
-0.03
-0.0249
-0.015
-0.0054
-0.0032
-0.0306
-0.0405
-0.0354
-0.0185
-0.0143
-0.0143
-0.0102
-0.0201
-0.0242
-0.021
-0.0172
-0.022
-0.0194
-0.0134
-0.0013
0.0089
0.0013
-0.0249
-0.0255
-0.0124
-0.0048
-0.0032
-0.0016
-0.0009
-0.0147
-0.0086
-0.006
-0.008
-0.0137
-0.0166
-0.0108
-0.0022
0.0061
-0.007
-0.0258
-0.0271
-0.0143
-0.0067
-0.0038
-0.0044
-0.0137
-0.021
-0.0153
-0.0121
-0.0147
-0.0178
-0.0162
-0.0092
0.0016
0.0048
-0.0159
-0.0303
-0.0239
-0.0089
0
0.0019
-0.0032
-0.0159
-0.0185
-0.0131
-0.014
-0.0182
-0.0185
-0.0127
-0.0051
0.0026
-0.0016
-0.0261
-0.0309
-0.0182
-0.0064
-0.0009
-0.0009
-0.0029
-0.0086
-0.009900000000000001
-0.0095
-0.0131
-0.0134
-0.0105
-0.0054
0.0013
0.0051
-0.0089
-0.0277
-0.0287
-0.0159
-0.008
-0.0051
-0.0051
-0.0127
-0.021
-0.0143
-0.0124
-0.0178
-0.0172
-0.014
-0.0038
0.0064
0.0061
-0.0156
-0.0194
-0.0147
-0.0089
-0.0048
-0.0038
0.0032
-0.0009
-0.0073
-0.0076
-0.0108
-0.0169
-0.0131
-0.0073
0.0003
0.0077
0
-0.0233
-0.0252
-0.0102
0.0016
0.0026
0.0026
0.0007
-0.0041
0.0007
0.0007
0.0016
-0.0009
-0.0009
0.0064
0.0207
0.0297
0.0089
-0.009900000000000001
-0.0115
0.0048
0.0112
0.009299999999999999
0.009299999999999999
0.0042
-0.006
-0.0041
-0.0089
-0.0105
-0.0102
-0.0159
-0.0067
0.0061
0.0064
-0.0182
-0.0306
-0.0242
-0.0102
-0.0038
-0.0025
-0.0022
-0.0108
-0.0134
-0.0127
-0.0147
-0.0172
-0.0147
-0.0108
-0.0029
0.009599999999999999
0.0054
-0.0213
-0.0226
-0.014
-0.0041
-0.0016
0.0026
0.0032
-0.0083
-0.0064
-0.0054
-0.0057
-0.0102
-0.0067
0.001
0.008
0.0166
0
-0.015
-0.0166
-0.0022
0.007
0.0102
0.0083
0.0032
-0.0025
0.0077
0.0074
0.0038
0.0035
0.0045
0.0182
0.0309
0.0348
0.009599999999999999
-0.0025
0.001
0.0153
0.0249
0.0258
0.0297
0.0223
0.0166
0.0137
0.009299999999999999
0.0112
0.009599999999999999
0.0128
0.0211
0.0325
0.0294
0.0064
0.0003
0.014
0.0271
0.0297
0.0309
0.0313
0.0294
0.0335
0.0376
0.0351
0.0335
0.0383
0.0504
0.06759999999999999
0.0759
0.06
0.0402
0.0389
0.0542
0.06320000000000001
0.067
0.0711
0.0616
0.0475
0.0536
0.0507
0.0412
0.0319
0.0332
0.0418
0.0479
0.0456
0.0192
0.0038
0
0.009299999999999999
0.0109
0.0121
0.008
-0.0054
-0.0137
-0.0115
-0.0134
-0.0217
-0.0217
-0.0185
-0.0127
-0.0064
-0.0105
-0.0322
-0.0382
-0.0309
-0.0182
-0.0134
-0.0156
-0.0166
-0.0265
-0.022
-0.0213
-0.0223
-0.0255
-0.0233
-0.0204
-0.0102
0.0038
-0.0092
-0.028
-0.0322
-0.0188
-0.0108
-0.0025
-0.0019
-0.008
-0.0194
-0.0188
-0.0147
-0.0172
-0.0124
-0.0108
-0.0095
-0.0013
0.0029
-0.0175
-0.0284
-0.0265
-0.0124
-0.0051
-0.007
-0.0073
-0.0118
-0.0143
-0.0092
-0.0108
-0.0191
-0.0185
-0.0137
-0.0064
0.0067
0.0058
-0.0182
-0.0229
-0.0111
-0.0003
0.0035
0.0042
-0.0005999999999999999
-0.0131
-0.0086
-0.0032
-0.0051
-0.0095
-0.0086
-0.0048
0.0054
0.0192
0.0131
0
0.0042
0.0268
0.0459
0.0619
0.0794
0.09470000000000001
0.1043
0.1352
0.1579
0.1674
0.1907
0.2248
0.2577
0.294
0.3189
0.3164
0.3157
0.3237
0.3384
0.3425
0.3282
0.3109
0.2797
0.2398
0.2
0.1486
0.0896
0.0335
-0.0201
-0.0746
-0.133
-0.2018
-0.2883
-0.346
-0.3862
-0.4279
-0.4697
-0.5048
-0.5319
-0.5603
-0.5679
-0.574
-0.5765
-0.5743
-0.5571
-0.5344
-0.5108
-0.4805
-0.4636
-0.4547
-0.4289
-0.3855
-0.3447
-0.3103
-0.2816
-0.2557
-0.2321
-0.1961
-0.1712
-0.1479
-0.125
-0.1001
-0.06759999999999999
-0.0347
-0.0095
-0.0127
-0.0147
0.0051
0.0361
0.0552
0.06859999999999999
0.08069999999999999
0.0785
0.0781
0.0915
0.0982
0.09859999999999999
0.1081
0.1196
0.125
0.1362
0.1375
0.1206
0.1186
0.1273
0.1413
0.1451
0.1464
0.1473
0.14
0.1416
0.1413
0.1378
0.1352
0.1365
0.1429
0.148
0.1534
0.1403
0.1193
0.1155
0.1253
0.1263
0.1282
0.1288
0.1231
0.1126
0.1145
0.11
0.1037
0.1001
0.1027
0.1072
0.1129
0.1161
0.0963
0.0832
0.08550000000000001
0.09760000000000001
0.1037
0.1037
0.1049
0.09379999999999999
0.0893
0.0912
0.0893
0.0839
0.0832
0.0868
0.09569999999999999
0.103
0.0982
0.0727
0.0622
0.07240000000000001
0.082
0.0868
0.0832
0.0829
0.0737
0.0766
0.0766
0.0737
0.0648
0.0673
0.0737
0.08550000000000001
0.0919
0.07779999999999999
0.0587
0.0549
0.06859999999999999
0.0718
0.0772
0.0788
0.0727
0.0638
0.0679
0.06569999999999999
0.0625
0.0616
0.0648
0.0721
0.08169999999999999
0.0887
0.0663
0.0504
0.0555
0.0721
0.07779999999999999
0.0746
0.0759
0.06759999999999999
0.06279999999999999
0.06759999999999999
0.0679
0.0584
0.0571
0.0584
0.0689
0.0785
0.07530000000000001
0.0482
0.0437
0.0549
0.06759999999999999
0.0721
0.07049999999999999
0.0746
0.06759999999999999
0.0654
0.0654
0.0667
0.0622
0.0654
0.0756
0.08799999999999999
0.09569999999999999
0.0839
0.0635
0.0654
0.0804
0.0871
0.0915
0.09379999999999999
0.0931
0.0864
0.0963
0.0963
0.0912
0.089
0.0941
0.1037
0.1123
0.119
0.0992
0.08799999999999999
0.0925
0.1059
0.1126
0.1123
0.1139
0.1065
0.1049
0.1097
0.1091
0.1021
0.104
0.1113
0.1202
0.1304
0.1292
0.1078
0.1017
0.1081
0.1206
0.1301
0.1327
0.1304
0.1186
0.1215
0.1196
0.1167
0.1135
0.1142
0.1186
0.1282
0.1333
0.1186
0.09859999999999999
0.0922
0.1033
0.1113
0.1116
0.1097
0.1017
0.09030000000000001
0.0925
0.08740000000000001
0.0788
0.07530000000000001
0.0737
0.0788
0.0858
0.0887
0.0641
0.0453
0.0408
0.051
0.0549
0.0494
0.0459
0.0341
0.0284
0.0281
0.0182
0.009900000000000001
0.0067
0.0064
0.008
0.0134
0.0042
-0.0331
-0.043
-0.037
-0.0306
-0.0274
-0.0296
-0.0398
-0.0583
-0.0641
-0.06569999999999999
-0.07140000000000001
-0.0759
-0.081
-0.08260000000000001
-0.0775
-0.073
-0.0896
-0.1173
-0.125
-0.1154
-0.109
-0.11
-0.1157
-0.1298
-0.1435
-0.1432
-0.1476
-0.1543
-0.1601
-0.1601
-0.1543
-0.1499
-0.1457
-0.17
-0.1862
-0.184
-0.1722
-0.1655
-0.161
-0.1601
-0.1719
-0.1735
-0.1703
-0.1712
-0.1747
-0.1741
-0.1696
-0.1607
-0.147
-0.1467
-0.1709
-0.1754
-0.1658
-0.1515
-0.1451
-0.1454
-0.1381
-0.146
-0.1489
-0.1454
-0.1451
-0.147
-0.1409
-0.1333
-0.1221
-0.1094
-0.1189
-0.1387
-0.1413
-0.1253
-0.1126
-0.1052
-0.1014
-0.0998
-0.1068
-0.0988
-0.09370000000000001
-0.096
-0.0998
-0.09719999999999999
-0.0848
-0.0717
-0.0615
-0.0762
-0.08989999999999999
-0.0915
-0.07679999999999999
-0.066
-0.0618
-0.0596
-0.06850000000000001
-0.074
-0.0669
-0.0634
-0.0682
-0.0669
-0.0583
-0.0481
-0.0395
-0.0382
-0.0593
-0.0669
-0.0558
-0.0408
-0.037
-0.0376
-0.0316
-0.037
-0.036
-0.0402
-0.0427
-0.0434
-0.037
-0.0293
-0.022
-0.0124
-0.0185
-0.037
-0.0446
-0.0351
-0.022
-0.0124
-0.0089
-0.0137
-0.0233
-0.0137
-0.0156
-0.0204
-0.0185
-0.0121
-0.0073
0.0016
0.009299999999999999
-0.0076
-0.0204
-0.0242
-0.0121
-0.0035
-0.0064
-0.0067
-0.0131
-0.0156
-0.0134
-0.0153
-0.0226
-0.022
-0.0166
-0.0134
-0.0032
-0.0038
-0.0287
-0.0319
-0.0217
-0.008
-0.0054
-0.006
-0.007
-0.014
-0.014
-0.0118
-0.0111
-0.0185
-0.0185
-0.0124
-0.0025
0.0074
-0.0009
-0.0245
-0.0287
-0.0153
-0.007
-0.0016
-0.0022
-0.0089
-0.0166
-0.0054
-0.0051
-0.0121
-0.0182
-0.0204
-0.0102
-0.0005999999999999999
-0.0009
-0.0185
-0.0309
-0.03
-0.0194
-0.0143
-0.0108
-0.0118
-0.0207
-0.0277
-0.0249
-0.0245
-0.0293
-0.029
-0.0252
-0.0153
-0.0067
-0.0064
-0.0319
-0.0382
-0.0293
-0.0207
-0.0147
-0.0121
-0.0108
-0.0194
-0.0233
-0.0217
-0.0213
-0.0252
-0.0245
-0.0194
-0.0083
0.0038
-0.0025
-0.0255
-0.0357
-0.0207
-0.0115
-0.0076
-0.0035
-0.0025
-0.0191
-0.0147
-0.0143
-0.0153
-0.0159
-0.0159
-0.0089
-0.0025
0.0045
-0.0121
-0.029
-0.0296
-0.0178
-0.008
-0.0054
-0.0038
-0.0121
-0.0175
-0.0118
-0.0143
-0.0226
-0.022
-0.0175
-0.0102
-0.0009
0.0035
-0.0201
-0.0319
-0.029
-0.0166
-0.0083
-0.0067
-0.0105
-0.0242
-0.0242
-0.0185
-0.0217
-0.03
-0.0258
-0.0185
-0.0095
0.0019
-0.0083
-0.0347
-0.0411
-0.0245
-0.0105
-0.0057
-0.006
-0.0118
-0.0213
-0.0127
-0.014
-0.0182
-0.0188
-0.0166
-0.0083
-0.0009
0.008
-0.0073
-0.0188
-0.0213
-0.0153
-0.0057
0.0003
0.0054
-0.006
-0.0131
-0.007
-0.0057
-0.0124
-0.0127
-0.0121
-0.0029
0.0077
0.0077
-0.0172
-0.0236
-0.0169
-0.0051
-0.0005999999999999999
0.0007
0.0035
-0.0029
-0.0041
-0.0029
-0.0022
-0.0051
-0.0067
-0.0009
0.0105
0.0214
0.0134
-0.0073
-0.0108
0.0029
0.0118
0.014
0.0163
0.0137
0.0054
0.0112
0.0115
0.0061
0.0035
0.0032
0.0109
0.0201
0.0243
0.0067
-0.0092
-0.0086
0.0064
0.0121
0.0115
0.0144
0.0077
0.0022
0.008
0.0109
0.0054
0.0054
0.0118
0.0207
0.0325
0.0367
0.0115
0.0058
0.0163
0.0294
0.0383
0.0383
0.0383
0.0287
0.0303
0.03
0.0309
0.0271
0.0309
0.0335
0.0392
0.0479
0.038
0.0102
0.0064
0.0172
0.0243
0.0239
0.023
0.0131
-0.0016
-0.0009
-0.0083
-0.0194
-0.0239
-0.0233
-0.0229
-0.0156
-0.0111
-0.0325
-0.0532
-0.0593
-0.0491
-0.0408
-0.0382
-0.0398
-0.0469
-0.052
-0.0469
-0.0485
-0.0523
-0.0532
-0.0491
-0.0405
-0.0287
-0.0258
-0.0485
-0.0558
-0.0475
-0.0347
-0.0265
-0.0255
-0.0277
-0.036
-0.0344
-0.0316
-0.0338
-0.0382
-0.0347
-0.0287
-0.021
-0.0118
-0.0213
-0.0437
-0.0481
-0.0373
-0.028
-0.0236
-0.0226
-0.0249
-0.0389
-0.0347
-0.0338
-0.0351
-0.0373
-0.036
-0.0312
-0.0204
-0.0124
-0.029
-0.0453
-0.0465
-0.0338
-0.0249
-0.0242
-0.021
-0.0261
-0.029
-0.0217
-0.0229
-0.029
-0.0296
-0.0255
-0.0191
-0.0089
-0.0064
-0.0277
-0.0382
-0.0338
-0.0217
-0.0134
-0.0064
0
-0.0064
-0.0035
0.008
0.0185
0.0262
0.045
0.06759999999999999
0.09760000000000001
0.1253
0.1429
0.1432
0.1649
0.2
0.2318
0.2612
0.28
0.2934
0.2944
0.301
0.3004
0.2899
0.2663
0.2456
0.2201
0.1885
0.1486
0.0848
0.0109
-0.0453
-0.0902
-0.1451
-0.2143
-0.2761
-0.3396
-0.3944
-0.4369
-0.4805
-0.5265
-0.5533
-0.5714
-0.5749
-0.5689
-0.5686
-0.5901999999999999
-0.5925
-0.5708
-0.5367
-0.5064
-0.4828
-0.4503
-0.4295
-0.4047
-0.3734
-0.3431
-0.3163
-0.2841
-0.2471
-0.2053
-0.1655
-0.1467
-0.1444
-0.1266
-0.0893
-0.0548
-0.0312
-0.0124
0.0045
0.0125
0.0303
0.0418
0.0479
0.0555
0.0654
0.0823
0.1014
0.111
0.0992
0.0925
0.097
0.1129
0.1237
0.1269
0.1298
0.1241
0.117
0.125
0.1285
0.1228
0.1247
0.1298
0.1371
0.1454
0.1438
0.119
0.1104
0.1145
0.126
0.133
0.134
0.1333
0.1231
0.1218
0.1237
0.1196
0.1145
0.1142
0.1174
0.125
0.1333
0.1263
0.103
0.0944
0.1027
0.1135
0.1196
0.1158
0.1078
0.0982
0.1001
0.0963
0.0915
0.08989999999999999
0.0887
0.09089999999999999
0.1008
0.111
0.0915
0.0692
0.06510000000000001
0.0775
0.0823
0.082
0.0842
0.0775
0.0689
0.07049999999999999
0.0711
0.06
0.0507
0.0555
0.0641
0.07530000000000001
0.0794
0.0663
0.0555
0.0577
0.06569999999999999
0.06759999999999999
0.0692
0.0727
0.07049999999999999
0.06950000000000001
0.0721
0.0727
0.067
0.0635
0.066
0.07969999999999999
0.0858
0.0756
0.0584
0.0625
0.0683
0.0711
0.0785
0.0781
0.0727
0.0673
0.07530000000000001
0.074
0.0718
0.0663
0.0648
0.07340000000000001
0.08450000000000001
0.0906
0.07140000000000001
0.0533
0.052
0.06569999999999999
0.074
0.0756
0.0766
0.0699
0.06279999999999999
0.0689
0.0679
0.06569999999999999
0.06279999999999999
0.0644
0.07240000000000001
0.08359999999999999
0.0896
0.0673
0.059
0.0673
0.0775
0.0848
0.089
0.08989999999999999
0.0848
0.0896
0.0935
0.0858
0.0788
0.082
0.09279999999999999
0.1053
0.1142
0.1053
0.08260000000000001
0.0804
0.09279999999999999
0.1033
0.1062
0.1027
0.0992
0.0963
0.1024
0.1021
0.0989
0.0998
0.1043
0.1123
0.1202
0.1288
0.1167
0.1005
0.1008
0.118
0.1247
0.126
0.1285
0.1234
0.1158
0.1225
0.1234
0.1199
0.1199
0.1199
0.1285
0.14
0.1426
0.1186
0.1078
0.1116
0.1212
0.1298
0.1253
0.1212
0.111
0.1088
0.1135
0.1043
0.0922
0.0887
0.09279999999999999
0.1014
0.1104
0.1001
0.0708
0.06
0.0699
0.0794
0.07969999999999999
0.0756
0.0692
0.0552
0.0555
0.0501
0.0443
0.038
0.0348
0.0351
0.0418
0.044
0.022
-0.0025
-0.0118
-0.0019
0.0029
0.0029
-0.0032
-0.0159
-0.0303
-0.0287
-0.0322
-0.0376
-0.0459
-0.0529
-0.052
-0.0437
-0.044
-0.0746
-0.08740000000000001
-0.0867
-0.07969999999999999
-0.07779999999999999
-0.08
-0.08260000000000001
-0.09719999999999999
-0.1043
-0.1039
-0.1097
-0.1212
-0.1215
-0.1151
-0.111
-0.1126
-0.1196
-0.1454
-0.1562
-0.1451
-0.1377
-0.1377
-0.139
-0.1464
-0.1601
-0.1582
-0.161
-0.1655
-0.1671
-0.1629
-0.1585
-0.154
-0.1473
-0.1582
-0.176
-0.177
-0.1591
-0.1457
-0.1435
-0.1438
-0.147
-0.1502
-0.1397
-0.1409
-0.1448
-0.1441
-0.1384
-0.1259
-0.1145
-0.1065
-0.1275
-0.1368
-0.1307
-0.1234
-0.1186
-0.1119
-0.1033
-0.1087
-0.1113
-0.11
-0.1138
-0.1177
-0.1116
-0.1023
-0.0921
-0.0803
-0.08069999999999999
-0.1062
-0.111
-0.0956
-0.0842
-0.0781
-0.0733
-0.0736
-0.0823
-0.0765
-0.0717
-0.0752
-0.07779999999999999
-0.0736
-0.0631
-0.052
-0.0402
-0.0526
-0.06950000000000001
-0.06950000000000001
-0.0561
-0.0465
-0.0408
-0.0354
-0.0395
-0.0494
-0.0437
-0.0434
-0.0462
-0.0437
-0.0392
-0.0293
-0.0185
-0.0178
-0.0379
-0.0462
-0.043
-0.03
-0.0226
-0.0249
-0.0191
-0.0252
-0.0271
-0.0239
-0.0245
-0.0319
-0.0277
-0.0207
-0.0115
-0.0003
-0.0057
-0.0319
-0.0331
-0.0194
-0.0111
-0.0048
-0.0038
-0.0051
-0.0131
-0.0127
-0.0127
-0.0166
-0.0191
-0.015
-0.007
-0.0013
0.0026
-0.0089
-0.0245
-0.0268
-0.0175
-0.0127
-0.0086
-0.0044
-0.0108
-0.0217
-0.0172
-0.015
-0.0201
-0.022
-0.0182
-0.0089
-0.0019
0.0019
-0.0223
-0.0309
-0.0223
-0.0095
-0.007
-0.0054
-0.0051
-0.015
-0.0175
-0.014
-0.0162
-0.0245
-0.0233
-0.0185
-0.0086
-0.0029
-0.0095
-0.0309
-0.0357
-0.0271
-0.0169
-0.0143
-0.0166
-0.015
-0.022
-0.0172
-0.0166
-0.0226
-0.0258
-0.0245
-0.015
-0.0022
0.0048
-0.0102
-0.0303
-0.0325
-0.0191
-0.006
-0.0025
-0.0013
-0.0102
-0.0204
-0.0124
-0.0127
-0.0182
-0.0204
-0.0166
-0.0111
0.0003
0.0054
-0.0175
-0.0287
-0.0255
-0.0127
-0.0038
-0.0025
-0.0025
-0.0118
-0.0147
-0.0102
-0.0095
-0.0127
-0.0083
-0.0038
-0.0019
0.0058
0.0035
-0.0185
-0.022
-0.0134
-0.0038
-0.0003
-0.0009
-0.0013
-0.0111
-0.0086
-0.0102
-0.0137
-0.0226
-0.0191
-0.0105
-0.0003
0.009900000000000001
-0.0029
-0.0223
-0.0261
-0.0166
-0.0105
-0.0022
0.0019
-0.0038
-0.0143
-0.0102
-0.008
-0.0127
-0.0162
-0.009900000000000001
-0.0009
0.0064
0.0089
-0.009900000000000001
-0.0217
-0.021
-0.0083
0.0016
0.001
0.001
-0.0089
-0.0086
-0.006
-0.0115
-0.0134
-0.0124
-0.008
0.0026
0.009299999999999999
0.0064
-0.0175
-0.0252
-0.0194
-0.0076
-0.0025
-0.0025
-0.0022
-0.0162
-0.0162
-0.0115
-0.0153
-0.0223
-0.0201
-0.0162
-0.007
0.0007
-0.0124
-0.0312
-0.0319
-0.0182
-0.0108
-0.0073
-0.007
-0.0086
-0.0162
-0.0086
-0.0089
-0.0131
-0.0162
-0.0111
0.0016
0.0118
0.015
-0.0051
-0.0153
-0.0108
0.001
0.0051
0.0045
0.0058
0.0007
-0.0013
0.0029
-0.0025
-0.0064
-0.0054
-0.0022
0.0029
0.015
0.0128
-0.0115
-0.0162
-0.0054
0.0054
0.0102
0.007
0.0042
-0.0038
-0.0003
-0.0016
-0.0025
-0.0054
-0.0054
-0.006
0.0058
0.016
0.0029
-0.0185
-0.0226
-0.0089
0.0003
0.0035
0.0054
0
-0.0057
-0.0041
-0.007
-0.008
-0.0041
0.0013
0.0089
0.0207
0.0268
0.0105
0.0003
0.0029
0.0163
0.0271
0.0319
0.0386
0.0345
0.0306
0.0351
0.0348
