-0.0063538
-0.079703
-0.028359
0.012143
0.00066221
0.067633
0.038931
-0.014327
-0.017835
0.047223
0.0035324
0.0022568
0.016289
-0.061206
-0.06312
-0.06599
-0.058017
-0.030591
-0.011775
-0.005716
-0.011775
0.043077
0.055196
0.037656
-0.017835
-0.030272
0.063169
0.032872
-0.015921
-0.010819
-0.078427
-0.073325
-0.011775
-0.01624
-0.070774
0.016608
0.017564
-0.015602
0.066358
0.058704
0.049774
0.03925
0.0003433
0.03351
0.031915
0.024262
-0.017197
-0.066628
-0.08066
-0.0031647
0.0073593
-0.079703
-0.026764
0.012143
0.0016189
0.075925
0.044034
-0.0060349
-0.0047593
0.043396
-0.0047593
-0.012413
0.016927
-0.059612
-0.072049
-0.073006
-0.059931
-0.020705
-0.034099
-0.031548
-0.025488
0.03064
0.067952
0.031915
-0.027083
-0.033142
0.063487
0.032234
0.0079971
-0.0053971
-0.086719
-0.073325
-0.017197
-0.023256
-0.066947
0.0057648
0.0038513
-0.024213
0.060617
0.05392
0.040526
0.022029
-0.011775
0.042121
0.029364
-0.0066727
-0.022299
-0.076833
-0.075876
0.0019378
0.0038513
-0.090227
-0.029953
0.011186
-0.0105
0.068909
0.043396
0.008635
0.01023
0.035742
-0.005716
0.00098112
0.012462
-0.050044
-0.059931
-0.071093
-0.051958
-0.0060349
-0.038883
-0.025807
-0.0028458
0.037656
0.074649
0.038931
-0.024213
-0.023256
0.068271
0.03064
2.4388e-05
0.0089539
-0.073006
-0.062163
-0.026764
-0.03091
-0.055785
0.011824
0.0041702
-0.03665
0.047223
0.052645
0.038612
0.011824
-0.027083
0.048499
0.024262
-0.0028458
-0.035375
-0.080979
-0.073006
0.0025757
-0.0034836
-0.078109
-0.0085862
0.02458
-0.0031647
0.083579
0.062531
0.02777
0.021391
0.036699
0.01023
0.023943
0.024262
-0.045261
-0.064395
-0.063758
-0.02804
0.0003433
-0.066309
-0.041753
-0.0082673
0.030959
0.076882
0.033829
-0.032186
-0.027402
0.062531
0.012143
-0.0105
0.0089539
-0.073325
-0.059612
-0.03952
-0.041753
-0.044623
0.014694
0.0073593
-0.018472
0.059661
0.065401
0.03925
0.0060837
-0.022937
0.06572
0.038294
0.0028946
-0.027083
-0.086719
-0.082573
-0.012413
-0.012094
-0.085443
-0.0066727
-0.0015702
-0.022299
0.061574
0.034148
0.024899
0.022029
0.022029
0.00066221
0.0089539
0.013419
-0.035694
-0.06312
-0.06599
-0.017516
0.0044891
-0.068222
-0.027721
0.01884
0.036699
0.083579
0.061574
-0.0053971
-0.011775
0.065401
0.016608
-0.0044404
0.016289
-0.059612
-0.058655
-0.051958
-0.050682
-0.036969
0.0019378
-0.011775
-0.026126
0.038612
0.058066
0.039569
-0.005716
-0.024213
0.069228
0.037337
-0.00061343
-0.005716
-0.0864
-0.076833
0.0019378
-0.0047593
-0.077152
-0.00029452
2.4388e-05
-0.024851
0.056471
0.044034
0.024262
0.022986
0.011824
0.012781
0.011824
0.0073593
-0.037607
-0.067585
-0.067903
-0.017197
-0.014964
-0.085762
-0.035694
0.0057648
0.014375
0.069228
0.046904
-0.018791
-0.016559
0.057747
0.01023
0.0013
0.01884
-0.052277
-0.049088
-0.050682
-0.043985
-0.0095429
0.0076782
-0.002208
-0.0041214
0.055515
0.088681
0.055834
0.00098112
-0.022937
0.073055
0.040526
0.0019378
-0.0015702
-0.076833
-0.069498
0.010548
-0.012413
-0.080022
0.0076782
0.010548
-0.025807
0.064125
0.050731
0.035104
0.022986
-0.0082673
0.012143
0.017883
-0.00093234
-0.041115
-0.079384
-0.083211
-0.027402
-0.0073105
-0.093416
-0.039839
-0.0031647
2.4388e-05
0.072098
0.040526
-0.012732
-0.02198
0.038612
-0.0050782
-0.0053971
0.014694
-0.058336
-0.070774
-0.074282
-0.064395
-0.024851
-0.022937
-0.020705
-0.014645
0.036699
0.070185
0.039569
-0.017835
-0.026764
0.076882
0.044034
0.013738
0.021072
-0.061206
-0.052915
0.0038513
0.0032135
-0.047812
0.031915
0.028726
-0.009224
0.077838
0.067633
0.047542
0.040526
0.004808
0.040207
0.043715
0.02171
-0.025488
-0.075238
-0.070136
0.013738
0.013419
-0.086719
-0.01624
0.014694
0.0044891
0.077201
0.04818
0.00066221
-0.0015702
0.038294
0.0054459
-0.00093234
0.012462
-0.05419
-0.066947
-0.080979
-0.060569
-0.018472
-0.040477
-0.028996
-0.013051
0.027451
0.05679
0.023305
-0.026445
-0.025488
0.069866
0.032553
-0.012094
-0.0066727
-0.070774
-0.062482
-0.018791
-0.012094
-0.045899
0.029683
0.016608
-0.014964
0.063169
0.058066
0.047542
0.040526
-0.0015702
0.058385
0.031915
0.0044891
-0.023256
-0.071093
-0.075238
0.0044891
-0.002208
-0.074919
-0.0076295
0.013419
-0.02198
0.077838
0.056471
0.0073593
0.0131
0.034148
-0.011137
-0.0044404
0.010867
-0.04558
-0.063439
-0.083211
-0.055466
-0.014327
-0.051001
-0.028678
-0.0073105
0.028726
0.079752
0.044991
-0.018791
-0.021343
0.076244
0.035104
0.0041702
0.01597
-0.065033
-0.053552
-0.02198
-0.025488
-0.03952
0.025537
0.010548
-0.014964
0.064125
0.066358
0.046266
0.027132
-0.010819
0.064125
0.047542
0.016289
-0.0053971
-0.067266
-0.076195
0.0003433
-0.002208
-0.08927
-0.014327
0.0054459
-0.018791
0.069547
0.045629
0.026813
-0.0041214
0.004808
-0.015602
0.011824
0.016289
-0.038245
-0.061525
-0.07173
-0.035694
0.0054459
-0.040158
-0.0098618
0.019797
0.040207
0.097611
0.055834
-0.028678
-0.022937
0.073374
0.026175
-0.0073105
0.00066221
-0.086081
-0.072368
-0.052277
-0.057698
-0.06025
-0.0095429
-0.018791
-0.050363
0.037337
0.058704
0.041483
0.0041702
-0.022937
0.071141
0.052645
0.0003433
-0.011456
-0.071411
-0.056423
0.016927
0.012781
-0.070136
0.0057648
0.036699
-0.014327
0.070185
0.054877
0.039569
0.034148
0.018521
0.010548
0.021072
0.021391
-0.031867
-0.061844
-0.076833
-0.025807
0.00066221
-0.066628
-0.035375
0.0019378
0.013419
0.07146
0.04531
-0.019429
-0.021343
0.06285
0.014375
0.0057648
0.019159
-0.058974
-0.058017
-0.043028
-0.034418
-0.015921
0.017883
-0.00029452
-0.0012513
0.074649
0.091552
0.05392
0.0067215
-0.010181
0.074968
0.047542
0.0044891
-0.00029452
-0.069817
-0.057698
-0.0015702
-0.016878
-0.096605
-0.011775
0.0025757
-0.039202
0.043396
0.034148
0.016289
0.022348
-0.028678
-0.018472
-0.00061343
0.0092728
-0.042072
-0.083849
-0.090546
-0.029315
-0.0053971
-0.085443
-0.031548
0.010867
0.015332
0.087087
0.060936
-0.0066727
-0.005716
0.053282
0.01597
0.0022568
0.021391
-0.050682
-0.050363
-0.051001
-0.040796
-0.013051
-0.00061343
0.00098112
-0.0031647
0.060936
0.094103
0.052326
0.0044891
-0.013689
0.087087
0.056153
0.018521
0.015332
-0.062163
-0.053871
0.0089539
-0.0060349
-0.074601
0.013419
0.017564
-0.021343
0.059979
0.051369
0.035104
0.024262
-0.017197
0.014694
0.017246
0.0025757
-0.03952
-0.0864
-0.088952
-0.022618
-0.01337
-0.096286
-0.041434
2.4388e-05
-0.0082673
0.057428
0.034786
-0.015602
-0.013051
0.037337
-0.0095429
-0.0073105
0.01597
-0.050363
-0.056742
-0.064077
-0.053234
-0.0085862
-0.01624
-0.0089051
-0.0015702
0.044991
0.088681
0.056471
-0.0015702
-0.01337
0.082622
0.051688
0.008316
0.014375
-0.059293
-0.050363
-0.0073105
-0.0082673
-0.041434
0.030959
0.031596
-0.0066727
0.061893
0.067952
0.051688
0.043077
-0.002208
0.046585
0.043077
0.022348
-0.0105
-0.063758
-0.069817
0.0032135
0.0054459
-0.078427
-0.017197
0.021391
0.0057648
0.08613
0.035104
0.0032135
-0.00029452
0.037975
-0.0028458
-0.005716
2.4388e-05
-0.073644
-0.084487
-0.094054
-0.073325
-0.023575
-0.064714
-0.048769
-0.031229
0.013738
0.054558
0.020116
-0.045899
-0.044304
0.058066
0.028726
-0.011456
-0.0076295
-0.099794
-0.080022
-0.028996
-0.029953
-0.058974
0.011824
2.4388e-05
-0.03091
0.052326
0.062212
0.048818
0.01597
-0.018153
0.05105
0.044991
0.017883
-0.0085862
-0.069817
-0.069179
0.00066221
0.0057648
-0.079384
-0.012732
0.022029
0.00066221
0.074649
0.057109
0.021391
-0.0018891
0.029045
0.0070404
0.014375
0.021072
-0.040158
-0.059612
-0.067585
-0.040477
-0.0069916
-0.047493
-0.027083
0.0022568
0.027451
0.072417
0.041164
-0.024851
-0.028359
0.061574
0.021391
-0.0082673
0.0003433
-0.078746
-0.074919
-0.044942
-0.05132
-0.058017
0.008635
-0.0076295
-0.031548
0.043077
0.042439
0.024899
0.0022568
-0.036012
0.039569
0.031915
-0.0044404
-0.026126
-0.089908
-0.09533
-0.005716
0.0064026
-0.083849
-0.020386
0.0038513
-0.027083
0.059342
0.03925
0.026175
0.011505
0.017564
0.0022568
0.017246
0.0131
-0.04558
-0.069179
-0.087357
-0.044304
0.0035324
-0.06025
-0.01624
0.021072
0.043715
0.068909
0.038931
-0.015283
-0.0047593
0.081984
0.040207
0.0051269
0.014056
-0.062801
-0.066947
-0.050044
-0.048769
-0.040158
-0.00061343
-0.0063538
-0.031229
0.035742
0.050731
0.022029
-0.0098618
-0.036331
0.05105
0.027132
-0.015283
-0.020386
-0.084806
-0.082892
-0.0082673
-0.014645
-0.088952
-0.015921
0.0051269
-0.02517
0.058385
0.040845
0.012781
0.0060837
0.0060837
-0.0015702
0.0025757
2.4388e-05
-0.058017
-0.083849
-0.087676
-0.028359
-0.00061343
-0.082573
-0.040477
-0.0031647
0.01023
0.079752
0.05105
-0.0095429
-0.010181
0.063169
0.018521
0.0022568
0.012781
-0.056104
-0.052596
-0.051001
-0.039202
-0.034099
-0.0095429
-0.009224
-0.018472
0.046904
0.069228
0.046585
-0.00061343
-0.023575
0.066677
0.050731
0.0095917
0.0079971
-0.06599
-0.059612
0.0051269
0.016289
-0.049726
0.0079971
0.024899
-0.0053971
0.075606
0.064444
0.040207
0.029045
2.4388e-05
0.012781
0.023624
0.011505
-0.031548
-0.079384
-0.086081
-0.028359
-0.010181
-0.10043
-0.044623
-0.0089051
-0.010181
0.052645
0.031915
-0.015921
-0.025807
0.027451
-0.0079484
-0.0085862
0.0041702
-0.056742
-0.061525
-0.067903
-0.06025
-0.026126
-0.0095429
-0.01337
-0.0044404
0.051688
0.085492
0.065401
-0.012732
-0.025488
0.075606
0.054239
0.0089539
0.011505
-0.066309
-0.058655
0.0054459
-0.009224
-0.055466
0.020754
0.024899
-0.012413
0.06859
0.066039
0.042439
0.03638
-0.005716
0.025218
0.026813
0.0089539
-0.027402
-0.07779
-0.087676
-0.016559
-0.005716
-0.092778
-0.036331
0.012462
0.0064026
0.079433
0.049137
0.0032135
-0.00061343
0.043715
0.008635
0.017883
0.039888
-0.038564
-0.056104
-0.055147
-0.037607
0.008635
-0.020386
-0.0085862
-0.002208
0.037337
0.076244
0.043715
-0.015283
-0.034418
0.058704
0.022029
-0.012413
-0.00029452
-0.0864
-0.076833
-0.03665
-0.02804
-0.07779
0.00098112
0.0032135
-0.025488
0.051369
0.054558
0.05105
0.03064
-0.012732
0.035104
0.035104
0.0089539
-0.01337
-0.069817
-0.079703
-0.0034836
0.0025757
-0.09246
-0.021024
0.021072
-0.00029452
0.072736
0.055196
0.0092728
-0.00093234
0.029364
0.0016189
0.012781
0.022029
-0.037926
-0.055785
-0.064714
-0.043028
0.00098112
-0.035375
-0.022299
0.0057648
0.040845
0.087725
0.051688
-0.012094
-0.0105
0.088362
0.052326
0.008635
0.017246
-0.05132
-0.043028
-0.0079484
-0.016559
-0.029315
0.042439
0.027132
-0.0028458
0.072736
0.069547
0.05679
0.038294
-0.0098618
0.052963
0.049137
0.0064026
-0.0073105
-0.075238
-0.087038
-0.0063538
-0.012413
-0.10011
-0.028996
-0.00029452
-0.032504
0.052326
0.035423
-0.0025269
-0.0063538
0.0051269
-0.022299
-0.0018891
0.0051269
-0.051639
-0.080979
-0.092778
-0.062482
-0.0095429
-0.059931
-0.034737
-0.0012513
0.020116
0.070185
0.038612
-0.030272
-0.029634
0.064763
0.025218
-0.00093234
0.010548
-0.072368
-0.066947
-0.044623
-0.04558
-0.029634
0.023305
0.010867
-0.017516
0.058066
0.067952
0.04818
0.024899
-0.011456
0.07146
0.061574
0.019159
0.004808
-0.060887
-0.054828
0.019478
0.022348
-0.063439
0.01023
0.038612
0.011824
0.092189
0.070822
0.043715
0.030002
0.024262
0.017246
0.037337
0.026175
-0.014645
-0.058655
-0.08353
-0.034099
-0.0038025
-0.076195
-0.038883
0.0025757
0.015651
0.067633
0.030002
-0.038564
-0.035694
0.048499
0.0032135
-0.020705
-0.0038025
-0.078109
-0.076195
-0.065033
-0.072368
-0.047174
-0.0079484
-0.017197
-0.024532
0.039888
0.058385
0.040526
0.0022568
-0.021024
0.07752
0.062212
0.012143
-0.00061343
-0.072049
-0.053871
0.011824
0.013738
-0.058655
0.015332
0.030321
-0.0060349
0.077201
0.060936
0.043715
0.041802
0.022029
0.025537
0.037656
0.022029
-0.018153
-0.054509
-0.060569
-0.0076295
0.015013
-0.060887
-0.041434
0.0092728
0.0054459
0.08039
0.044991
-0.015283
-0.017835
0.041483
0.0073593
-0.0105
0.00066221
-0.067903
-0.065033
-0.066628
-0.061525
-0.029315
-0.0069916
-0.005716
-0.015602
0.042439
0.072098
0.03925
-0.01337
-0.028996
0.072417
0.042758
-0.0073105
-0.0082673
-0.091184
-0.080022
-0.014008
-0.017197
-0.088952
-0.0076295
-0.0028458
-0.041753
0.048818
0.041164
0.022029
0.015651
-0.017197
0.0095917
0.017246
0.0019378
-0.030591
-0.079065
-0.074601
-0.012094
0.0025757
-0.079703
-0.022937
0.025218
0.019159
0.089
0.063487
0.0022568
0.0022568
0.055515
0.023305
0.019159
0.027132
-0.03952
-0.050363
-0.056423
-0.04558
-0.0031647
-0.0069916
-0.0098618
-0.0012513
0.046266
0.098249
0.035104
-0.0069916
-0.012413
0.085492
0.058385
0.004808
0.015332
-0.060887
-0.063758
-0.011137
-0.014645
-0.056104
0.012781
0.0054459
-0.021343
0.058704
0.046585
0.040526
0.026175
-0.014645
0.025537
0.03064
0.0019378
-0.026764
-0.075557
-0.080341
-0.0060349
0.0070404
-0.087676
-0.032186
0.017564
0.0019378
0.076244
0.053601
0.0032135
-0.0066727
0.033829
0.0019378
-0.0034836
0.01023
-0.055147
-0.06312
-0.072687
-0.058336
-0.0063538
-0.043347
-0.024851
-0.0076295
0.030002
0.085811
0.050093
-0.014327
-0.019429
0.073055
0.047542
0.013738
0.021391
-0.053871
-0.039202
-0.0031647
-0.0066727
-0.041434
0.028726
0.022029
-0.0038025
0.079114
0.083579
0.067633
0.037337
-0.012094
0.051369
0.048499
0.015651
-0.012094
-0.062801
-0.083211
-0.0015702
-0.005716
-0.082254
-0.023256
0.0051269
-0.022299
0.060936
0.042758
0.004808
-0.011775
0.0095917
-0.017197
-0.0015702
0.0089539
-0.051001
-0.073963
-0.080979
-0.052596
-0.0066727
-0.044623
-0.026126
0.0092728
0.037975
0.078157
0.05679
-0.009224
-0.0085862
0.078157
0.054877
0.021391
0.01597
-0.051958
-0.043028
-0.026445
-0.024851
-0.033142
0.024899
0.012462
-0.029953
0.044034
0.067314
0.049137
0.020754
-0.037926
0.040526
0.033829
-0.0050782
-0.026126
-0.091503
-0.085443
-0.0050782
-0.014327
-0.096924
-0.028359
-0.002208
-0.026445
0.056153
0.048499
0.024262
0.010867
0.004808
0.0038513
0.013419
0.0089539
-0.041434
-0.063758
-0.073644
-0.03665
0.0016189
-0.063758
-0.032186
0.0028946
0.019478
0.074649
0.042121
-0.02517
-0.024213
0.059661
0.021072
-0.0073105
0.010548
-0.072368
-0.060887
-0.046855
-0.044304
-0.030591
0.0057648
-0.00029452
-0.024532
0.04818
0.070185
0.047223
0.017246
-0.023894
0.065082
0.044991
0.00098112
-0.0073105
-0.078746
-0.075238
0.0041702
-0.0038025
-0.08066
-0.0031647
0.023624
-0.010819
0.076882
0.059979
0.047861
0.041802
0.026175
0.025856
0.038294
0.035423
-0.012413
-0.051001
-0.06312
-0.0076295
0.016608
-0.059612
-0.036331
-0.00061343
0.015013
0.075925
0.046585
-0.022618
-0.036331
0.03064
-0.009224
-0.015921
0.0076782
-0.074601
-0.077471
-0.072049
-0.076833
-0.038883
-0.010819
-0.016878
-0.026764
0.033829
0.055834
0.034148
-0.014327
-0.04558
0.055196
0.034786
-0.0098618
-0.013689
-0.088633
-0.082254
-0.012732
-0.014327
-0.080341
-0.0076295
0.004808
-0.025807
0.059023
0.050412
0.03638
0.027451
-0.00093234
0.013738
0.02458
0.0099106
-0.029315
-0.070774
-0.075876
-0.014964
0.0016189
-0.083211
-0.029953
0.015013
0.004808
0.069866
0.046266
-0.0089051
-0.0053971
0.052326
0.013419
0.0035324
0.018521
-0.049407
-0.053234
-0.059931
-0.057698
-0.0095429
-0.0015702
-0.0053971
-0.005716
0.053282
0.072736
0.052645
0.00098112
-0.01624
0.078795
0.052326
-0.0038025
0.0041702
-0.076833
-0.064077
-0.0085862
-0.025488
-0.074282
0.0016189
0.0028946
-0.033142
0.047542
0.050412
0.023305
0.010867
-0.025488
0.020116
0.032553
0.0019378
-0.035694
-0.088952
-0.081298
-0.01337
-0.011137
-0.091822
-0.022618
0.020435
0.0035324
0.072736
0.047542
0.0022568
0.004808
0.043077
0.0131
0.0032135
0.02458
-0.039202
-0.053871
-0.066947
-0.044304
0.0025757
-0.023575
-0.0089051
0.0025757
0.044353
0.08613
0.047542
-0.013689
-0.01911
0.075606
0.046585
0.0051269
0.014694
-0.055466
-0.061844
-0.015283
-0.015921
-0.044623
0.020116
0.01884
-0.014327
0.05392
0.05392
0.045947
0.03351
-0.014327
0.037656
0.036061
0.0079971
-0.014964
-0.075876
-0.079703
0.0003433
0.0038513
-0.093097
-0.022299
0.016289
-0.010819
0.061574
0.049137
0.0079971
-0.0031647
0.018202
-0.016559
-0.0079484
0.0013
-0.056104
-0.081935
-0.089908
-0.064077
-0.019429
-0.063758
-0.040477
-0.017197
0.020754
0.075287
0.039888
-0.032186
-0.024851
0.065401
0.021072
-0.0085862
0.01023
-0.067585
-0.066628
-0.040158
-0.038245
-0.044304
0.011186
-0.0063538
-0.031229
0.043396
0.061893
0.041483
0.019478
-0.027721
0.061255
0.040207
-0.017197
-0.009224
-0.06886
-0.070455
0.0079971
-0.0079484
-0.075876
-0.0050782
0.027451
-0.0079484
0.075925
0.05679
0.021391
0.022348
0.035104
0.010548
0.01884
0.01023
-0.042072
-0.064077
-0.076833
-0.044304
-0.0028458
-0.069498
-0.054509
0.0003433
0.018202
0.063487
0.02777
-0.034737
-0.027402
0.052326
0.012462
-0.010819
0.0044891
-0.066628
-0.065352
-0.051958
-0.053234
-0.043028
-0.00093234
-0.002208
-0.024532
0.044672
0.067633
0.041483
0.010548
-0.024532
0.05679
0.050412
0.0028946
-0.0079484
-0.076833
-0.064714
0.01597
0.0079971
-0.070455
0.0131
0.025218
2.4388e-05
0.065401
0.058704
0.038294
0.03638
0.019159
0.013419
0.029364
0.017564
-0.03378
-0.073644
-0.077152
-0.023894
0.0060837
-0.070774
-0.031548
0.015651
0.016289
0.077838
0.043715
-0.012094
-0.010819
0.060617
0.029045
0.010548
0.019478
-0.054828
-0.05419
-0.070455
-0.04845
-0.018791
0.0041702
-0.0060349
-0.019429
0.040526
0.066677
0.032234
-0.0089051
-0.037607
0.062212
0.040845
-0.0044404
-0.0089051
-0.086081
-0.083849
-0.020386
-0.022299
-0.073006
-0.00029452
0.0028946
-0.036331
0.060298
0.052963
0.025218
0.0019378
-0.009224
0.0073593
0.019478
0.0131
-0.033461
-0.076833
-0.08066
-0.022618
0.0032135
-0.078427
-0.03091
0.016927
0.010548
0.078157
0.060298
-0.0041214
-0.00029452
0.056153
0.01597
0.014375
0.029683
-0.040477
-0.05132
-0.052277
-0.041115
2.4388e-05
-0.00029452
0.0051269
0.004808
0.05679
0.088362
0.053282
-0.0073105
-0.026126
0.082303
0.060298
-0.0063538
-0.0012513
-0.075238
-0.069817
-0.020705
-0.025488
-0.075876
-0.00029452
-0.0018891
-0.03952
0.048818
0.045947
0.026813
0.012462
-0.03378
0.004808
0.012462
-0.0041214
-0.044942
-0.090546
-0.098838
-0.023256
-0.0050782
-0.094373
-0.03665
0.015332
-0.00093234
0.080709
0.055834
0.0013
0.0057648
0.064444
0.02458
0.031278
0.044034
-0.020705
-0.04271
-0.049407
-0.02517
0.022986
0.0089539
-0.0085862
0.0032135
0.060936
0.10782
0.064444
0.0028946
-0.0050782
0.079752
0.052645
0.015013
0.012143
-0.059293
-0.049407
-0.012094
-0.017835
-0.043985
0.018202
0.011824
-0.017835
0.059661
0.064444
0.042758
0.025218
-0.021343
0.037656
0.033191
0.0016189
-0.030272
-0.08927
-0.0864
-0.010181
-0.0069916
-0.097881
-0.035694
-0.0028458
-0.029315
0.059342
0.043077
0.0032135
0.0032135
0.023624
-0.011456
0.0131
0.014375
-0.045261
-0.066309
-0.068541
-0.047812
-0.0018891
-0.047174
-0.019429
0.015651
0.055196
0.074968
0.021072
-0.029315
-0.014964
0.076244
0.028726
-0.005716
0.015651
-0.070774
-0.066947
-0.030591
-0.026126
-0.044942
0.017246
0.017246
-0.012094
0.060617
0.073055
0.060617
0.028088
-0.015283
0.066995
0.055834
0.016289
-0.0050782
-0.078109
-0.079065
0.004808
0.0035324
-0.084168
-0.020386
0.0019378
-0.028678
0.057747
0.032553
0.0051269
0.0016189
0.004808
-0.0069916
0.0041702
0.011505
-0.045899
-0.074919
-0.076833
-0.038564
-0.0015702
-0.056423
-0.022937
0.0095917
0.031596
0.093146
0.056153
-0.017197
-0.018791
0.06572
0.031915
0.0079971
0.010548
-0.055466
-0.044942
-0.034099
-0.058017
-0.037607
0.012462
0.00098112
-0.016559
0.05392
0.065401
0.037337
0.015013
-0.018791
0.052007
0.03925
-0.002208
-0.012094
-0.069498
-0.074282
-0.012094
-0.018791
-0.082573
-0.012094
0.0099106
-0.023575
0.056471
0.03925
0.018521
0.0079971
-0.0018891
-0.01624
-0.002208
-0.0073105
-0.056742
-0.089589
-0.09533
-0.049088
-0.0079484
-0.082573
-0.045261
-0.0073105
0.0067215
0.068909
0.051369
-0.0105
-0.015283
0.062531
0.026175
0.014056
0.02777
-0.049088
-0.040158
-0.042072
-0.041753
-0.01911
0.0070404
0.0067215
-0.0066727
0.05392
0.083579
0.062212
-0.002208
-0.025807
0.075925
0.064125
0.020116
0.0131
-0.070136
-0.057698
0.014694
0.010548
-0.052277
0.01597
0.021391
-0.011137
0.071779
0.053601
0.037018
0.028088
-0.0050782
-0.00029452
0.0070404
0.0016189
-0.042391
-0.083211
-0.09533
-0.033142
-0.0105
-0.085125
-0.035375
0.011505
0.01023
0.084217
0.059342
0.0079971
0.0089539
0.059979
0.019478
0.0054459
0.02171
-0.050682
-0.054828
-0.063439
-0.066309
-0.023894
-0.021343
-0.039202
-0.034099
0.025218
0.054877
0.02458
-0.026126
-0.031548
0.069866
0.052645
0.011186
0.0067215
-0.058974
-0.044942
0.02171
0.017564
-0.040158
0.03925
0.037337
0.010867
0.087725
0.084217
0.064125
0.038294
-0.0041214
0.031278
0.034786
0.011186
-0.03091
-0.087357
-0.083211
-0.0076295
-0.0082673
-0.099476
-0.043028
0.018202
0.0057648
0.069547
0.049137
-0.0073105
-0.022299
0.032553
2.4388e-05
-0.0018891
0.017246
-0.049088
-0.064395
-0.082573
-0.052596
-0.0047593
-0.034737
-0.021024
-0.0063538
0.045629
0.084854
0.058066
-0.015602
-0.021024
0.068271
0.052645
0.012143
0.017883
-0.051958
-0.052915
-0.011456
-0.018153
-0.04271
0.046904
0.029045
-0.0034836
0.07752
0.088044
0.066995
0.059661
-0.0063538
0.034786
0.058704
0.028088
0.011186
-0.059612
-0.060569
0.019159
-0.01624
-0.091822
-0.022299
-0.0034836
-0.029953
0.050093
0.047223
-0.010181
-0.015921
0.0060837
-0.01911
-0.0069916
-0.0034836
-0.059612
-0.090865
-0.09246
-0.062482
-0.018153
-0.051639
-0.025807
-0.0041214
0.032553
0.084854
0.04531
-0.019429
-0.024851
0.074968
0.049137
0.008635
-0.0038025
-0.10171
-0.076195
-0.036969
-0.03091
-0.035056
0.022029
-0.0063538
-0.049088
0.03638
0.056471
0.037975
0.025856
-0.012094
0.070503
0.061574
0.028407
0.0054459
-0.059931
-0.052596
0.016289
0.027451
-0.086719
0.0073593
0.032872
-0.0098618
0.066995
0.063806
0.0095917
-0.0041214
0.023624
0.0073593
0.017564
0.0089539
-0.068541
-0.084806
-0.088633
-0.045899
0.0070404
-0.067266
-0.023575
-0.00093234
0.016927
0.070822
0.020435
-0.037926
-0.069179
0.01597
0.0073593
-0.015921
-0.054828
-0.16262
-0.12722
-0.12403
-0.18335
-0.17506
-0.1623
-0.17059
-0.20057
-0.12786
-0.10809
-0.14763
-0.18399
-0.17091
-0.10011
-0.093416
-0.12116
-0.08353
-0.18367
-0.12913
-0.056742
-0.078427
-0.096286
0.0067215
0.022986
-0.017197
0.10526
0.093784
0.084536
0.079114
0.047861
0.066358
0.07146
0.071141
0.028407
0.021072
0.02171
0.07433
0.10877
0.053601
0.09187
0.13173
0.13556
0.19169
0.15597
0.095378
0.095697
0.17128
0.11579
0.069228
0.080709
-0.0066727
-0.011137
-0.0031647
-0.0050782
-0.009224
0.011505
0.0067215
-0.027083
0.058385
0.079752
0.059661
0.019797
-0.0066727
0.070185
0.066358
0.036061
0.047223
-0.012094
-0.01337
0.03638
0.017883
-0.064714
-0.0053971
-0.019429
-0.0034836
0.050093
0.0092728
-0.066947
-0.055785
-0.097881
-0.093416
-0.075557
-0.094054
-0.1403
-0.15114
-0.17601
-0.10553
-0.061206
-0.12722
-0.10745
-0.028359
-0.021343
0.028407
0.057428
0.01597
0.020435
0.03064
0.022029
0.02171
0.034148
-0.052277
-0.090546
-0.096286
-0.043347
0.0079971
-0.017516
-0.024213
-0.023256
0.034148
0.01597
-0.024851
-0.065033
-0.052277
0.02171
0.0016189
-0.06312
-0.049088
-0.099794
-0.091184
-0.03091
-0.027721
-0.068222
0.022667
0.0070404
-0.027083
0.089638
0.093784
0.091233
0.089319
0.08613
0.13333
0.094103
0.078476
0.05679
2.4388e-05
-0.037926
0.040845
0.067952
-0.015283
-0.015921
0.015013
0.044672
0.11164
0.030002
-0.026445
-0.042391
0.0057648
-0.035375
-0.04558
-0.032504
-0.074282
-0.072687
-0.11159
-0.092778
-0.051639
-0.055147
-0.031229
-0.036331
0.030002
0.069866
0.039569
-0.016559
-0.082892
0.061574
0.063806
0.025218
0.015651
-0.066309
-0.023894
0.046904
0.03925
-0.019748
0.058704
0.063806
0.035742
0.12727
0.1531
0.12759
0.10239
-0.0038025
0.033829
0.040207
0.032872
0.013738
-0.080341
-0.085443
-0.024532
-0.032504
-0.11989
-0.015283
0.030959
-0.0076295
0.052963
0.049455
0.026175
0.012781
0.04531
0.024899
0.030002
0.03064
-0.01624
-0.02517
-0.06025
-0.065352
-0.035375
-0.043028
-0.014645
-0.020067
0.0044891
0.079114
0.043077
-0.043666
-0.012732
0.054239
0.059342
0.028726
0.072417
-0.016878
-0.034737
-0.0095429
-0.009224
-0.025488
0.061255
0.053601
-0.00061343
0.087087
0.048818
0.027132
0.028407
0.030959
0.052326
-0.0060349
-0.04558
-0.048769
-0.093416
-0.092141
-0.00029452
0.018202
-0.071093
-0.025807
0.050093
-0.020386
0.047542
0.040207
0.016608
-0.0069916
0.028088
-0.026126
0.02458
0.022348
-0.076833
-0.062482
-0.079065
-0.049088
-0.0095429
-0.080979
-0.028678
0.033191
0.096654
0.13811
0.088681
0.04531
0.059979
0.15948
0.15151
0.13843
0.16331
0.065401
0.07146
0.084536
0.088044
0.055515
0.091233
0.072736
0.024899
0.080071
0.084217
0.081665
0.049774
-0.069179
0.04818
0.036061
-0.02517
-0.053234
-0.13169
-0.084806
0.020116
0.032234
-0.012094
0.068271
0.050093
-0.0018891
0.091233
0.099524
0.040845
0.022029
-0.0031647
0.035104
0.041483
0.016608
-0.044623
-0.02517
-0.063758
-0.055785
-0.027402
-0.060569
0.0064026
0.058385
0.049137
0.1413
0.10941
0.017564
0.056471
0.12312
0.051369
0.036699
0.055834
-0.0038025
-0.024213
-0.02517
-0.024851
-0.0044404
0.008635
0.0013
0.011186
0.066677
0.080071
0.038294
-0.037926
0.0013
0.11356
0.051688
0.032234
0.047223
-0.052596
-0.045261
0.040526
0.0016189
-0.03665
0.056153
0.072098
0.020435
0.10239
0.09793
0.052007
0.067314
0.037337
-0.011456
0.061255
0.072736
0.0057648
-0.053552
-0.046218
-0.0034836
0.0099106
-0.050363
-0.014964
0.045947
0.075925
0.16937
0.089957
0.016289
0.035104
0.078476
0.061893
0.059661
0.073693
-0.0073105
-0.051958
-0.031229
-0.0047593
0.0131
0.013738
0.016289
0.020116
0.087406
0.13397
0.079752
0.0089539
-0.022299
0.10973
0.081346
0.046585
0.010867
-0.063758
0.0054459
0.021391
0.0016189
-0.022937
0.049774
0.034786
0.0070404
0.11069
0.084536
0.097292
0.12057
0.064444
0.074968
0.10909
0.06572
0.0079971
-0.035056
-0.023894
0.0003433
-0.028996
-0.044304
-0.014008
0.035104
0.0028946
0.037337
0.044353
-0.0031647
-0.028678
0.028407
0.035742
0.053601
0.066677
0.0089539
-0.032823
-0.0060349
0.020435
0.082622
0.041483
0.050731
0.063487
0.10877
0.12663
0.085811
0.035742
0.0079971
0.067633
0.057747
0.023943
0.023624
-0.037926
-0.014327
-0.011775
-0.022937
-0.022937
0.035742
0.040526
0.008635
0.089638
0.058066
0.078476
0.059342
-0.0047593
0.06285
0.070503
0.022348
-0.011456
-0.067585
-0.068541
0.01023
0.038931
-0.017197
0.027132
0.05105
0.042439
0.1008
0.066995
0.025218
0.03351
0.056471
0.061574
0.050093
0.043715
-0.043028
-0.078746
-0.069498
-0.037607
-0.031867
-0.070774
-0.045899
0.0032135
0.062212
0.09187
0.034467
-0.0038025
0.033829
0.16713
0.11419
0.055515
0.066358
0.0095917
0.033829
0.049774
0.065082
-0.051958
0.066995
0.13014
0.07752
0.096654
0.071141
0.017883
-0.0098618
-0.046218
0.039888
0.047542
-0.0082673
0.0089539
-0.064714
-0.085443
-0.0018891
0.01023
-0.081617
-0.010819
0.038931
-0.0076295
0.10112
0.11069
0.057747
0.031915
0.027132
0.008635
0.026175
0.036699
-0.031229
-0.053234
-0.069179
-0.033142
0.02458
-0.05419
-0.018791
0.047223
0.067633
0.09506
0.048818
-0.019748
-0.002208
0.08613
0.025856
0.01884
0.043396
-0.06599
-0.059612
-0.038564
-0.068541
-0.11319
0.020754
-0.0047593
-0.024851
0.025537
0.035742
0.020435
-0.0025269
-0.038564
0.05679
0.054877
0.01884
-0.02517
-0.094373
-0.064077
-0.017197
0.011186
-0.085125
-0.0069916
0.053601
0.046585
0.10526
0.076563
0.037975
-0.011456
-0.037288
-0.015602
0.027451
0.033829
-0.060569
-0.099476
-0.082573
-0.038564
-0.030591
-0.10936
-0.073006
-0.034099
-0.0076295
0.052645
0.035104
-0.01911
-0.011456
0.090914
0.062212
0.020116
0.046585
0.030321
0.061574
0.041483
0.051369
0.061893
0.11069
0.081346
0.037975
-0.03378
0.092508
0.09793
0.075606
0.011505
0.043715
0.010867
-0.060569
-0.11606
-0.1556
-0.11829
-0.061844
-0.065671
-0.12276
-0.009224
0.017246
-0.011775
0.073055
0.067952
0.070503
0.083898
0.032234
0.064763
0.05679
-0.019429
-0.018153
0.0028946
-0.012094
0.014056
0.0131
-0.087038
-0.059612
-0.026126
-0.02198
0.057109
0.028726
-0.027721
-0.0105
0.054239
0.017883
0.01597
0.015332
-0.066628
-0.061844
-0.034099
-0.027402
-0.0015702
0.025537
0.0099106
-0.024851
0.034786
0.078157
0.05105
0.0076782
-0.041115
0.03064
0.040845
-0.070774
-0.0047593
-0.052915
-0.035056
0.03638
0.028407
-0.026126
0.043077
0.037018
0.014375
0.082303
0.040207
0.0076782
0.016289
0.055515
0.085811
0.03925
-0.009224
-0.050044
-0.11733
-0.12307
-0.025488
0.0019378
-0.064395
-0.0085862
0.014694
-0.023575
0.080071
0.060936
0.02777
0.0092728
0.039888
0.042439
0.060936
0.050093
-0.051001
-0.027721
-0.041434
-0.0066727
0.10399
0.072098
0.019159
0.050412
0.04531
0.077201
0.066995
0.068271
0.033829
0.050731
0.030959
0.0060837
-0.027721
-0.10745
-0.12403
-0.068222
-0.058336
-0.091503
-0.0085862
-0.010181
-0.055466
0.053601
0.018521
-0.028996
0.0095917
-0.0041214
0.020754
0.020116
-0.010819
-0.051001
-0.10139
-0.091184
-0.0082673
-0.013051
-0.10203
-0.058017
-0.01624
-0.026764
0.055515
0.034786
-0.018472
-0.0085862
0.033191
0.0035324
0.054877
0.054558
-0.026764
-0.014964
-0.036969
-0.0060349
0.030959
-0.011775
0.0038513
0.050412
0.085492
0.12791
0.072417
-0.011775
-0.0060349
0.092508
0.027451
-0.014327
-0.0066727
-0.097881
-0.093416
-0.04845
-0.10553
-0.072049
0.040207
-0.020705
-0.059931
-0.0095429
0.0057648
0.075925
0.038931
-0.023894
0.017883
-0.0060349
-0.014964
-0.052596
-0.14859
-0.11478
0.03638
0.037018
-0.037607
0.0051269
0.049137
0.0076782
0.10271
0.11101
0.066677
0.035104
0.081346
0.03638
0.075287
0.069866
0.0022568
0.015013
-0.024851
-0.017197
0.0095917
-0.026126
-0.0047593
0.036699
0.070822
0.096335
0.035423
-0.031229
-0.021024
0.067952
0.031915
0.011505
-0.025488
-0.069817
-0.078427
-0.062163
-0.1033
-0.087038
-0.054828
-0.055785
-0.075557
-0.0015702
0.0067215
0.00066221
-0.020705
-0.04558
0.029683
0.028726
-0.014008
-0.02804
-0.085762
-0.11159
0.052963
0.023624
-0.074919
-0.025488
-0.016878
-0.036331
0.06285
0.037018
0.026175
0.0079971
-0.014008
-0.026126
-0.042391
-0.017835
-0.073006
-0.10968
-0.12339
-0.054828
-0.025807
-0.0864
-0.058336
-0.0028458
0.028407
0.092508
0.055196
-0.017197
-0.0085862
0.09506
0.055834
0.031278
0.05679
-0.030272
-0.00093234
0.014694
0.0060837
0.0032135
0.022029
0.034467
0.03351
0.065082
0.098249
0.0003433
0.033829
0.031596
0.1193
0.05392
0.020754
-0.027721
-0.090227
-0.012413
0.041483
0.03351
-0.046536
0.037656
0.061893
-0.0044404
0.08326
0.072736
0.02458
0.038612
-0.012094
0.015332
0.032872
0.025856
-0.055147
-0.09246
-0.11765
-0.069817
-0.053234
-0.11446
-0.06312
-0.03665
-0.03378
0.039888
0.0067215
-0.05132
-0.047493
0.0073593
-0.02517
-0.021343
-0.016878
-0.087357
-0.0864
-0.074919
-0.05419
-0.032186
-0.016878
-0.023894
-0.029953
0.031278
0.069866
0.040526
0.0057648
-0.0066727
0.12344
0.088362
0.016608
0.022348
-0.040796
-0.017197
0.062212
0.053601
-0.0018891
0.076244
0.077201
0.00098112
0.10271
0.11419
0.081665
0.042758
0.0016189
0.038612
0.011505
-0.031229
-0.052915
-0.097881
-0.07779
-0.019429
0.01884
-0.077471
-0.046536
-0.0044404
-0.065352
0.018202
0.039888
-0.018472
-0.018791
0.052963
0.040207
0.012781
-0.00093234
-0.073963
-0.10043
-0.10522
-0.069817
-0.024213
-0.0063538
0.0079971
-0.010181
0.07752
0.10941
0.074649
0.040845
0.041802
0.1244
0.025537
0.028407
0.067633
-0.0028458
-0.020067
-0.019748
0.013419
-0.0073105
0.045629
0.0041702
-0.061844
0.016927
0.021072
0.022348
0.0073593
-0.045261
-0.0095429
-0.0060349
-0.047174
-0.077152
-0.10011
-0.096605
-0.036012
-0.027721
-0.12913
-0.089908
-0.013051
-0.0060349
0.059342
0.0054459
-0.026126
-0.020067
0.012143
-0.019748
-0.0063538
0.0060837
-0.058017
-0.081617
-0.084806
-0.048769
0.0038513
-0.03665
0.0041702
0.028726
0.06572
0.10495
0.074012
0.0022568
-0.0047593
0.092189
0.06285
0.071141
0.078476
-0.0015702
-0.028359
0.0067215
0.023943
-0.053552
-0.025488
0.028407
0.011186
0.073055
0.058066
0.0025757
-0.023894
-0.070136
0.028088
0.016289
-0.010181
-0.014964
-0.06886
-0.066309
-0.010819
-0.019748
-0.0864
-0.026445
0.0035324
-0.0060349
0.11228
0.099843
0.038612
-0.0028458
0.0064026
0.0041702
-0.020705
-0.050363
-0.091503
-0.096286
-0.081298
-0.03091
-0.023575
-0.085762
-0.050682
-0.023894
-0.00029452
0.071141
0.050731
-0.015283
-0.020067
0.06285
0.028088
0.0035324
0.0054459
-0.066628
-0.045899
-0.027083
-0.040158
-0.032504
0.015651
0.00066221
-0.014008
0.065401
0.070503
0.044672
0.013419
-0.020386
0.071779
0.056471
0.017564
-0.0053971
-0.069498
-0.026126
0.023624
0.011824
-0.06599
-0.0041214
0.040207
0.029683
0.095378
0.064125
0.011824
-0.009224
0.064125
0.061893
0.018202
0.0079971
-0.036012
-0.056423
-0.065671
-0.057698
-0.044942
-0.098519
-0.053234
-0.023575
-0.0079484
0.038931
0.0016189
-0.055785
-0.040796
0.028407
-0.00029452
-0.021343
-0.0073105
-0.050363
-0.050363
-0.043666
-0.029953
0.015332
0.03925
-0.0050782
-0.035694
0.09187
0.12695
0.062212
0.0092728
-0.011775
0.074012
0.057428
-0.0038025
-0.026764
-0.074919
-0.064714
-0.0095429
-0.023256
-0.082573
-0.0053971
0.008316
-0.04558
0.032872
0.016927
0.013419
-0.00061343
-0.050363
0.0028946
0.02777
0.0019378
-0.047493
-0.11223
-0.12913
-0.049407
0.012143
-0.075238
-0.01911
0.02777
0.034148
0.096335
0.050731
-0.028678
-0.012732
0.077201
0.042758
0.015651
0.0060837
-0.074601
-0.066947
-0.066309
-0.04845
-0.013051
-0.028359
-0.03378
-0.03378
0.038612
0.060936
0.058066
0.0131
0.0025757
0.14162
0.10877
0.042439
0.026494
-0.06312
-0.014008
0.042121
0.0032135
-0.049407
0.050731
0.051369
-0.011456
0.046585
0.021391
-0.0047593
-0.020067
-0.051639
-0.026126
-0.023894
-0.029315
-0.06599
-0.11191
-0.11542
-0.04271
-0.030591
-0.097243
-0.031867
-0.0015702
-0.011775
0.069547
0.053282
0.0099106
-0.017197
0.037975
0.016289
0.024899
0.03351
-0.031548
-0.064395
-0.065671
-0.031229
0.0051269
-0.0095429
0.0003433
-0.029315
0.060617
0.10176
0.058066
-0.0041214
0.023943
0.12599
0.074012
0.044034
0.037975
-0.028678
-0.0034836
-0.00093234
0.019797
0.011824
0.1059
0.083898
0.0057648
0.058704
0.084854
0.035742
0.038612
-0.013689
0.017883
0.018202
-0.0063538
-0.040158
-0.11287
-0.12595
-0.044623
-0.044623
-0.11542
-0.055466
-0.035694
-0.054509
0.01884
-0.0044404
-0.015921
0.0032135
0.035104
-0.0041214
0.0057648
0.042439
-0.03952
-0.053234
-0.047493
-0.022299
0.037656
0.004808
0.008316
0.019797
0.050093
0.10112
0.064763
-0.005716
-0.032823
0.055196
0.015651
-0.037288
-0.023575
-0.10585
-0.087676
-0.057698
-0.064077
-0.086081
-0.019748
-0.0028458
-0.029634
0.048499
0.053282
0.033829
0.028407
-0.0044404
0.017564
0.075606
0.049137
0.01597
-0.027083
-0.012413
0.084536
0.06859
-0.010181
0.040526
0.063169
0.0095917
0.11228
0.082622
0.079114
0.064444
0.059342
0.024262
-0.00093234
-0.037288
-0.053234
-0.076514
-0.10203
-0.074601
-0.01911
-0.071093
-0.044942
-0.026126
-0.0025269
0.031278
0.023624
-0.062801
-0.047812
0.061574
0.035423
-0.022937
0.0070404
-0.078746
-0.082573
-0.062163
-0.055147
-0.056104
0.014694
-0.0015702
-0.028996
0.05392
0.054239
0.040207
0.0089539
-0.025488
0.058385
0.038931
2.4388e-05
-0.015921
-0.088314
-0.080341
0.00098112
0.0019378
-0.075876
-0.016559
0.0016189
-0.018472
0.059342
0.039888
0.0035324
-0.00061343
-0.017197
-0.033142
-0.01624
-0.014964
-0.070455
-0.10713
-0.096924
-0.056423
-0.0012513
-0.084168
-0.066309
-0.034099
0.015651
0.090595
0.054558
-0.011775
-0.0018891
0.080071
0.046266
0.025218
0.041483
-0.062801
-0.033142
-0.00029452
0.0057648
-0.00029452
0.04531
0.044034
0.0060837
0.074012
0.090595
0.064763
0.04818
0.0089539
0.10239
0.08613
0.016927
-0.021024
-0.10681
-0.086081
0.054558
0.052645
-0.057379
0.016927
0.016289
-0.017516
0.055515
-0.0060349
-0.062163
0.0051269
0.016289
0.0099106
0.0095917
-0.018153
-0.089908
-0.13487
-0.12626
-0.066628
-0.039839
-0.10809
-0.058336
-0.015921
-0.034737
0.043396
0.014375
-0.037288
-0.033142
0.045947
0.0099106
-0.015283
0.0003433
-0.069179
-0.060887
-0.049088
-0.058017
-0.020705
-0.00029452
0.0003433
-0.010181
0.050412
0.037975
0.022986
-0.0034836
-0.014964
0.06572
0.023305
-0.026126
-0.027721
-0.097562
-0.073006
0.0038513
-0.0082673
-0.064714
0.011824
-0.0012513
-0.010819
0.078795
0.069547
0.0089539
-0.014008
-0.027083
-0.0041214
0.019797
-0.017835
-0.07173
-0.11351
-0.11064
-0.057379
-0.04271
-0.13105
-0.079065
-0.015921
-0.009224
0.067952
0.057747
0.0070404
0.0051269
0.062212
0.013419
0.029045
0.058066
-0.015602
-0.038883
-0.043347
-0.033142
0.0057648
0.0019378
0.0019378
-0.019748
0.059342
0.084536
0.037337
-0.032186
-0.037926
0.07752
0.044034
0.0044891
-0.0041214
-0.061844
-0.03665
0.0089539
0.022986
-0.0015702
0.094103
0.093465
-0.0038025
0.088681
0.074012
0.059023
0.058385
0.0051269
0.01597
0.025537
0.030002
-0.034418
-0.11191
-0.13966
-0.059612
-0.056104
-0.15114
-0.087357
-0.043347
-0.054828
0.02777
0.011824
-0.033461
-0.035694
-0.00029452
-0.035694
-0.031548
-0.016878
-0.075876
-0.080022
-0.091184
-0.066947
-0.031229
-0.051639
-0.032186
-0.010181
0.029045
0.054558
0.026494
-0.033461
-0.036012
0.07433
0.049774
0.018202
0.015651
-0.066947
-0.045899
-0.011456
-0.0034836
-0.030272
0.019797
-0.00061343
-0.033461
0.079752
0.075606
0.039569
0.013419
-0.014964
0.026494
0.03064
0.015013
-0.020705
-0.066309
-0.06886
0.015332
0.030321
-0.046536
-0.0038025
2.4388e-05
0.008316
0.11643
0.085173
0.0054459
-0.0073105
0.011824
0.0022568
0.01597
-0.00061343
-0.068222
-0.086719
-0.087995
-0.058336
-0.016878
-0.073644
-0.031867
-0.0095429
0.030959
0.081346
0.037337
-0.023894
-0.017516
0.058704
0.012143
-0.03665
-0.020067
-0.0982
-0.093416
-0.051639
-0.057061
-0.076514
-0.018153
-0.034737
-0.052915
0.027132
0.040207
0.025537
0.0060837
-0.018791
0.059979
0.042121
0.0076782
-0.0079484
-0.064077
-0.052915
0.0089539
0.0013
-0.060887
0.018521
0.035742
-0.024851
0.058385
0.056153
0.013738
0.0099106
0.01884
0.00098112
0.013738
0.027132
-0.0089051
-0.0028458
-0.018153
0.0032135
0.042439
-0.020386
0.0003433
0.047542
0.033829
0.065082
0.08326
0.035742
0.033829
0.063169
-0.015602
-0.038564
-0.030591
-0.12563
-0.11128
-0.093416
-0.090865
-0.066628
-0.016559
-0.027721
-0.052596
0.01884
0.032234
0.020116
-0.030591
-0.047812
0.055196
0.032234
-0.010181
-0.015921
-0.093735
-0.08927
-0.014645
-0.019748
-0.099157
-0.02198
0.0057648
-0.018791
0.064125
0.040207
0.02777
0.01023
-0.017835
-0.011775
0.0060837
0.004808
-0.043028
-0.059612
-0.089908
-0.037926
0.0003433
-0.082892
-0.049407
0.0092728
0.024899
0.093146
0.066039
0.0092728
0.020754
0.11292
0.052645
0.035423
0.046585
-0.039202
-0.020386
-0.032823
-0.012094
-0.031867
0.011186
0.018202
0.0044891
0.032872
0.049137
0.0051269
-0.018791
-0.043028
0.037656
0.017564
-0.02517
-0.034099
-0.095649
-0.085125
-0.023894
-0.024213
-0.086719
-0.018472
0.013738
-0.012094
0.060936
0.056153
0.040526
0.029364
0.028407
0.049137
0.056153
0.035742
-0.0012513
-0.04845
-0.049088
0.0019378
0.032553
-0.063439
-0.037288
0.0054459
0.030002
0.075606
-0.026126
-0.041753
-0.055466
0.023624
-0.014645
-0.031548
-0.023575
-0.10649
-0.13551
-0.13328
-0.086719
-0.024532
-0.028678
-0.026445
-0.023256
0.03351
0.077201
0.055515
0.0041702
-0.005716
0.087406
0.066995
0.01597
0.026175
-0.059293
-0.046218
0.0089539
0.014056
-0.043028
0.016608
0.018202
-0.038564
0.029683
0.020435
0.0092728
0.011186
-0.027721
0.0022568
-0.0025269
-0.009224
-0.038245
-0.1049
-0.096605
-0.011775
-0.0050782
-0.067266
-0.0085862
0.042758
0.060936
0.12536
0.1008
0.042439
0.053601
0.091233
0.073693
0.052326
0.045629
-0.016878
-0.0076295
-0.022299
-0.029315
0.022029
0.011505
-0.0015702
-0.0015702
0.044034
0.073055
0.041483
-0.028678
-0.034737
0.053282
0.036061
0.0057648
0.019478
-0.06025
-0.072049
-0.038883
-0.033461
-0.065352
0.0051269
-0.010181
-0.081935
0.008316
0.039888
0.042121
0.0070404
-0.035375
0.0095917
-0.00093234
-0.030272
-0.041753
-0.096924
-0.094373
-0.0098618
-0.002208
-0.072049
-0.0063538
0.028726
-0.0034836
0.071141
0.065082
0.015651
0.017883
0.06859
0.0060837
0.0057648
0.03638
-0.027083
-0.041115
-0.061844
-0.044942
-0.023256
-0.049088
-0.01337
0.013738
0.050412
0.099843
0.029364
-0.026764
-0.017516
0.092827
0.049137
0.00098112
0.014375
-0.044304
-0.014645
-0.0098618
-0.017197
-0.017835
0.042439
0.032553
-0.012413
0.068909
0.094741
0.047542
0.027451
-0.00061343
0.057747
0.035423
-0.011456
-0.036331
-0.093416
-0.079065
-0.0034836
-0.005716
-0.088633
-0.024213
0.0035324
-0.024213
0.059342
0.030002
-0.0066727
-0.0028458
0.028726
-0.002208
-0.0060349
-0.0089051
-0.06025
-0.099157
-0.1033
-0.06025
-0.016559
-0.07779
-0.037607
-0.0018891
0.018202
0.090276
0.05105
0.010867
0.015651
0.10016
0.054239
0.025218
0.029683
-0.033461
-0.045899
-0.016559
-0.026445
-0.029634
0.035423
0.022348
-0.025488
0.027451
0.041802
0.01023
-0.015283
-0.034418
0.043715
0.054239
0.019159
0.0060837
-0.063439
-0.054828
0.057747
0.04531
-0.045261
0.038612
0.063806
-0.012094
0.12727
0.1075
0.05679
0.022667
0.017246
0.029683
0.032234
0.029364
-0.063758
-0.096286
-0.092778
-0.036331
-0.016559
-0.089589
-0.059612
-0.010181
0.0099106
0.072736
0.05105
-0.01624
-0.005716
0.086768
0.047542
0.01884
0.028726
-0.03952
-0.052596
-0.051639
-0.033461
0.011824
0.01884
0.020116
-0.0012513
0.031278
0.053601
0.037975
-0.014008
-0.042391
0.053601
0.032234
-0.0085862
-0.017197
-0.086081
-0.080022
-0.0015702
0.004808
-0.065352
0.016927
0.028407
-0.009224
0.088681
0.089638
0.069866
0.064763
0.036699
0.041483
0.048499
0.044672
-0.031229
-0.06312
-0.072049
-0.012094
0.026175
-0.056104
-0.028678
-0.016559
-0.019748
0.038612
0.038294
0.0022568
-0.033142
0.015332
-0.019429
-0.029953
0.0060837
-0.053552
-0.045261
-0.048769
-0.055147
-0.017516
0.0131
0.0089539
-0.0031647
0.066677
0.098568
0.063487
0.004808
-0.010181
0.04531
0.096973
0.044353
0.0060837
-0.0864
-0.053234
0.0099106
0.004808
-0.065033
0.016927
0.024262
-0.0028458
0.075925
0.066358
0.06285
0.058385
0.028088
0.05679
0.047542
0.034467
-0.0066727
-0.058017
-0.062801
0.016927
0.0092728
-0.057698
0.0022568
0.028407
0.014375
0.072098
0.032872
0.0076782
0.010548
0.04531
0.0054459
-0.01337
0.0092728
-0.051639
-0.054828
-0.075238
-0.062163
-0.023894
-0.037607
-0.026445
-0.014964
0.03351
0.07433
0.034467
-0.013051
-0.016878
0.075606
0.038294
0.012462
0.016927
-0.047174
-0.04271
-0.01911
-0.010819
-0.060569
0.052645
0.061574
-0.023575
0.050093
0.050731
0.055834
0.032553
-0.0069916
0.030002
0.018521
0.0057648
-0.026445
-0.088952
-0.087038
-0.0073105
0.0035324
-0.087676
-0.025488
-0.011456
-0.024532
0.067952
0.06572
0.013738
-0.0069916
0.019797
0.0067215
0.041164
0.048499
-0.027721
-0.045261
-0.067903
-0.02517
0.035104
-0.022299
-0.017197
0.0051269
0.064444
0.13779
0.080071
-0.028359
-0.020067
0.075925
0.042758
0.0067215
0.02171
-0.050044
-0.036969
-0.014327
-0.021024
-0.051958
0.0076782
0.02777
0.0051269
0.085173
0.087087
0.054877
0.016608
-0.0098618
0.045629
0.044353
-0.0034836
-0.0098618
-0.084806
-0.066947
0.0022568
-0.002208
-0.073006
-0.01624
0.023305
-0.0095429
0.060936
0.040207
0.017564
0.017564
0.033191
0.0025757
0.0013
0.018521
-0.035694
-0.05419
-0.099794
-0.067903
0.0038513
-0.035056
-0.036012
-0.0060349
0.018521
0.075606
0.044034
-0.022299
-0.021343
0.066677
0.039888
0.01597
0.03064
-0.053234
-0.044623
-0.021024
-0.016559
-0.013689
0.037018
0.020435
-0.012094
0.064763
0.072098
0.034467
0.021072
-0.025807
0.056153
0.05105
-0.013689
-0.022618
-0.10011
-0.094373
-0.02804
-0.0105
-0.08066
-0.002208
0.030002
0.004808
0.090595
0.074012
0.044672
0.031596
0.034786
0.04531
0.035742
0.064125
0.014056
-0.023575
-0.041753
-0.016878
0.0095917
-0.050363
-0.036331
0.011824
0.035423
0.089
0.052963
-0.028996
-0.036012
0.045947
0.0073593
0.0060837
0.0131
-0.072368
-0.078746
-0.063439
-0.060887
-0.038883
-0.01337
-0.033142
-0.049088
0.031915
0.04818
0.01597
-0.015602
-0.037607
0.044991
0.025856
-0.025807
-0.03665
-0.10841
-0.089589
-0.0085862
-0.0034836
-0.086081
-0.005716
0.010867
-0.015921
0.068271
0.046266
0.025218
0.020435
0.0060837
0.0095917
0.03638
0.029683
-0.026126
-0.051958
-0.056742
-0.0095429
0.016608
-0.050363
-0.01337
0.044991
0.048818
0.096654
0.09506
0.044991
0.036699
0.092508
0.030959
0.027451
0.060298
-0.017516
-0.035694
-0.034099
-0.021661
0.0067215
0.008635
-0.0079484
-0.058974
0.024262
0.070185
0.040845
-0.033142
-0.063758
0.043715
0.026494
-0.01911
-0.010819
-0.079703
-0.057379
0.0025757
-0.0079484
-0.066628
0.021391
0.028088
-0.0028458
0.070185
0.066358
0.049137
0.045947
0.018521
0.047223
0.028407
0.0064026
-0.054828
-0.10203
-0.070774
-0.01911
0.0131
-0.06599
-0.022299
0.0095917
-0.0082673
0.06285
0.038294
-0.0050782
-0.011456
0.055834
0.0038513
-0.0089051
0.016608
-0.080979
-0.065033
-0.066628
-0.051639
-0.028359
-0.047493
-0.018472
-0.017516
0.03925
0.065401
0.030959
-0.030591
-0.022299
0.079752
0.054239
0.0067215
0.0099106
-0.06886
-0.049088
-0.022299
-0.0066727
-0.032823
0.032234
0.041802
0.014375
0.075606
0.046266
0.040845
0.05105
0.0060837
0.034467
0.025537
0.020116
-0.022299
-0.082254
-0.066309
0.0131
0.034786
-0.05419
0.0095917
0.03638
0.0076782
0.078795
0.059023
0.018521
-0.005716
0.075287
0.042121
0.026175
0.022348
-0.040796
-0.075876
-0.10394
-0.072368
-0.030272
-0.047493
-0.044942
-0.022299
0.014056
0.052645
0.022348
-0.048769
-0.062482
0.053282
0.028407
0.0060837
0.023624
-0.060887
-0.054828
-0.021661
-0.036331
-0.072687
-0.010181
0.011505
-0.032823
0.069866
0.087725
0.041802
0.0022568
-0.03665
0.025218
0.019478
-0.0082673
-0.028678
-0.094054
-0.091184
0.0019378
0.011505
-0.070136
-0.0069916
0.010548
-0.015602
0.086449
0.05679
0.032553
0.031915
0.060617
0.016608
0.015651
0.053282
-0.012094
-0.031229
-0.023256
-0.0044404
0.044034
0.0057648
0.022667
0.054239
0.10622
0.13429
0.075287
0.018521
0.0079971
0.085811
0.034467
0.02171
0.061574
-0.045899
-0.081298
-0.037607
-0.036969
-0.059293
-0.016559
-0.010819
-0.044942
0.040207
0.050731
0.021072
-0.017197
-0.048131
0.046904
0.027451
-0.017197
-0.043666
-0.10171
-0.096924
-0.01624
-0.0076295
-0.10713
-0.0089051
0.014694
-0.029953
0.052963
0.045947
0.013419
0.0022568
0.039569
0.030002
0.033191
0.029364
-0.014327
-0.042072
-0.049088
-0.0018891
0.03351
-0.038564
-0.019429
0.012143
0.015651
0.078157
0.061255
-0.0095429
-0.027083
0.057428
0.0070404
-0.013689
0.0003433
-0.078109
-0.077152
-0.077152
-0.050363
-0.02198
0.020116
0.012781
-0.00061343
0.07752
0.081984
0.05679
0.023624
-0.0053971
0.089638
0.077201
0.020754
0.027451
-0.042072
-0.052596
0.038931
0.038294
-0.024851
0.053601
0.054558
0.0041702
0.086768
0.08613
0.073374
0.053601
0.021391
0.027451
0.042758
0.018202
-0.030591
-0.080341
-0.10553
-0.041753
-0.016559
-0.0982
-0.069498
-0.025807
-0.029953
0.037975
0.016289
-0.041434
-0.051958
0.029364
-0.0053971
-0.015283
-0.002208
-0.074919
-0.075876
-0.069498
-0.03952
-0.017835
-0.0012513
-0.0073105
-0.01337
0.055834
0.087725
0.06285
-0.0047593
-0.033461
0.079114
0.053601
0.012462
0.020754
-0.064077
-0.078427
-0.0063538
0.0025757
-0.062801
0.019478
0.012462
-0.01911
0.089
0.069228
0.029683
0.0073593
-0.00061343
0.035104
0.039888
0.038294
-0.0038025
-0.051001
-0.055147
0.016289
0.050731
-0.043666
-0.0085862
0.040526
0.015332
0.091552
0.10399
0.03638
0.012143
0.064763
-0.0069916
-0.022618
0.024899
-0.047493
-0.050044
-0.096286
-0.068222
-0.035056
-0.049088
-0.051958
-0.039839
0.016289
0.059661
0.045629
-0.025807
-0.054828
0.037975
0.015332
-0.017516
-0.015283
-0.080341
-0.062163
-0.01337
-0.018791
-0.065352
0.031915
0.031278
-0.015921
0.081028
0.079114
0.066358
0.043396
0.010548
0.03064
0.030959
0.0013
0.012143
-0.047812
-0.066628
0.0064026
0.01023
-0.093416
-0.030272
0.0022568
-0.0069916
0.080071
0.041802
-0.011137
-0.0105
0.035104
-0.017197
-0.0028458
0.010867
-0.06599
-0.077152
-0.087995
-0.062482
-0.0089051
-0.035694
-0.02804
-0.021661
0.035104
0.10335
0.07752
0.0051269
-0.0047593
0.10463
0.071779
0.032872
0.025856
-0.036969
-0.014964
0.02777
0.018202
0.0032135
0.067633
0.055834
2.4388e-05
0.078476
0.075925
0.056471
0.018202
-0.023256
0.052007
0.04818
0.010548
-0.017197
-0.080979
-0.09246
-0.014964
-0.011137
-0.10298
-0.031229
0.00066221
-0.01911
0.066039
0.055196
0.0131
0.018521
0.035742
0.0025757
0.0057648
0.017883
-0.051001
-0.054828
-0.074919
-0.054828
0.016927
-0.052277
-0.019748
0.018521
0.012462
0.051688
0.047223
-0.026126
-0.038883
0.064125
0.021391
-0.0018891
0.017883
-0.066628
-0.067266
-0.04558
-0.044942
-0.057698
0.0060837
0.0025757
-0.02804
0.060936
0.051369
0.030959
-0.0012513
-0.03952
0.032234
0.041483
0.0070404
-0.0098618
-0.074919
-0.067266
0.022986
0.035742
-0.037926
0.036061
0.074649
0.037337
0.12727
0.11228
0.077201
0.058704
0.06859
0.059661
0.060617
0.058385
-0.002208
-0.020067
-0.057698
-0.017197
0.0070404
-0.064714
-0.039839
0.0060837
0.014056
0.06285
0.055834
0.0051269
-0.017516
0.055196
0.01884
0.011505
0.01597
-0.064395
-0.036012
-0.031548
-0.026445
-0.017516
0.015651
-0.0028458
-0.036331
0.05105
0.065401
-0.013051
-0.029634
-0.031867
0.049137
0.022986
-0.024851
-0.042391
-0.10585
-0.099157
-0.032186
-0.031229
-0.10458
-0.026764
0.0099106
-0.026764
0.052326
0.035423
0.03064
0.022029
0.0041702
-0.005716
0.0067215
0.012781
-0.046855
-0.078746
-0.088314
-0.025807
0.0057648
-0.067585
-0.021024
0.015013
0.031278
0.092508
0.064125
-0.011775
-0.0098618
0.080709
0.037018
0.017883
0.022667
-0.06312
-0.02804
-0.017516
-0.027083
-0.010819
0.0092728
-0.0066727
-0.017516
0.059342
0.080709
0.054558
0.0035324
-0.042391
0.076882
0.061574
0.023624
0.025218
-0.053234
-0.038245
0.037656
0.01597
-0.042391
0.03925
0.050731
-0.0063538
0.10718
0.093465
0.065082
0.035742
0.01884
0.025218
0.025856
0.0073593
-0.03665
-0.079065
-0.092778
-0.014964
0.0016189
-0.1033
-0.04558
0.019159
0.0041702
0.07433
0.041483
-0.020705
0.0041702
0.069547
0.024899
0.0076782
0.025856
-0.041434
-0.04271
-0.037926
-0.033461
0.0025757
-0.00061343
2.4388e-05
-0.0060349
0.047223
0.081665
0.051369
-0.0076295
-0.038564
0.061893
0.037337
-0.0085862
-0.0073105
-0.087357
-0.081935
-0.02517
-0.027721
-0.072049
-0.002208
-0.009224
-0.059293
0.049774
0.03925
0.034786
0.014056
-0.018791
0.004808
0.015332
-0.0018891
-0.039839
-0.093735
-0.095011
-0.0098618
0.0089539
-0.072687
-0.028996
0.018202
0.014056
0.08039
0.05679
0.023305
0.036061
0.070822
0.015651
0.0092728
0.022029
-0.053552
-0.065352
-0.054509
-0.050682
-0.0018891
-0.010181
-0.023575
-0.022299
0.018521
0.054239
0.037656
-0.017516
-0.040477
0.066677
0.027451
-0.020067
-0.0095429
-0.097243
-0.081617
-0.021024
-0.025807
-0.051001
0.028088
0.015332
-0.031867
0.059979
0.07146
0.046266
0.03351
0.008316
0.074649
0.074012
0.060936
0.017564
-0.045261
-0.055147
0.014375
0.035423
-0.044623
0.012781
0.025856
0.013419
0.086768
0.033829
-0.0053971
-0.0063538
0.010548
-0.013689
-0.0073105
-0.017516
-0.095649
-0.09533
-0.099794
-0.073006
-0.02804
-0.081617
-0.078109
-0.040158
0.010548
0.051369
0.008635
-0.055466
-0.049726
0.052963
0.022348
-0.031229
-0.018153
-0.082573
-0.085762
-0.043028
-0.050044
-0.055785
0.0032135
-0.0034836
-0.032504
0.042439
0.052645
0.03351
0.013419
-0.021024
0.050093
0.043077
0.01597
-0.01911
-0.084487
-0.073006
0.00066221
0.010548
-0.071411
-0.0038025
0.023943
-0.0050782
0.077201
0.053601
0.014375
0.012781
0.023624
-0.00029452
0.012781
0.028407
-0.034418
-0.056423
-0.075876
-0.030591
0.013738
-0.045261
-0.023575
-0.002208
0.027451
0.091233
0.052645
-0.0069916
-0.02198
0.086768
0.033191
0.01023
0.026175
-0.052277
-0.063758
-0.042391
-0.053552
-0.029315
0.049137
0.02458
0.010548
0.058704
0.089638
0.064125
0.023943
-0.022299
0.06572
0.05679
-0.0060349
-0.014964
-0.068222
-0.051639
0.026813
-0.002208
-0.085443
-0.024851
-0.0015702
-0.015283
0.062531
0.042439
0.0099106
0.0054459
0.0022568
-0.0073105
0.0092728
0.0131
-0.049407
-0.081298
-0.095968
-0.037288
0.0022568
-0.078427
-0.041753
-0.00061343
0.017564
0.07752
0.05105
-0.016878
-0.012413
0.071141
0.023305
0.013419
0.028726
-0.047174
-0.04558
-0.032186
-0.032823
-0.016559
0.0041702
-0.002208
-0.013051
0.052007
0.076882
0.041802
0.012143
-0.028996
0.08326
0.063487
0.008635
0.0041702
-0.077471
-0.066309
0.022029
0.0054459
-0.057698
0.021072
0.036699
0.0013
0.072736
0.037656
0.025218
0.024899
0.0032135
0.010867
0.010548
0.0044891
-0.052915
-0.087357
-0.096924
-0.035056
-0.0050782
-0.080022
-0.029634
0.016289
0.0016189
0.071779
0.065401
0.008316
-0.0028458
0.071141
0.029045
-0.013051
0.020754
-0.041753
-0.040477
-0.041753
-0.047812
-0.014964
0.0003433
-0.017516
-0.014645
0.047542
0.072736
0.048818
-0.0105
-0.036331
0.086768
0.055196
0.0057648
0.010867
-0.084168
-0.080022
0.0067215
-0.0025269
-0.058336
0.019478
0.027132
-0.0018891
0.094422
0.07146
0.064763
0.051688
0.018521
0.026813
0.042758
0.057747
0.016289
-0.045899
-0.040796
0.025856
0.040845
-0.06025
-0.015283
0.012143
-0.0082673
0.062531
0.034467
-0.017197
-0.010181
0.037018
-0.01911
-0.040158
-0.012413
-0.087357
-0.082892
-0.089908
-0.096286
-0.040158
-0.055466
-0.03378
-0.020705
0.03638
0.073055
0.03638
-0.025488
-0.037607
0.073055
0.049455
0.0041702
0.0095917
-0.076195
-0.052277
-0.0069916
-0.018153
-0.054509
0.015332
-0.0050782
-0.024213
0.067633
0.069547
0.044353
0.017246
-0.031548
0.042439
0.052007
0.014375
-0.015602
-0.07173
-0.072687
0.0095917
0.01597
-0.073644
-0.0066727
0.035104
0.0067215
0.10431
0.073374
0.017883
0.022986
0.064444
0.015332
0.021391
0.029683
-0.029953
-0.03952
-0.041434
-0.041753
0.0051269
-0.024532
-0.026445
-0.0041214
0.035742
0.066995
0.02777
-0.026764
-0.044942
0.059342
0.018202
-0.012094
0.0089539
-0.081617
-0.074601
-0.031867
-0.045899
-0.053234
0.025537
0.014375
-0.027721
0.089
0.096335
0.058704
0.015332
-0.024213
0.046585
0.044672
0.013738
-0.02804
-0.079065
-0.085125
-0.002208
0.0064026
-0.097562
-0.02517
0.016608
-0.026445
0.048499
0.051688
0.028407
0.033829
0.025856
-0.0089051
0.0067215
0.01597
-0.045899
-0.073325
-0.084168
-0.048131
-0.0031647
-0.07779
-0.059293
-0.017197
0.0035324
0.042758
0.019478
-0.046855
-0.056742
0.053601
0.010548
-0.016559
-0.0034836
-0.074282
-0.058017
-0.027083
-0.024213
-0.032823
0.027451
0.013738
0.013738
0.073055
0.067314
0.059342
0.03064
-0.024532
0.071141
0.067633
0.021391
-0.0031647
-0.083849
-0.074282
0.0095917
0.0003433
-0.085125
0.0070404
0.028726
-0.012094
0.079752
0.065082
0.043077
0.032872
0.016289
0.013419
0.0013
0.019478
-0.014645
-0.035375
-0.069179
-0.027721
0.0016189
-0.064714
-0.036331
0.0044891
0.0051269
0.045947
0.035104
-0.034418
-0.034737
0.038294
-0.020705
-0.052915
-0.029953
-0.10968
-0.099157
-0.086719
-0.08927
-0.074919
-0.03091
-0.031548
-0.041753
0.036061
0.055515
0.030002
-0.021661
-0.043028
0.079433
0.06572
0.031278
0.011505
-0.067585
-0.047493
0.026175
0.021391
-0.059293
0.0076782
0.031596
-0.0028458
0.078157
0.050412
0.043396
0.036699
0.01597
-0.00061343
0.0073593
0.0092728
-0.034418
-0.059931
-0.08927
-0.035375
0.01023
-0.073006
-0.055785
-0.0031647
0.010867
0.078157
0.04531
-0.0089051
-0.011456
0.050093
-0.0028458
-0.0069916
0.025856
-0.062482
-0.064077
-0.05132
-0.061844
-0.021661
-0.010819
-0.0079484
-0.01337
0.044672
0.068271
0.041802
-0.01624
-0.046218
0.055834
0.028407
-0.0098618
-0.01624
-0.083211
-0.082892
-0.030591
-0.028359
-0.08066
-0.002208
0.010867
-0.031867
0.05392
0.03638
0.017246
0.021072
-0.013051
0.012781
0.032553
0.020435
-0.031867
-0.06599
-0.079703
-0.017835
0.017883
-0.06312
-0.03091
0.020435
0.038294
0.10208
0.059023
0.0028946
0.017564
0.069228
0.03064
0.029045
0.05105
-0.022937
-0.027402
-0.038245
-0.026445
-0.0012513
-0.0089051
0.016289
0.017883
0.060298
0.090914
0.066677
0.004808
-0.02517
0.10271
0.055196
0.004808
0.023624
-0.053234
-0.059931
-0.013689
-0.020705
-0.074601
0.0041702
0.012781
-0.023894
0.05679
0.046904
0.024262
0.0076782
-0.04558
-0.0073105
0.008635
-0.018791
-0.050044
-0.11383
-0.1218
-0.024213
-0.013051
-0.11319
-0.062163
-0.019748
-0.031548
0.044991
0.029683
-0.017197
-0.016559
0.046266
-0.0082673
-0.00093234
0.020754
-0.050363
-0.046855
-0.049088
-0.030272
0.012462
-0.017197
-0.017835
0.0022568
0.047542
0.087406
0.059661
-0.0012513
-0.0098618
0.086449
0.038612
0.0054459
0.016289
-0.067903
-0.062163
-0.0050782
-0.0076295
-0.030591
0.044991
0.038294
0.012143
0.090595
0.074012
0.058066
0.054877
0.0092728
0.067952
0.073374
0.037975
-0.0085862
-0.084168
-0.079065
0.0051269
-0.0025269
-0.092778
-0.017516
0.012781
-0.026445
0.054877
0.025218
-0.0038025
0.0035324
0.028726
-0.0038025
-0.0031647
0.011824
-0.058336
-0.074282
-0.086081
-0.05419
0.0076782
-0.060569
-0.037607
-0.024213
0.0073593
0.055196
0.018202
-0.06599
-0.055466
0.039569
0.008635
-0.02804
-0.013689
-0.08927
-0.074919
-0.046855
-0.055147
-0.056742
0.010867
-0.00061343
-0.036012
0.058385
0.066358
0.048818
0.02171
-0.017835
0.079433
0.067314
0.023305
-0.0069916
-0.06599
-0.062801
0.013419
0.015332
-0.091503
-0.01337
0.040845
0.015332
0.080709
0.057747
0.027451
0.018202
0.011824
-0.0041214
0.017246
0.015651
-0.050363
-0.074601
-0.08066
-0.04558
0.017883
-0.046218
-0.032186
-0.012732
0.0073593
0.074649
0.05392
-0.024851
-0.022618
0.07433
0.028088
-0.0015702
0.023943
-0.059293
-0.069498
-0.048769
-0.046218
-0.034099
0.0131
-0.00029452
-0.03091
0.047861
0.057109
0.028088
-0.013689
-0.05419
0.049455
0.035104
-0.014964
-0.022937
-0.082254
-0.070455
0.0095917
-0.005716
-0.084487
0.012143
0.019159
-0.026764
0.065082
0.035104
0.014375
0.032553
0.027132
0.012781
0.017883
0.0003433
-0.050044
-0.082573
-0.087357
-0.031229
0.0032135
-0.077152
-0.040477
0.0079971
0.014375
0.072417
0.057109
-0.0047593
-0.019748
0.061574
0.022667
0.0095917
0.033191
-0.050044
-0.037288
-0.03378
-0.040477
-0.010181
0.022986
0.004808
-0.0085862
0.072417
0.089319
0.063806
0.018521
-0.018791
0.073374
0.044991
-0.0079484
-0.010181
-0.095649
-0.076833
-0.011456
-0.01911
-0.090227
-0.0063538
0.016289
-0.031867
0.043077
0.046266
0.030002
0.019797
-0.0105
0.0064026
0.044353
0.032872
-0.026126
-0.066309
-0.080341
-0.015921
0.014375
-0.066628
-0.027083
0.0057648
0.0051269
0.080071
0.059023
-0.0066727
-0.0063538
0.046585
0.0092728
0.0028946
0.024262
-0.049407
-0.05132
-0.06312
-0.054509
-0.010819
-0.005716
-0.03091
-0.026445
0.03638
0.060936
0.031278
-0.032823
-0.045899
0.059342
0.027451
-0.017197
-0.017197
-0.096924
-0.078109
-0.017835
-0.024532
-0.075557
0.0032135
0.0131
-0.02198
0.060298
0.052007
0.022986
0.017246
-0.013689
0.03064
0.033191
0.012143
-0.023575
-0.085125
-0.096286
-0.015602
0.0076782
-0.095011
-0.039839
0.012781
-0.0069916
0.081346
0.068271
-0.0089051
0.0022568
0.045947
-0.00029452
-0.002208
0.021072
-0.041753
-0.044942
-0.05419
-0.047174
0.018202
-0.0089051
-0.0047593
0.00098112
0.062212
0.086449
0.044991
-0.028678
-0.038883
0.081346
0.040845
0.0013
0.019478
-0.070774
-0.061206
-0.022618
-0.02198
-0.057698
0.02171
0.023305
-0.027083
0.087725
0.076882
0.056153
0.040207
-0.0098618
0.057747
0.060617
0.019159
-0.022618
-0.081935
-0.072368
0.024899
0.026494
-0.081935
-0.029953
0.014375
-0.0025269
0.073055
0.044034
0.0019378
0.0044891
0.025537
-0.0047593
-0.014008
-0.005716
-0.047174
-0.044942
-0.085762
-0.065033
-0.0095429
-0.062163
-0.041753
-0.0076295
0.0041702
0.066358
0.035423
-0.033142
-0.042391
0.06285
0.031278
0.0032135
0.01884
-0.066628
-0.057698
-0.023575
-0.019748
-0.031229
0.035742
0.020754
-0.015602
0.06572
0.073693
0.032553
0.01884
-0.032823
0.044353
0.037656
-0.0060349
-0.025488
-0.073325
-0.095649
-0.015283
-0.0044404
-0.089589
-0.014964
0.028088
0.012143
0.097611
0.074012
0.036061
0.027132
0.044991
0.0067215
0.019478
0.048499
-0.023575
-0.051639
-0.069498
-0.02517
0.016608
-0.059293
-0.051958
0.00098112
0.034467
0.074649
0.037975
-0.032186
-0.031229
0.056153
0.011186
-0.017835
-0.002208
-0.069179
-0.060887
-0.058655
-0.063439
-0.057698
-0.011456
-0.028678
-0.046218
0.032234
0.05392
0.02458
0.0044891
-0.05132
0.036061
0.021072
-0.01337
-0.018791
-0.09533
-0.075238
0.015651
0.0079971
-0.08353
-0.0085862
0.012143
-0.01337
0.076563
0.059342
0.035104
0.027451
0.029045
0.018521
0.037018
0.029045
-0.032186
-0.06025
-0.066309
-0.01911
0.01023
-0.073963
-0.024851
0.017246
0.030959
0.089957
0.059661
-0.017835
-0.023256
0.069866
0.017883
0.0025757
0.023305
-0.06025
-0.052596
-0.06025
-0.041753
-0.015283
0.03925
0.018521
0.0064026
0.080071
0.075606
0.072098
0.022986
-0.01624
0.096973
0.061893
0.025537
0.034786
-0.040158
-0.035375
0.026175
2.4388e-05
-0.072049
0.0051269
0.022986
-0.026445
0.058385
0.034786
0.0070404
-0.0025269
-0.014327
-0.024851
-0.0089051
-0.010819
-0.066947
-0.10107
-0.10745
-0.045899
-0.012413
-0.10107
-0.057698
0.0022568
0.010548
0.07752
0.053282
-0.011456
-0.0079484
0.054239
0.012781
2.4388e-05
0.0079971
-0.062801
-0.056104
-0.057061
-0.057698
-0.013051
0.0003433
-0.020067
-0.044304
0.027451
0.070185
0.040207
-0.014008
-0.042072
0.060936
0.033829
-0.011775
0.0016189
-0.079703
-0.073644
-0.0047593
-0.018153
-0.07173
0.0060837
0.015651
-0.028359
0.058704
0.053282
0.039888
0.04818
0.013738
0.026494
0.034148
0.017246
-0.017835
-0.052277
-0.052596
0.0070404
0.039888
-0.042391
0.00098112
0.045629
0.025218
0.085811
0.054877
-0.017197
-0.005716
0.03064
0.026494
0.008635
0.012143
-0.06312
-0.075557
-0.0864
-0.08066
-0.032823
-0.030272
-0.022299
-0.0076295
0.046585
0.089
0.070503
0.004808
-0.023575
0.089957
0.067314
0.016927
0.026813
-0.058336
-0.061525
-0.0060349
-0.014008
-0.050363
0.027132
0.019478
-0.038245
0.037018
0.044034
0.022029
0.023943
-0.032823
-0.0098618
0.030002
0.0041702
-0.046855
-0.10617
-0.089908
-0.016559
-0.00093234
-0.096924
-0.050682
0.010867
-0.0038025
0.064763
0.039888
-0.0034836
0.0070404
0.029364
-0.013689
0.012462
0.032553
-0.038245
-0.048769
-0.056742
-0.048131
0.013419
-0.019429
-0.014327
0.011186
0.058385
0.10208
0.06285
-0.013051
-0.02804
0.08326
0.043077
0.016927
0.01023
-0.073963
-0.058017
-0.017835
-0.014327
-0.03091
0.035104
0.019478
-0.0031647
0.085811
0.086768
0.067952
0.035423
-0.0015702
0.055196
0.066358
0.036061
0.0044891
-0.055785
-0.06599
0.015013
0.011505
-0.09533
-0.033142
0.015013
-0.02198
0.03925
0.041802
0.0064026
0.012143
0.019159
-0.016878
-0.0060349
0.0073593
-0.051639
-0.072368
-0.075876
-0.046536
0.0070404
-0.041753
-0.029315
0.0038513
0.028726
0.07433
0.047223
-0.034737
-0.053552
0.054239
0.0095917
-0.035694
-0.012413
-0.084806
-0.08066
-0.048769
-0.045261
-0.047812
0.016608
0.01023
-0.020067
0.07146
0.09187
0.075287
0.061255
0.0054459
0.10622
0.10271
0.055515
0.032872
-0.030591
-0.019748
0.042439
0.031596
-0.06025
0.0070404
0.037656
-0.002208
0.080709
0.061255
0.039888
0.032234
0.022348
0.010548
0.024262
0.017246
-0.043028
-0.057698
-0.086719
-0.041434
0.0054459
-0.052596
-0.025807
0.0019378
0.0076782
0.065082
0.03064
-0.043347
-0.046218
0.043077
-0.0015702
-0.014327
-0.012094
-0.081935
-0.061525
-0.044304
-0.061844
-0.046218
-0.0015702
-0.0082673
-0.023256
0.049137
0.063169
0.046585
0.017246
-0.03091
0.067633
0.057747
0.0035324
-0.010819
-0.075238
-0.064077
0.0041702
0.0041702
-0.081935
-0.027083
0.010548
-0.032823
0.071779
0.054239
0.028088
0.010548
0.0044891
2.4388e-05
0.011824
0.008316
-0.036331
-0.061206
-0.073325
-0.025807
0.015651
-0.048131
-0.017197
0.019797
0.027451
0.088681
0.038612
-0.020386
-0.0031647
0.073374
0.037656
0.0131
0.028726
-0.05132
-0.067266
-0.059612
-0.052277
-0.017516
0.01597
-0.0098618
-0.029634
0.043715
0.083579
0.059342
0.017883
-0.022299
0.072098
0.036699
-0.010819
-0.011775
-0.084168
-0.089908
0.011824
0.011505
-0.06312
0.0060837
0.012462
-0.032823
0.060936
0.05105
0.034467
0.035742
0.0073593
0.022348
0.050412
0.029045
-0.014008
-0.057379
-0.073325
-0.012094
0.042758
-0.056423
-0.018791
0.040845
0.03351
0.085492
0.052007
0.0041702
-0.0034836
0.057109
0.021391
-0.014008
0.015013
-0.059612
-0.062163
-0.064077
-0.065352
-0.024213
-0.023575
-0.040477
-0.022299
0.03638
0.064125
0.023305
-0.025807
-0.054509
0.052963
0.026175
-0.014008
-0.010181
-0.088952
-0.086081
-0.005716
-0.026764
-0.08066
0.0013
0.010548
-0.028359
0.064125
0.070503
0.057747
0.052326
0.00098112
0.035104
0.058066
0.034786
-0.0015702
-0.04558
-0.06025
0.027132
0.037337
-0.06886
-0.022937
0.029364
0.012462
0.060936
0.046904
0.0095917
0.0060837
0.036061
-0.013689
-0.0063538
-0.0025269
-0.072049
-0.076195
-0.067903
-0.063758
-0.01337
-0.035375
-0.046218
-0.017835
0.030002
0.066677
0.051369
-0.0063538
-0.043347
0.066358
0.048499
-0.00093234
0.0060837
-0.076514
-0.066947
-0.02517
-0.039839
-0.048131
0.030002
0.025218
-0.0076295
0.05679
0.044034
0.031278
0.035423
-0.0085862
0.034786
0.039888
0.010548
-0.00093234
-0.064714
-0.076833
-0.00061343
0.021072
-0.07173
-0.02517
0.029683
0.0032135
0.082622
0.06859
0.022029
0.018202
0.034467
-0.0044404
0.0064026
0.025218
-0.048131
-0.064077
-0.077152
-0.053552
0.0019378
-0.036331
-0.029634
0.0035324
0.038612
0.087725
0.059661
-0.013051
-0.03091
0.087725
0.06572
0.02171
0.03638
-0.051639
-0.052596
-0.012094
-0.011137
-0.032504
-0.0041214
0.0025757
-0.031867
0.058385
0.06285
0.029045
0.017564
-0.024532
0.024899
0.028726
-0.023575
-0.02804
-0.093735
-0.0864
0.0054459
0.0041702
-0.097562
-0.033142
0.011186
-0.015921
0.058704
0.041802
0.0057648
0.0067215
0.022029
-0.0012513
0.0099106
0.013738
-0.049726
-0.075238
-0.093416
-0.053234
0.016608
-0.047493
-0.028359
0.017246
0.037337
0.087725
0.064125
-0.0063538
-0.0095429
0.084854
0.064125
0.014056
0.027451
-0.047493
-0.050044
-0.031867
-0.043028
-0.036012
0.010867
-0.0060349
-0.023575
0.041802
0.046904
0.025218
-0.0060349
-0.060887
0.028726
0.022986
-0.023575
-0.028678
-0.097243
-0.10394
-0.01911
-0.027721
-0.11638
-0.049407
0.0013
-0.029315
0.051369
0.019159
-0.0085862
0.0016189
-0.017197
-0.010181
0.017246
0.022029
-0.029634
-0.061844
-0.067585
-0.016878
0.03351
-0.045261
-0.01624
0.032234
0.029364
0.09506
0.080709
-0.0063538
-0.0031647
0.070185
0.027451
-0.014645
0.025856
-0.060887
-0.058336
-0.04271
-0.057698
-0.036331
-0.012413
-0.020067
-0.021343
0.050093
0.067952
0.031915
0.010548
-0.045899
0.060936
0.048499
-0.0034836
-0.011456
-0.088314
-0.092778
-0.010819
-0.011137
-0.085762
-0.01911
0.0016189
-0.03378
0.057109
0.044991
0.017564
0.015013
-0.024851
-0.014645
0.019478
0.0035324
-0.042391
-0.070136
-0.07779
-0.027721
0.0032135
-0.072049
-0.041115
0.0079971
0.017564
0.068271
0.047542
-0.036969
-0.020705
0.036061
0.0076782
-0.0076295
0.0099106
-0.071093
-0.070774
-0.063758
-0.062482
-0.015602
-0.002208
-0.02804
-0.021024
0.057747
0.092189
0.064125
0.030959
-0.0050782
0.08326
0.076563
0.02171
0.013419
-0.067266
-0.063439
0.028407
-0.010181
-0.070774
-0.0066727
0.0060837
-0.034737
0.034148
0.033191
0.021072
-0.0044404
-0.052277
-0.010819
0.0051269
-0.02198
-0.066309
-0.11383
-0.10235
-0.043028
0.004808
-0.085762
-0.046218
0.0070404
-0.0012513
0.06859
0.054239
-0.0053971
-0.0085862
0.043396
0.008316
-0.0073105
0.022029
-0.051001
-0.056742
-0.06312
-0.052277
-0.0031647
-0.01624
-0.02804
-0.011137
0.050093
0.082303
0.058385
0.0076782
-0.024213
0.086768
0.074012
0.01023
0.022986
-0.053552
-0.044304
0.01023
-0.0031647
-0.048769
0.01884
0.021072
-0.030272
0.048818
0.034467
0.0079971
0.026494
-0.03091
0.00098112
0.038294
-0.024851
-0.072687
-0.11096
-0.099794
-0.02198
0.0028946
-0.094373
-0.036969
0.014375
-0.0031647
0.089638
0.047223
-0.0044404
-0.00061343
0.049774
0.015651
0.028726
0.026813
-0.050363
-0.071411
-0.073325
-0.056742
-0.0034836
-0.037288
-0.037288
-0.0079484
0.040845
0.081028
0.037656
-0.02804
-0.032823
0.056153
0.028726
-0.019748
0.012143
-0.081617
-0.072687
-0.011137
-0.033461
-0.055785
-0.0018891
-0.0079484
-0.050682
0.035104
0.046266
0.030321
0.019159
-0.038564
0.021072
0.028726
0.0003433
-0.028678
-0.096286
-0.10553
-0.018472
-0.0069916
-0.092141
-0.038245
0.014375
-0.015283
0.057428
0.049774
-0.00061343
-0.005716
0.0089539
-0.020067
-0.0095429
0.0013
-0.063758
-0.10043
-0.10585
-0.073963
-0.012094
-0.069498
-0.074282
-0.036969
-0.0041214
0.043396
0.0073593
-0.056423
-0.059293
0.030002
0.0044891
-0.046218
-0.020705
-0.097562
-0.092141
-0.047493
-0.064077
-0.069817
-0.0095429
-0.017197
-0.037607
0.042439
0.054877
0.030002
0.0079971
-0.036012
0.026813
0.029364
-0.015283
-0.032504
-0.0982
-0.086081
-0.029953
-0.015921
-0.11893
-0.061206
-0.017516
-0.04558
0.031278
0.0041702
-0.0105
-0.0098618
-0.011456
-0.035694
-0.03091
-0.018472
-0.071411
-0.11255
-0.12371
-0.097881
-0.050363
-0.11223
-0.094373
-0.04271
-0.027721
0.027451
-0.0038025
-0.090227
-0.079065
0.011505
-0.021024
-0.058017
-0.04845
-0.11287
-0.10458
-0.074601
-0.084168
-0.070774
-0.02804
-0.036012
-0.063439
0.0079971
0.034467
0.022667
-0.0038025
-0.059612
0.03351
0.027451
-0.02804
-0.031229
-0.085125
-0.093416
-0.0028458
-0.0085862
-0.087038
-0.034737
-0.0069916
-0.057061
0.044353
0.036699
-0.012413
0.0016189
-0.024532
-0.02198
-0.0073105
-0.020386
-0.071411
-0.10777
-0.11574
-0.065352
-0.019429
-0.096286
-0.064077
-0.002208
0.0073593
0.065082
0.041802
-0.029953
-0.027402
0.045947
0.02777
0.00098112
0.011824
-0.065033
-0.050363
-0.050682
-0.068541
-0.041115
0.00098112
-0.015921
-0.019429
0.037975
0.053601
0.02458
0.0054459
-0.036331
0.057109
0.058385
0.0060837
0.00066221
-0.065352
-0.06886
0.008635
-0.0063538
-0.059612
0.0057648
0.03638
-0.013051
0.065082
0.07146
0.043396
0.046904
0.0073593
0.0067215
0.024262
0.0051269
-0.043028
-0.080022
-0.084487
-0.045261
-0.014645
-0.096605
-0.052915
0.015651
0.016608
0.051688
0.028407
-0.030591
-0.014645
0.046904
0.022348
0.013738
0.039569
-0.026126
-0.020705
-0.012732
-0.028678
0.022986
0.036699
0.014056
0.03064
0.07146
0.12408
0.080071
0.047223
0.0131
0.11451
0.10144
0.043396
0.05392
-0.031229
-0.018153
0.044672
0.029683
-0.011775
0.020116
0.058066
0.026813
0.10303
0.098249
0.058385
0.059023
0.010867
0.030002
0.051369
0.02777
-0.017516
-0.074601
-0.073963
-0.015602
0.011505
-0.061206
-0.017516
0.03351
0.0089539
0.077201
0.061255
0.0022568
0.017883
0.065082
0.03925
0.025218
0.042121
-0.019748
-0.028678
-0.033142
-0.028359
0.024899
0.013419
-0.0050782
0.0035324
0.05392
0.10399
0.070185
0.0057648
-0.0079484
0.09506
0.044991
0.014056
0.02777
-0.055785
-0.058974
0.0079971
2.4388e-05
-0.019748
0.036699
0.042121
-0.0044404
0.07752
0.097292
0.07433
0.063169
0.0089539
0.058385
0.053601
0.028726
0.00066221
-0.04271
-0.056104
2.4388e-05
0.016289
-0.065033
-0.019748
0.025218
0.012143
0.090595
0.066995
0.010548
0.023305
0.045947
0.02458
0.030959
0.046266
-0.015283
-0.037607
-0.069817
-0.039202
0.032234
-0.010819
-0.020386
0.0057648
0.024899
0.074968
0.053601
-0.013689
-0.042072
0.052007
0.037337
-0.0085862
0.0073593
-0.080022
-0.068541
-0.027083
-0.040796
-0.040158
0.010548
0.011186
-0.014645
0.051369
0.069866
0.044991
0.031278
-0.027721
0.031915
0.032872
-0.0063538
-0.019748
-0.074601
-0.081298
-0.0047593
-0.005716
-0.087357
-0.032823
0.012462
-0.019429
0.066039
0.061255
0.015013
0.017564
0.023624
0.004808
0.028407
0.031278
-0.023894
-0.053234
-0.062482
-0.05419
0.020435
-0.028678
-0.014327
0.01884
0.038294
0.094103
0.082622
0.004808
-0.013689
0.069866
0.056153
0.02777
0.03064
-0.053552
-0.034737
-0.0066727
-0.047493
-0.012413
0.022986
0.0079971
-0.009224
0.046266
0.064444
0.04531
0.023305
-0.035694
0.028726
0.033829
-0.011775
-0.019748
-0.091184
-0.094054
-0.022937
-0.0063538
-0.095011
-0.046536
0.0089539
-0.01624
0.059979
0.038931
-0.0028458
0.019797
-0.0034836
-0.00029452
0.015013
0.030002
-0.021343
-0.061844
-0.070455
-0.040477
0.018202
-0.059931
-0.032823
0.017564
0.024899
0.083579
0.061893
-0.011456
-0.0098618
0.058385
0.03638
0.013419
0.019797
-0.056104
-0.05132
-0.034418
-0.053552
-0.022618
0.0067215
-0.0044404
-0.016559
0.040207
0.062531
0.044991
0.03064
-0.031229
0.043077
0.044991
-0.0047593
-0.009224
-0.0864
-0.08066
2.4388e-05
-0.014327
-0.070455
-0.014327
0.011186
-0.018153
0.068909
0.049774
0.0070404
0.0022568
-0.023894
-0.0031647
0.027451
0.016927
-0.034418
-0.071411
-0.078427
-0.021343
0.024262
-0.047493
-0.027083
0.030321
0.049455
0.11643
0.074968
0.0057648
0.016289
0.076244
0.030321
-0.0095429
0.010867
-0.034418
-0.060887
-0.051639
-0.044942
-0.016559
-0.0034836
-0.021661
-0.018153
0.02458
0.056471
0.041483
0.0131
-0.031867
0.074968
0.056471
0.0064026
0.0019378
-0.073006
-0.080979
-0.0053971
-0.010181
-0.072049
-0.022937
-0.012413
-0.053552
0.035742
0.020116
0.0060837
0.019159
-0.024213
-0.013051
0.028088
-0.0063538
-0.058017
-0.095968
-0.095968
-0.036012
0.0044891
-0.0864
-0.042391
-0.00029452
-0.0076295
0.071779
0.061574
-0.01911
-0.0031647
0.042121
0.011824
0.0038513
0.017883
-0.045261
-0.052596
-0.057698
-0.043985
0.020435
0.011505
-0.0038025
0.016927
0.060936
0.10654
0.073693
0.035742
-0.0085862
0.090914
0.079752
-0.0073105
0.018521
-0.045261
-0.053552
-0.010181
-0.034737
-0.053234
-0.00061343
-0.0031647
-0.053234
0.031915
0.027451
0.0051269
0.011505
-0.043028
-0.010819
0.019478
-0.010819
-0.039839
-0.084487
-0.095011
-0.029315
-0.00029452
-0.079384
-0.037926
0.0067215
-0.00093234
0.070822
0.05392
-0.0012513
0.0025757
0.031915
0.012143
-0.0076295
0.0054459
-0.060887
-0.072049
-0.063439
-0.053552
0.0079971
-0.014008
-0.028678
-0.009224
0.031596
0.085811
0.056153
0.0028946
-0.010819
0.088681
0.061893
0.012462
0.025218
-0.055147
-0.040477
-0.0012513
-0.012094
-0.035056
0.011824
0.011505
-0.018153
0.075925
0.062212
0.04531
0.033191
-0.036331
0.024262
0.031278
0.010867
-0.021024
-0.091822
-0.08353
-0.012094
-0.00029452
-0.088633
-0.042072
0.021391
0.022348
0.083579
0.065401
0.011186
0.021072
0.044672
0.0079971
0.0025757
0.040207
-0.010181
-0.031548
-0.080341
-0.052277
0.021072
-0.039202
-0.046218
-0.0095429
0.015651
0.06285
0.031596
-0.03665
-0.045261
0.043715
0.026813
-0.017197
-0.0041214
-0.081935
-0.076514
-0.044304
-0.062801
-0.04845
-0.00061343
-0.012413
-0.024213
0.050093
0.069547
0.048818
0.03351
-0.033142
0.04531
0.057747
0.023624
-0.00061343
-0.063439
-0.054509
0.012462
0.004808
-0.067585
-0.011456
0.017883
-0.024851
0.057747
0.040845
0.0025757
0.0095917
-0.0015702
-0.018153
-0.0082673
0.0051269
-0.048131
-0.075238
-0.097881
-0.075238
0.0038513
-0.06025
-0.043666
0.0076782
0.023943
0.073374
0.052645
-0.015602
-0.017835
0.05679
0.038612
0.0095917
0.01884
-0.064077
-0.059612
-0.023894
-0.035694
-0.029634
-0.012732
0.0051269
-0.0038025
0.066995
0.079433
0.040207
0.02171
-0.035375
0.058704
0.04531
-0.0060349
-0.0073105
-0.077152
-0.08066
0.0016189
-0.002208
-0.078746
-0.033142
0.021391
-0.017835
0.053601
0.040845
0.021391
0.017564
-0.011456
-0.012732
0.024899
0.010867
-0.042072
-0.060887
-0.078109
-0.044942
0.011186
-0.064714
-0.02517
0.016927
0.018202
0.078157
0.049774
-0.016878
-0.0082673
0.051369
0.028088
0.01023
0.020754
-0.058336
-0.059931
-0.060887
-0.058017
-0.019429
-0.002208
-0.02198
-0.02198
0.043396
0.060936
0.028407
-0.0050782
-0.052277
0.03925
0.044991
-0.02198
-0.025488
-0.093735
-0.08927
-0.018153
-0.039202
-0.087038
-0.017835
0.008635
-0.029953
0.044353
0.040845
0.029683
0.038294
0.011505
0.01884
0.041164
0.026175
-0.018153
-0.05132
-0.060569
-0.0025269
0.028407
-0.071411
-0.037607
0.027132
0.0079971
0.061893
0.044353
-0.030272
-0.028996
0.03064
0.0095917
-0.0098618
0.0073593
-0.061844
-0.069498
-0.057379
-0.059293
0.010548
0.0013
-0.0050782
0.020116
0.064763
0.096016
0.063169
0.015013
-0.026764
0.07433
0.068271
0.012781
0.015013
-0.061525
-0.060887
0.0003433
-0.014008
-0.04558
-0.00061343
0.01023
-0.0098618
0.072736
0.067952
0.047223
0.054877
-0.022618
-0.0069916
0.032234
0.0038513
-0.030272
-0.091503
-0.10458
-0.029634
-0.002208
-0.11638
-0.067266
-0.0105
-0.019748
0.037656
0.03925
-0.0028458
-0.010819
0.021391
0.01597
-0.0028458
0.019478
-0.03665
-0.046536
-0.056104
-0.050682
0.004808
-0.0066727
-0.012094
0.015013
0.045947
0.087725
0.047542
-0.0066727
-0.030591
0.073374
0.057747
-0.0066727
0.0054459
-0.063439
-0.060569
-0.022299
-0.046536
-0.06312
0.0016189
-0.0038025
-0.038245
0.039569
0.047223
0.016289
0.0073593
-0.043028
-0.0028458
0.011824
-0.023575
-0.055147
-0.091184
-0.077152
-0.010819
-0.011775
-0.11255
-0.046855
0.020116
0.015332
0.081984
0.069547
0.0060837
0.0089539
0.042758
0.02458
0.02458
0.034148
-0.038245
-0.048131
-0.054828
-0.034737
0.022986
-0.02198
-0.031229
0.0079971
0.046266
0.10016
0.057109
-0.0031647
-0.0105
0.081984
0.06859
0.013738
0.033191
-0.051958
-0.051639
-0.016559
-0.031548
-0.035694
0.0003433
-0.00029452
-0.018472
0.051688
0.053601
0.03064
0.017246
-0.046855
0.026813
0.042439
0.00098112
-0.012094
-0.075238
-0.075876
-0.002208
0.019478
-0.084806
-0.017516
0.031915
0.02171
0.080709
0.059342
0.012143
0.01884
0.0099106
-0.0063538
0.012143
0.01884
-0.043028
-0.069179
-0.087995
-0.064714
-0.0034836
-0.065671
-0.057379
-0.0018891
0.027451
0.078795
0.049774
-0.014327
-0.015602
0.06859
0.03925
-0.0050782
0.02458
-0.052277
-0.039839
-0.01911
-0.038564
-0.037288
-0.0031647
-0.014645
-0.03665
0.03925
0.066039
0.042439
0.037337
-0.039839
0.024899
0.037018
-0.0085862
-0.013051
-0.070774
-0.064714
0.0073593
0.0054459
-0.058017
-0.0063538
0.03064
0.0038513
0.089957
0.07146
0.029045
0.032553
0.015332
0.012143
0.03064
0.02458
-0.02804
-0.05132
-0.073644
-0.045899
0.0051269
-0.067903
-0.047174
0.012143
0.0131
0.07433
0.039888
-0.02517
-0.015921
0.04818
0.026813
0.0041702
0.032553
-0.028996
-0.030272
-0.030591
-0.029953
0.0060837
0.022029
-0.0105
-0.014008
0.064444
0.061893
0.06285
0.036699
-0.026445
0.044034
0.023305
-0.029953
-0.028996
-0.092778
-0.094373
-0.021661
-0.037288
-0.088633
-0.03091
0.0022568
-0.034418
0.05105
0.044991
0.02171
0.013419
-0.026126
-0.010819
0.023305
0.025537
-0.031867
-0.079384
-0.077471
-0.027402
0.0076782
-0.078109
-0.042391
0.0073593
0.004808
0.068271
0.058704
-0.0098618
-0.0041214
0.056153
0.027451
0.0044891
0.014375
-0.060569
-0.061206
-0.064714
-0.049407
-0.00029452
-0.0044404
-0.020067
-0.017197
0.032234
0.066358
0.030321
-0.0063538
-0.051001
0.034467
0.017246
-0.014008
-0.011456
-0.091184
-0.072368
-0.015921
-0.027083
-0.087676
-0.013051
0.020435
-0.029634
0.069547
0.068271
0.050412
0.046266
-0.0066727
0.020116
0.03351
0.008316
-0.014645
-0.068222
-0.072368
-0.012094
0.0073593
-0.063758
-0.025807
0.019797
0.0051269
0.048818
0.029364
-0.0066727
0.015332
0.058385
0.023943
0.012143
0.014694
-0.05132
-0.061844
-0.08066
-0.056104
0.0022568
-0.0069916
-0.020067
0.0013
0.03925
0.065401
0.035104
-0.0050782
-0.029315
0.074012
0.07146
0.013738
0.010867
-0.058974
-0.048769
0.0054459
-0.0031647
-0.035056
0.0099106
0.024262
-0.005716
0.082303
0.08613
0.050093
0.037337
-0.032504
0.018521
0.035742
-0.0044404
-0.021024
-0.088314
-0.094054
-0.027402
-0.015602
-0.10203
-0.043985
-0.0073105
-0.023575
0.064763
0.044034
-0.0098618
-0.009224
0.0076782
-0.0044404
0.0016189
0.013738
-0.04558
-0.06312
-0.078109
-0.058655
0.0019378
-0.035375
-0.035056
-0.0053971
0.027132
0.076882
0.059979
0.0041702
-0.030591
0.073374
0.060617
2.4388e-05
0.010548
-0.07779
-0.069498
-0.022299
-0.037926
-0.051001
0.0089539
0.0041702
-0.028678
0.03351
0.051369
0.033829
0.02171
-0.040477
0.03064
0.051369
0.0038513
-0.0038025
-0.059931
-0.058017
0.017883
0.022348
-0.066628
-0.00029452
0.020754
0.0051269
0.081665
0.062212
0.008316
0.015013
0.020116
0.017246
0.023624
0.012462
-0.055147
-0.073644
-0.078109
-0.059931
0.00098112
-0.040158
-0.044942
0.0019378
0.013419
0.065401
0.038612
-0.02198
-0.036331
0.054239
0.023305
-0.01624
-0.0041214
-0.084168
-0.079384
-0.031548
-0.045899
-0.039202
-0.00093234
-0.0095429
-0.032823
0.043715
0.054877
0.050731
0.035423
-0.04558
0.026813
0.04531
-0.0031647
-0.017835
-0.08066
-0.073006
-0.0015702
-0.0105
-0.089589
-0.028996
-0.0060349
-0.03378
0.063487
0.053282
0.0095917
0.0092728
2.4388e-05
-0.014645
0.011824
0.0051269
-0.050682
-0.078109
-0.087357
-0.054509
0.0044891
-0.046218
-0.039202
-0.0050782
0.01884
0.07752
0.047861
-0.018153
-0.015921
0.055834
0.021072
-0.00029452
0.0060837
-0.078746
-0.068541
-0.045261
-0.042072
-0.010181
0.017564
-0.00061343
-0.0105
0.055834
0.074649
0.045947
0.03351
-0.02517
0.067952
0.057747
-0.0041214
-0.009224
-0.080979
-0.087995
-0.0069916
-0.0018891
-0.074282
-0.023256
0.0079971
-0.033142
0.049455
0.04531
0.014375
0.023943
0.0035324
0.0095917
0.038294
0.026175
-0.020705
-0.063439
-0.071411
-0.029953
0.010867
-0.059293
-0.033142
0.017883
0.012143
0.073055
0.054877
-0.017197
-0.01911
0.038294
0.0095917
-0.019429
-0.015283
-0.08353
-0.075557
-0.061844
-0.06312
-0.028996
-0.017835
-0.042391
-0.041753
0.010867
0.040845
0.012781
-0.018153
-0.058017
0.044991
0.037975
-0.023256
-0.017835
-0.081298
-0.074601
-0.0063538
-0.018791
-0.051639
0.008316
0.031278
-0.00061343
0.083898
0.076882
0.057109
0.056471
0.016927
0.037656
0.04531
0.019797
-0.02804
-0.065352
-0.066947
-0.031229
-0.0069916
-0.094373
-0.053871
0.013419
2.4388e-05
0.055515
0.035423
-0.029953
-0.019748
0.023305
0.008635
-0.0044404
0.015332
-0.055466
-0.076195
-0.06599
-0.058336
-0.00029452
-0.0047593
-0.027721
-0.0073105
0.030959
0.058704
0.029683
-0.0015702
-0.03952
0.048818
0.024262
-0.0063538
0.0054459
-0.091184
-0.080022
-0.02517
-0.040158
-0.074282
-0.011775
0.0054459
-0.035375
0.049455
0.046904
0.023624
0.025856
-0.023894
0.0076782
0.034467
0.01023
-0.022299
-0.07173
-0.079703
-0.022937
-0.0012513
-0.092141
-0.04271
0.0067215
-0.00029452
0.078157
0.064444
0.0032135
0.0131
0.039569
0.0095917
-0.0031647
0.017564
-0.034099
-0.045899
-0.052915
-0.046218
-0.00029452
-0.021661
-0.029315
0.0038513
0.032234
0.071779
0.025218
-0.021661
-0.036012
0.054239
0.034786
-0.022299
-0.014327
-0.092778
-0.076833
-0.026445
-0.038245
-0.052277
0.00066221
0.0022568
-0.021024
0.066995
0.075287
0.042121
0.035104
-0.042391
0.018521
0.03351
0.0035324
-0.028359
-0.085762
-0.073644
0.0028946
0.0060837
-0.073006
-0.034418
0.016927
-0.0047593
0.074012
0.067952
0.023624
0.027132
0.03638
0.016608
0.028088
0.034148
-0.033142
-0.071093
-0.075238
-0.051001
-0.0028458
-0.033461
-0.03091
-0.009224
0.011824
0.055834
0.013738
-0.038883
-0.036969
0.052007
0.015651
-0.036012
-0.026126
-0.083849
-0.07173
-0.048131
-0.055466
-0.050363
-0.014645
-0.027721
-0.041434
0.041802
0.058385
0.041483
0.035742
-0.034737
0.037018
0.04818
0.0131
-0.0076295
-0.076195
-0.073006
0.0022568
0.0032135
-0.084487
-0.030591
0.024262
-0.012413
0.074649
0.057747
0.02171
0.02171
0.0019378
-0.0044404
0.01884
0.022667
-0.032504
-0.055785
-0.073006
-0.04558
0.016927
-0.032823
-0.02804
0.012143
0.034467
0.079114
0.065401
-0.0076295
-0.0028458
0.069866
0.032234
0.0038513
0.026494
-0.060569
-0.06886
-0.049407
-0.060887
-0.014327
0.0060837
-0.018791
-0.032504
0.032234
0.053282
0.03064
0.014375
-0.043666
0.049774
0.036699
-0.03665
-0.032823
-0.089908
-0.088633
-0.011775
-0.018153
-0.08927
-0.036969
-0.0073105
-0.045899
0.048499
0.037018
0.0041702
0.00098112
-0.023575
-0.012413
0.013419
0.016289
-0.035056
-0.069498
-0.080979
-0.04271
0.020435
-0.049088
-0.033142
0.020435
0.031596
0.08326
0.062531
0.0016189
0.012462
0.063806
0.037337
0.0054459
0.036699
-0.048131
-0.055147
-0.049726
-0.061206
-0.01624
0.0041702
-0.01337
-0.009224
0.037337
0.059979
0.036699
0.011505
-0.039839
0.05105
0.041483
-0.012094
-0.019429
-0.071093
-0.071411
-0.009224
-0.016878
-0.073325
-0.020067
0.0038513
-0.028359
0.064444
0.050093
0.037337
0.023624
-0.011775
0.0076782
0.025537
0.0131
-0.026764
-0.07173
-0.080022
-0.043028
0.0022568
-0.064714
-0.031229
0.0022568
-0.0028458
0.068909
0.038612
-0.032504
-0.017516
0.04531
0.018202
2.4388e-05
0.021391
-0.053234
-0.051639
-0.056104
-0.05419
0.01023
0.011186
-0.0076295
-0.00029452
0.046904
0.073374
0.048818
0.0092728
-0.03378
0.059661
0.041164
0.00098112
-0.0105
-0.089589
-0.081298
-0.017197
-0.033142
-0.074919
-0.012413
0.011824
-0.029634
0.051688
0.057747
0.037656
0.03925
-0.014645
0.017564
0.037975
0.026813
-0.013689
-0.069817
-0.075238
-0.020386
-0.00029452
-0.096605
-0.041434
0.035742
0.013738
0.074649
0.04818
-0.014008
-0.011456
0.02458
0.013738
0.0044891
0.0016189
-0.065671
-0.061844
-0.066947
-0.08066
-0.015921
-0.040158
-0.059293
-0.020705
0.024899
0.049455
0.031278
-0.032504
-0.052277
0.041802
0.029683
-0.026445
-0.011137
-0.084168
-0.082254
-0.020386
-0.03952
-0.059612
-0.00093234
0.008635
-0.034099
0.044672
0.044991
0.022667
0.042758
-0.023575
0.021072
0.031915
0.0051269
-0.022299
-0.068222
-0.063439
0.0038513
0.015651
-0.078427
-0.02198
0.016927
0.015332
0.093465
0.073055
0.013738
0.024899
0.034786
0.008635
0.015651
0.020116
-0.046855
-0.06599
-0.055466
-0.038245
0.020116
-0.013051
-0.024851
-0.010819
0.01597
0.063487
0.036699
-0.0073105
-0.02198
0.056471
0.059979
-0.009224
0.01597
-0.072368
-0.08066
-0.034099
-0.038564
-0.040158
0.017246
0.008635
-0.010819
0.061574
0.062531
0.042439
0.032234
-0.029953
0.043077
0.055515
0.0028946
-0.020386
-0.086081
-0.079065
-0.0041214
-0.0034836
-0.082573
-0.033142
0.01597
-0.017835
0.073055
0.054239
0.011186
0.01597
0.0079971
-0.0050782
0.0044891
0.0099106
-0.048769
-0.079065
-0.084168
-0.069179
-0.0063538
-0.073644
-0.047174
-0.0098618
0.00066221
0.062212
0.022986
-0.027402
-0.031548
0.050093
0.036061
-0.0098618
-0.0095429
-0.080341
-0.076833
-0.053552
-0.070774
-0.064714
-0.041753
-0.041434
-0.044304
0.030959
0.034148
0.025218
-0.00029452
-0.063439
0.026175
0.021391
-0.015602
-0.014327
-0.068222
-0.061525
0.021391
0.022029
-0.051001
0.0073593
0.049774
0.017564
0.096973
0.079433
0.046904
0.044353
0.027132
0.038612
0.050412
0.035104
-0.023256
-0.050044
-0.064714
-0.039202
0.0060837
-0.054828
-0.032504
0.0054459
0.017564
0.055834
0.020116
-0.028359
-0.020386
0.046266
0.012143
-0.015921
0.0022568
-0.080979
-0.08066
-0.059612
-0.069498
-0.037926
-0.013689
-0.027721
-0.03091
0.027451
0.048818
0.012781
-0.0041214
-0.062163
0.030959
0.037018
-0.028678
-0.028359
-0.09246
-0.092141
-0.015921
-0.026445
-0.084168
-0.029634
0.008316
-0.028996
0.056471
0.052326
0.019478
0.040526
0.019797
0.023305
0.034786
0.028726
-0.016878
-0.063439
-0.065352
-0.0085862
0.014694
-0.053552
-0.027721
0.029045
0.020754
0.072098
0.04818
-0.023575
-0.013051
0.03351
0.0022568
-0.026445
-0.0044404
-0.064395
-0.072687
-0.062163
-0.068541
-0.019748
-0.011775
-0.019429
-0.017835
0.03351
0.073055
0.063806
0.025537
-0.032186
0.073055
0.06859
-0.0098618
0.0044891
-0.062163
-0.068541
-0.010181
-0.028359
-0.067585
-0.0085862
0.0016189
-0.035694
0.048499
0.034148
0.004808
0.024262
-0.014327
-0.0028458
0.019159
-0.0079484
-0.044304
-0.083211
-0.082573
-0.043666
-0.0060349
-0.090865
-0.055466
-0.0012513
-0.010819
0.055196
0.037018
-0.034737
-0.016878
0.029045
0.0025757
-0.01337
-0.0028458
-0.059293
-0.056742
-0.066309
-0.059612
-0.00029452
-0.010181
-0.035375
-0.012413
0.031278
0.087087
0.055515
0.0035324
-0.012094
0.089319
0.057109
0.0013
0.0038513
-0.069498
-0.034737
0.023624
0.0057648
-0.027083
0.032234
0.026813
-0.0066727
0.084854
0.077201
0.034786
0.055515
-0.0082673
0.021072
0.042758
0.0028946
-0.02198
-0.083211
-0.081298
-0.014964
0.0019378
-0.10235
-0.051958
0.02458
-0.019748
0.059342
0.049137
-0.013051
-0.0041214
0.015332
0.0041702
0.0038513
0.0131
-0.055466
-0.073963
-0.080341
-0.074919
0.0038513
-0.037607
-0.040796
-0.0085862
0.034467
0.069228
0.040526
-0.021024
-0.035694
0.059661
0.034467
-0.011775
0.0057648
-0.066947
-0.049407
-0.0079484
-0.032504
-0.047812
0.0035324
0.0016189
-0.019748
0.062531
0.065401
0.037656
0.024899
-0.038883
0.034148
0.062531
0.010548
-0.020386
-0.071093
-0.064714
0.0035324
2.4388e-05
-0.081298
-0.0098618
0.026175
0.0016189
0.07752
0.07433
0.01023
0.028726
0.03638
0.011824
0.011505
0.011505
-0.058974
-0.080979
-0.09533
-0.063439
0.0003433
-0.034737
-0.047812
-0.0025269
0.029364
0.06285
0.03638
-0.020705
-0.02804
0.053601
0.032234
-0.0063538
2.4388e-05
-0.080341
-0.060887
-0.029953
-0.056104
-0.034737
0.0073593
-0.0031647
-0.032823
0.040845
0.057747
0.050093
0.037337
-0.027083
0.042758
0.06285
-0.00061343
-0.0085862
-0.057061
-0.065352
-0.00093234
0.012781
-0.072687
-0.040477
-0.0025269
-0.03378
0.060617
0.034467
0.0003433
0.0044891
-0.0085862
-0.014964
0.0032135
-0.0073105
-0.055466
-0.085443
-0.096924
-0.069498
0.00066221
-0.066947
-0.053871
0.0003433
0.022986
0.082622
0.064444
-0.016559
-0.028359
0.052326
0.032553
0.0092728
0.029683
-0.050682
-0.047493
-0.022937
-0.021343
-0.0053971
0.011186
-0.0025269
-0.0044404
0.070185
0.089
0.071779
0.044353
-0.023894
0.065401
0.071779
0.028726
0.012143
-0.086081
-0.075876
-0.010819
-0.0095429
-0.069817
-0.017516
0.015013
-0.027721
0.048499
0.025856
-0.0050782
0.011186
-0.017197
-0.0098618
0.016608
0.0079971
-0.032504
-0.073325
-0.076833
-0.028359
0.013738
-0.072368
-0.059612
0.0076782
0.008316
0.05679
0.025537
-0.031229
-0.032823
0.03064
0.016608
-0.014645
0.01597
-0.082892
-0.07173
-0.045261
-0.056104
-0.009224
0.010548
-0.00029452
0.0099106
0.05105
0.075287
0.053601
0.029683
-0.025807
0.059979
0.052007
0.00098112
-0.0089051
-0.075876
-0.069498
-0.0082673
-0.038883
-0.089908
-0.018791
0.014694
-0.032823
0.044353
0.043715
0.012462
0.014375
-0.034737
0.00066221
0.028726
0.010548
-0.036331
-0.083849
-0.093735
-0.027721
0.017883
-0.074601
-0.037607
0.030959
0.017246
0.092189
0.059023
0.0032135
0.0131
0.071141
0.033191
0.025218
0.04818
-0.029634
-0.037607
-0.037607
-0.040796
0.010867
0.017883
-0.0066727
0.0092728
0.055834
0.10431
0.054239
0.0089539
-0.022937
0.073693
0.061255
2.4388e-05
0.011824
-0.070774
-0.069498
-0.0015702
-0.010819
-0.041753
0.0092728
0.0070404
-0.028359
0.048818
0.060936
0.043077
0.031278
-0.032504
-0.014008
0.013738
-0.005716
-0.044623
-0.10681
-0.11542
-0.056742
-0.04845
-0.11638
-0.077471
-0.032186
-0.038564
0.035423
0.020116
-0.041115
-0.044942
-0.0012513
-0.0053971
-0.0047593
0.011505
-0.054509
-0.067266
-0.058655
-0.051639
0.0057648
-0.014964
-0.025488
-0.002208
0.04531
0.091552
0.055515
-0.0076295
-0.014327
0.084217
0.061255
-0.0018891
0.0013
-0.066309
-0.06025
0.008316
-0.012094
-0.044623
0.029045
0.023305
-0.0063538
0.074649
0.089638
0.063169
0.057747
-0.0073105
0.044991
0.06572
0.023305
-0.0012513
-0.066628
-0.064714
0.0089539
0.016289
-0.082254
-0.034737
0.022348
-0.017835
0.051688
0.042758
-0.0076295
0.0025757
0.0092728
-0.010181
-0.024213
-0.019748
-0.072687
-0.096286
-0.10617
-0.093097
-0.017197
-0.047174
-0.046536
-0.0105
0.0054459
0.062531
0.025856
-0.030272
-0.032823
0.065082
0.039569
-0.0015702
0.011824
-0.064714
-0.063439
-0.019748
-0.040158
-0.03952
0.01597
0.0035324
-0.028359
0.057109
0.067633
0.038294
0.042439
-0.013689
0.047542
0.055834
0.0089539
-0.0076295
-0.064714
-0.057379
0.017246
0.014375
-0.071411
-0.015283
0.037337
-0.0031647
0.08326
0.063806
0.020754
0.033191
0.028407
0.011505
0.032553
0.037975
-0.016559
-0.041434
-0.060569
-0.047493
0.018202
-0.025488
-0.029953
0.014056
0.033191
0.082303
0.038612
-0.041434
-0.037607
0.043715
0.044991
-0.012094
-0.0060349
-0.091503
-0.083211
-0.065033
-0.071411
-0.054828
-0.01911
-0.033142
-0.036331
0.030959
0.048818
0.039888
0.017883
-0.046536
0.038294
0.045947
-0.0076295
-0.0047593
-0.058655
-0.056423
0.017883
0.018202
-0.052915
-0.0066727
0.028407
-0.01337
0.069228
0.062212
0.030959
0.02777
0.004808
-0.0018891
0.0095917
0.00098112
-0.049407
-0.083211
-0.087038
-0.048131
0.012143
-0.06312
-0.030272
0.015332
0.020435
0.071779
0.037337
-0.017516
-0.0047593
0.062531
0.026813
0.0003433
0.0131
-0.059612
-0.060569
-0.06312
-0.063758
-0.020067
-0.01337
-0.03378
-0.024213
0.036699
0.062531
0.031278
-0.0089051
-0.05132
0.069228
0.053282
-0.0076295
-0.01624
-0.086081
-0.072687
0.0079971
-0.01624
-0.053234
0.0067215
0.042121
0.0070404
0.080071
0.058066
0.04531
0.05679
0.01884
0.034786
0.053282
0.018521
-0.01911
-0.058017
-0.068222
-0.017835
0.014056
-0.073325
-0.043347
-0.0028458
-0.0089051
0.063169
0.03064
-0.036012
-0.032823
0.016927
-0.002208
-0.031548
-0.0060349
-0.085762
-0.10266
-0.095968
-0.086081
-0.035694
-0.035056
-0.040796
-0.02804
0.011505
0.052645
0.01884
-0.018153
-0.047493
0.057747
0.051688
0.0016189
-0.0044404
-0.088314
-0.075557
-0.0098618
-0.012094
-0.049407
0.0038513
0.0019378
-0.026126
0.072417
0.07433
0.054877
0.051369
-0.013051
0.030959
0.062531
0.029045
-0.009224
-0.044942
-0.04558
-0.0060349
0.036699
-0.062801
-0.039202
0.041802
0.0092728
0.07433
0.067314
0.01023
0.0003433
0.025537
2.4388e-05
-0.011456
0.0131
-0.055466
-0.066628
-0.073644
-0.068541
-0.0105
-0.01624
-0.031548
-0.011137
0.028407
0.059023
0.03638
-0.013051
-0.037926
0.051369
0.032872
-0.026126
-0.014645
-0.084168
-0.073644
-0.014964
-0.039839
-0.056423
0.0089539
-0.0031647
-0.040158
0.044991
0.057109
0.043715
0.040845
-0.023256
0.028407
0.048818
0.0092728
-0.018791
-0.080979
-0.093097
-0.024851
0.0054459
-0.080341
-0.03091
0.019159
-0.019748
0.064444
0.044353
-0.0089051
0.012781
0.035423
2.4388e-05
-0.0105
0.015651
-0.046218
-0.075876
-0.074282
-0.05419
0.021072
-0.026445
-0.023894
0.014694
0.042121
0.080709
0.042758
-0.017516
-0.01911
0.064444
0.055196
0.01023
0.027451
-0.048131
-0.040158
-0.012094
-0.029953
-0.025488
0.021391
0.010548
-0.00029452
0.072098
0.079752
0.064763
0.059661
-0.01624
0.04818
0.061893
0.020435
-0.0041214
-0.067903
-0.067903
-0.00093234
0.0016189
-0.079703
-0.023575
0.019159
-0.020067
0.052326
0.042758
-0.0025269
0.014056
0.0060837
-0.013051
0.0051269
0.0016189
-0.058974
-0.081298
-0.087676
-0.071411
-0.017835
-0.063758
-0.056742
-0.010181
0.010867
0.054877
0.037656
-0.027083
-0.036331
0.046266
0.02458
-0.023894
-0.014327
-0.099794
-0.091184
-0.051001
-0.06025
-0.045261
0.0057648
-0.015921
-0.031867
0.029045
0.037337
0.02777
0.030002
-0.044623
0.040845
0.057109
0.0057648
-0.0076295
-0.065671
-0.070136
0.018202
0.011505
-0.068541
-0.012094
0.043396
0.00066221
0.076882
0.063806
0.020435
0.027132
0.036699
0.011824
0.043396
0.03638
-0.021661
-0.058655
-0.063758
-0.031548
0.025218
-0.03952
-0.02804
0.01023
0.030002
0.089638
0.068271
-0.016559
-0.010819
0.056471
0.037975
-0.010181
0.012781
-0.066947
-0.069179
-0.052915
-0.056742
-0.026764
-0.0012513
-0.019429
-0.032186
0.028088
0.05679
0.024262
0.011186
-0.041753
0.040526
0.03638
-0.0053971
-0.005716
-0.09246
-0.088314
-0.015283
-0.026126
-0.090546
-0.032504
0.0079971
-0.035375
0.047223
0.037337
0.021391
0.022348
-0.022299
-0.0060349
0.022667
0.012462
-0.020386
-0.070136
-0.073325
-0.031867
0.0092728
-0.073006
-0.041115
0.021072
0.019478
0.075925
0.049774
-0.026445
-0.013689
0.029683
0.0095917
-0.017516
0.0003433
-0.047174
-0.054509
-0.055785
-0.048769
0.012781
0.020754
-0.0028458
0.0099106
0.06285
0.081984
0.046904
0.022029
0.0022568
0.084217
0.070822
0.0051269
-0.00093234
-0.084487
-0.081935
-0.01911
-0.053234
-0.084487
-0.016559
-0.01337
-0.037607
0.044353
0.03064
0.0099106
0.018521
-0.029634
0.0076782
0.040845
0.011505
-0.017516
-0.067266
-0.069498
-0.0063538
0.028407
-0.057698
-0.037607
0.023943
0.021072
0.096654
0.089319
0.0095917
0.014375
0.054877
0.02171
0.019478
0.048499
-0.04271
-0.067266
-0.075876
-0.043028
0.017564
-0.010181
-0.030591
-0.013689
0.022986
0.05392
0.030321
-0.025807
-0.058655
0.051688
0.032872
-0.020386
-0.014327
-0.090227
-0.073644
-0.015921
-0.03091
-0.062482
-0.0105
0.0079971
-0.028359
0.062212
0.070822
0.047223
0.041483
-0.022299
0.027451
0.041802
0.02171
-0.011775
-0.080022
-0.081935
-0.012732
0.0076782
-0.094373
-0.049088
0.013419
-0.0095429
0.055196
0.032872
-0.020386
-0.0098618
0.011505
-0.010181
-0.013689
0.0041702
-0.067585
-0.080341
-0.089908
-0.071411
0.015651
0.00098112
-0.024213
-0.0073105
0.044672
0.096973
0.057747
-0.0018891
-0.019748
0.059979
0.05392
0.013738
0.040207
-0.049726
-0.055785
-0.021024
-0.030272
-0.032823
0.0099106
0.010548
-0.020386
0.066995
0.07752
0.05105
0.049774
-0.020705
0.04531
0.048499
0.017246
-0.010181
-0.072049
-0.085762
0.0003433
0.015332
-0.085443
-0.029634
0.011824
-0.015921
0.055515
0.042121
-0.0076295
0.0092728
0.0067215
-0.005716
0.0038513
0.012462
-0.038564
-0.074601
-0.08353
-0.07779
-0.0095429
-0.055466
-0.044942
0.011505
0.02458
0.071779
0.05105
-0.012413
-0.013051
0.059661
0.036699
-0.005716
0.023624
-0.061844
-0.052596
-0.012413
-0.037926
-0.031548
0.01884
0.0054459
-0.015602
0.055515
0.075287
0.046585
0.03638
-0.024213
0.055196
0.061255
0.013738
-0.0060349
-0.075557
-0.067585
0.008316
0.0070404
-0.069817
-0.020705
0.019478
-0.012094
0.063487
0.049137
0.0057648
0.0044891
0.008316
-0.0012513
0.012143
0.004808
-0.04845
-0.074919
-0.088314
-0.07173
-0.018791
-0.075876
-0.06599
-0.005716
0.0044891
0.054239
0.012462
-0.046855
-0.034418
0.033191
0.023305
-0.021024
-0.009224
-0.081617
-0.075557
-0.040158
-0.04845
-0.018791
0.0057648
-0.014327
-0.026764
0.03638
0.076563
0.053601
0.043077
-0.014008
0.066358
0.066039
0.016289
0.028088
-0.053234
-0.059612
0.015332
0.012781
-0.040158
0.0092728
0.048818
-0.0012513
0.075606
0.075925
0.041164
0.043396
-0.00061343
0.0051269
0.038612
0.028407
-0.019429
-0.055466
-0.074282
-0.040158
0.014694
-0.062482
-0.03665
0.016289
0.019159
0.08039
0.049137
-0.009224
-0.025488
0.02777
0.0095917
-0.0066727
0.010867
-0.064077
-0.068541
-0.060887
-0.073325
-0.016878
0.0076782
-0.011775
-0.010181
0.044034
0.060936
0.030959
0.0041702
-0.032504
0.062212
0.048499
-0.010819
-0.0089051
-0.079384
-0.08353
0.00066221
-0.027402
-0.080022
-0.0076295
0.0057648
-0.019748
0.06285
0.052963
0.027132
0.03064
-0.0060349
0.017246
0.044353
0.020116
-0.019429
-0.070774
-0.095968
-0.038245
-0.0015702
-0.088633
-0.061206
-0.0105
-0.0063538
0.051688
0.040207
-0.030272
-0.025807
0.00098112
-0.014008
-0.011775
0.01597
-0.052596
-0.067585
-0.064395
-0.058974
-0.0034836
-0.0053971
-0.017835
-0.0025269
0.044353
0.082303
0.045947
0.0022568
-0.035375
0.06572
0.048499
-0.011456
-0.0018891
-0.069179
-0.064077
0.008316
-0.011456
-0.04845
0.0057648
0.019478
-0.019748
0.075925
0.08326
0.054877
0.054877
-0.0066727
0.035742
0.055515
0.020435
-0.014645
-0.072368
-0.071411
-0.0076295
0.0013
-0.094692
-0.024851
0.0099106
-0.022618
0.066358
0.037018
-0.017835
0.0038513
0.026494
-0.0050782
0.0092728
0.013419
-0.039839
-0.060569
-0.065352
-0.064714
-0.0018891
-0.0085862
-0.014327
0.0064026
0.037656
0.087087
0.058385
-0.0085862
-0.032186
0.060936
0.050731
-0.018153
-0.0076295
-0.075238
-0.074601
-0.017835
-0.021343
-0.048131
-0.010819
-0.013051
-0.03378
0.050731
0.069547
0.040526
0.033829
-0.02198
0.040526
0.053601
0.017564
-0.016878
-0.087676
-0.075557
-0.0047593
-0.0018891
-0.090546
-0.048131
-0.002208
-0.02804
0.040207
0.0060837
-0.01337
-0.0069916
0.0067215
-0.015283
-0.0098618
-0.0034836
-0.062163
-0.084487
-0.076195
-0.042072
0.028407
-0.015283
-0.010181
0.03064
0.061574
0.10144
0.066358
0.01597
0.0038513
0.06859
0.053601
0.0025757
0.016289
-0.063758
-0.049407
-0.021343
-0.053871
-0.036012
0.0054459
-0.014327
-0.034737
0.038612
0.056153
0.030321
0.028088
-0.031548
0.055196
0.059342
2.4388e-05
-0.005716
-0.075557
-0.078427
-0.012413
-0.0012513
-0.086081
-0.052915
-0.0025269
-0.0050782
0.082622
0.058066
-0.0028458
-0.0053971
-0.014327
-0.014645
-0.0044404
2.4388e-05
-0.034099
-0.066947
-0.082254
-0.058017
0.0013
-0.061525
-0.031548
0.016289
0.028407
0.076882
0.052645
-0.0047593
-0.0025269
0.059979
0.051369
0.0057648
0.02171
-0.058017
-0.051958
-0.01624
-0.035056
-0.01337
0.02171
-0.00061343
-0.002208
0.054877
0.075287
0.052963
0.037975
-0.01624
0.066358
0.057109
0.01023
0.011824
-0.050044
-0.054509
0.019159
0.0035324
-0.069179
-0.0050782
0.026813
-0.014645
0.067952
0.057747
0.026494
0.02777
0.0016189
-0.0066727
0.021391
0.011505
-0.034737
-0.075876
-0.082573
-0.048769
0.008316
-0.058017
-0.039839
0.011824
0.00098112
0.067952
0.043396
-0.028996
-0.024851
0.031278
0.0051269
-0.016878
0.0028946
-0.078109
-0.074919
-0.060887
-0.06886
-0.021024
-0.010181
-0.036331
-0.024851
0.042121
0.077838
0.040526
0.0070404
-0.029953
0.058385
0.052326
0.0025757
0.012143
-0.058655
-0.054828
0.0073593
-0.014008
-0.065352
-0.009224
0.020116
-0.012094
0.070185
0.064444
0.043396
0.050731
0.0070404
0.02171
0.03925
0.025856
-0.021661
-0.068541
-0.085125
-0.027083
0.032872
-0.053871
-0.028678
0.013419
0.023624
0.077838
0.044353
-0.023894
-0.0098618
0.043077
0.023305
-0.0025269
0.015651
-0.057061
-0.060887
-0.058017
-0.067585
-0.022618
-0.011775
-0.02804
-0.014645
0.041164
0.082622
0.034467
-0.0098618
-0.041115
0.068271
0.050731
-0.010819
-0.005716
-0.080341
-0.064395
0.0038513
-0.020386
-0.061525
-0.0076295
0.012781
-0.036331
0.045629
0.040526
0.019159
0.023943
-0.036012
-0.0085862
0.015651
0.00066221
-0.021024
-0.078109
-0.092141
-0.04271
0.0076782
-0.081617
-0.029634
0.03351
0.0089539
0.073693
0.053282
-0.0041214
0.010548
0.036699
0.020754
0.011186
0.030321
-0.050682
-0.066628
-0.06312
-0.049088
0.015013
-0.010181
-0.018472
0.017246
0.061255
0.089957
0.048499
0.0051269
-0.034099
0.081346
0.054239
0.0044891
0.0076782
-0.065033
-0.046218
-0.0047593
-0.038883
-0.065671
-0.0105
0.0003433
-0.031867
0.052963
0.063806
0.047223
0.043396
-0.018472
0.022986
0.047542
0.020116
-0.0015702
-0.078109
-0.083211
-0.0073105
0.011505
-0.083849
-0.049088
0.0067215
-0.017835
0.057109
0.032234
-0.021661
-0.0050782
0.0035324
-0.018791
-0.018791
-0.0063538
-0.064077
-0.072049
-0.076833
-0.063439
0.0013
-0.032823
-0.041115
-0.014964
0.014694
0.06859
0.037018
-0.02198
-0.024213
0.057428
0.036699
-0.012732
-0.00093234
-0.087038
-0.070136
-0.020705
-0.034099
-0.037607
0.018202
0.024899
0.0028946
0.066677
0.075287
0.046266
0.041164
-0.023575
0.039888
0.038612
0.0067215
-0.013051
-0.067903
-0.088314
-0.017516
-0.0079484
-0.097881
-0.043985
0.0051269
-0.023575
0.045629
0.039569
0.0003433
0.0057648
0.0067215
-0.0018891
0.011824
0.015332
-0.043347
-0.063758
-0.066947
-0.049088
0.011824
-0.04271
-0.040158
0.013419
0.046585
0.10239
0.049137
-0.023575
-0.020386
0.073693
0.050731
0.0095917
0.014694
-0.071093
-0.062482
-0.033142
-0.041115
-0.027721
0.0079971
-0.015283
-0.040477
0.049455
0.064125
0.047861
0.022348
-0.055785
0.031596
0.044353
-0.012094
-0.034418
-0.10553
-0.096605
-0.022299
-0.033461
-0.10139
-0.036331
0.00066221
-0.039202
0.034148
0.035423
0.0067215
0.0041702
-0.00093234
-0.0015702
0.010867
0.0060837
-0.029634
-0.059931
-0.069498
-0.041434
0.012143
-0.047174
-0.019748
0.021391
0.032553
0.085811
0.051369
-0.015921
0.0028946
0.071779
0.044991
0.01023
0.020116
-0.064714
-0.060887
-0.043985
-0.048131
-0.022618
0.0019378
-0.015921
-0.022937
0.036061
0.062531
0.034148
0.008316
-0.038245
0.059979
0.05679
0.0016189
-0.0018891
-0.06599
-0.052915
0.010548
-0.015921
-0.071411
-0.020067
0.028726
-0.014645
0.056153
0.044034
0.0019378
0.011186
-0.017516
-0.0044404
0.018202
-0.002208
-0.042072
-0.087676
-0.11415
-0.047174
0.0044891
-0.080022
-0.053234
0.008316
0.011186
0.065082
0.037656
-0.0085862
-0.011456
0.034786
0.021391
0.0095917
0.020116
-0.051639
-0.060887
-0.059612
-0.06599
-0.01624
-0.0105
-0.013051
0.0041702
0.05105
0.072736
0.037656
0.0019378
-0.041434
0.058385
0.048499
-0.0060349
-0.0015702
-0.08066
-0.081298
-0.011456
-0.019748
-0.061525
-0.0053971
0.014694
-0.026764
0.062212
0.060617
0.021072
0.030959
-0.012413
0.011824
0.040207
0.015013
-0.024851
-0.068222
-0.06599
-0.0085862
0.018202
-0.072368
-0.022937
0.028407
0.02777
0.096016
0.067314
-0.01337
0.012781
0.057747
0.030002
0.031915
0.034786
-0.036012
-0.044304
-0.053871
-0.060887
-0.019748
-0.015283
-0.042072
-0.026445
0.026494
0.055515
0.044672
0.00098112
-0.047174
0.054877
0.035104
-0.015283
-0.0063538
-0.088314
-0.073644
-0.0031647
-0.028996
-0.057379
0.013738
0.019797
-0.022618
0.050093
0.058704
0.030002
0.016289
-0.046855
-0.0041214
0.021391
-0.013051
-0.040477
-0.088314
-0.088633
-0.019429
2.4388e-05
-0.10458
-0.067585
-0.00029452
-0.012094
0.067952
0.053282
2.4388e-05
0.020116
0.030002
0.0092728
0.026175
0.033191
-0.026445
-0.061525
-0.073644
-0.046218
0.023943
-0.002208
-0.018791
0.0070404
0.022029
0.070185
0.040526
-0.021024
-0.040477
0.06859
0.054877
-0.009224
0.00066221
-0.080979
-0.087676
-0.031548
-0.015602
-0.041115
0.011186
0.010548
-0.026126
0.043715
0.065401
0.043715
0.038612
-0.03091
0.028726
0.048499
0.012462
-0.014008
-0.076833
-0.086719
-0.014645
-0.0063538
-0.1049
-0.043347
0.0032135
-0.019748
0.057109
0.029364
-0.037607
-0.0044404
0.020435
-0.017516
-0.0038025
-0.002208
-0.055147
-0.081298
-0.086081
-0.05419
0.0051269
-0.027721
-0.03378
0.0022568
0.023943
0.074012
0.044353
-0.0028458
-0.013051
0.060617
0.03351
-0.017197
-0.0044404
-0.080341
-0.058655
-0.015921
-0.048131
-0.045261
0.0057648
0.010867
-0.005716
0.070503
0.079752
0.05105
0.044034
-0.0095429
0.060298
0.074649
0.01884
0.004808
-0.055785
-0.053552
0.015013
0.0092728
-0.073006
-0.046218
0.0016189
-0.020705
0.073055
0.044353
-0.0073105
2.4388e-05
0.0032135
-0.0069916
0.0035324
-0.0066727
-0.052915
-0.088633
-0.091822
-0.058017
0.0041702
-0.057061
-0.04845
-0.0105
0.0076782
0.055196
0.040526
-0.027402
-0.045261
0.05105
0.035423
-0.0066727
0.0057648
-0.071093
-0.061844
-0.046855
-0.047812
-0.014964
0.0054459
0.0019378
-0.012094
0.051369
0.078476
0.059342
0.028407
-0.033461
0.055196
0.060936
0.0051269
-0.0063538
-0.074282
-0.066309
0.0073593
-0.0038025
-0.072687
-0.021024
0.015013
-0.021661
0.052326
0.049774
0.01597
0.022029
-0.0034836
0.0032135
0.022029
0.010548
-0.032823
-0.064714
-0.074282
-0.028359
0.010548
-0.049726
-0.029953
0.022348
0.013419
0.057747
0.054239
-0.017197
-0.018791
0.060936
0.034786
0.0041702
0.032234
-0.053871
-0.074601
-0.048131
-0.056104
-0.011775
0.015013
-0.023575
-0.012413
0.040845
0.086768
0.059342
0.01023
-0.032186
0.072098
0.050412
-0.0095429
-0.024213
-0.087357
-0.08927
-0.017516
-0.031548
-0.083211
-0.029315
-0.009224
-0.036969
0.044353
0.035742
0.0079971
0.0032135
-0.034737
-0.0095429
0.019159
0.0095917
-0.028996
-0.074601
-0.084487
-0.038564
0.012143
-0.078109
-0.032823
0.030959
0.017246
0.072098
0.054558
-0.013689
-0.0063538
0.03925
0.016608
-0.0044404
0.022029
-0.051639
-0.052596
-0.051001
-0.050682
0.0070404
0.0092728
-0.012413
-0.00093234
0.04818
0.075925
0.038294
-0.0085862
-0.049407
0.049137
0.046266
-0.016559
-0.0105
-0.084168
-0.06312
-0.0018891
-0.039202
-0.083849
-0.017197
0.019478
-0.0018891
0.078476
0.077838
0.060617
0.061255
0.004808
0.053601
0.069547
0.045629
0.0025757
-0.055147
-0.055466
-0.0031647
0.015332
-0.088633
-0.041434
0.026494
-0.0044404
0.067314
0.035742
-0.015283
-0.0038025
0.023943
0.0067215
0.0028946
0.0095917
-0.061206
-0.085443
-0.075238
-0.066628
-0.0047593
-0.03091
-0.046218
-0.023256
0.013419
0.068271
0.038931
-0.011775
-0.029634
0.05392
0.031278
-0.026445
0.0076782
-0.062482
-0.05132
0.0013
-0.016559
-0.047493
0.0016189
0.011824
-0.018472
0.062531
0.076244
0.052963
0.06285
-0.013051
0.038612
0.052645
0.0073593
-0.012732
-0.070774
-0.055466
0.022348
0.028407
-0.063758
-0.012413
0.037337
0.0038513
0.086768
0.069866
0.0092728
0.026813
0.02458
0.008635
0.027132
0.02458
-0.04271
-0.06025
-0.065033
-0.057698
0.011505
-0.039202
-0.038564
-0.0073105
0.01023
0.055834
0.025218
-0.031867
-0.01337
0.065082
0.034148
-0.022299
-0.013689
-0.09533
-0.08066
-0.037288
-0.062801
-0.080341
-0.029634
-0.030591
-0.049088
0.030321
0.038294
0.023305
0.0041702
-0.068222
0.0028946
0.017564
-0.01911
-0.02198
-0.083849
-0.081298
-0.0041214
-0.012094
-0.081617
-0.014964
0.029364
-0.014964
0.067314
0.060298
0.02171
0.019797
0.019159
0.010867
0.042121
0.044353
-0.014645
-0.049088
-0.042391
-0.015921
0.052326
-0.0025269
-0.0031647
0.042439
0.069547
0.10399
0.07433
0.012143
0.012781
0.080709
0.052645
0.0028946
0.014694
-0.071093
-0.08066
-0.047493
-0.048131
-0.037607
-0.010181
-0.025807
-0.032823
0.03925
0.063806
0.030002
0.025218
-0.058974
0.014694
0.045629
-0.01337
-0.041434
-0.094054
-0.087995
-0.014327
-0.015921
-0.094692
-0.050363
0.0032135
-0.040477
0.040207
0.044034
0.012143
0.019159
0.0013
0.0016189
0.025218
0.030959
-0.026445
-0.081298
-0.084806
-0.02517
0.032553
-0.055785
-0.04558
0.0070404
0.026494
0.090276
0.058066
-0.028996
-0.031867
0.057109
0.045629
0.019159
0.03351
-0.040796
-0.047493
-0.03091
-0.038883
2.4388e-05
0.03351
0.016289
0.012462
0.057747
0.08613
0.055515
0.029683
-0.031867
0.051688
0.043077
-0.022618
-0.017835
-0.092778
-0.079703
-0.0063538
-0.038245
-0.10777
-0.051958
-0.0025269
-0.042072
0.034786
0.040207
0.020116
0.028407
-0.009224
-0.00061343
0.020754
0.00066221
-0.036012
-0.069498
-0.07173
-0.026126
0.01597
-0.079703
-0.035375
0.030959
0.014375
0.07433
0.052007
-0.015283
0.015013
0.066039
0.038294
0.013738
0.044034
-0.024213
-0.026126
-0.03091
-0.036969
0.017246
0.022029
-0.005716
0.00098112
0.04531
0.079114
0.044034
0.0003433
-0.035694
0.048499
0.047542
-0.018791
-0.024851
-0.097562
-0.077471
-0.010819
-0.027083
-0.073006
-0.0053971
0.012462
-0.024851
0.061574
0.060617
0.032553
0.048818
-0.00093234
0.0092728
0.017246
2.4388e-05
-0.022937
-0.077152
-0.081617
-0.030272
-0.0085862
-0.098519
-0.051639
0.012143
-0.0047593
0.06285
0.040845
-0.019748
0.0016189
0.038294
0.01597
0.0067215
0.023305
-0.049088
-0.049088
-0.067585
-0.058655
-0.0050782
-0.014327
-0.023575
-0.0015702
0.032872
0.075287
0.039888
-0.0044404
-0.028996
0.069866
0.047223
-0.010181
0.010548
-0.059612
-0.061844
0.00098112
-0.017835
-0.031229
0.014694
0.024262
-0.021024
0.050412
0.071779
0.05105
0.037656
-0.02804
0.018202
0.021072
-0.00029452
-0.021343
-0.081298
-0.081298
-0.025488
-0.0089051
-0.090546
-0.04271
0.0095917
0.0003433
0.070503
0.049137
-0.00093234
0.016608
0.037975
0.0057648
0.0022568
0.019159
-0.035694
-0.056423
-0.063758
-0.056742
0.017564
-0.014645
-0.037607
0.0089539
0.044353
0.086768
0.052007
-0.00061343
-0.016559
0.073055
0.054558
0.015332
0.029045
-0.056742
-0.054509
-0.017835
-0.043985
-0.050363
-0.0095429
-0.025488
-0.049088
0.023624
0.027451
0.0032135
0.0064026
-0.056423
-0.0095429
0.01023
-0.024851
-0.046218
-0.10011
-0.09246
-0.012094
0.0073593
-0.078427
-0.030272
0.023624
-0.0034836
0.070822
0.058066
0.0003433
-0.00061343
0.01023
-0.014008
-0.002208
0.020754
-0.044304
-0.064714
-0.081298
-0.072049
0.0003433
-0.051001
-0.04845
0.019478
0.034786
0.079114
0.049774
-0.017835
-0.023256
0.066358
0.042439
-0.0085862
0.012781
-0.060887
-0.050682
-0.028678
-0.049407
-0.032504
0.022348
0.0095917
-0.013689
0.065082
0.075925
0.058066
0.037656
-0.02804
0.051688
0.061574
-0.00029452
-0.0028458
-0.059293
-0.071411
-0.0089051
-0.022618
-0.094692
-0.034099
0.024899
-0.013689
0.065401
0.046585
-0.00029452
0.01023
-0.012413
-0.013689
0.0032135
0.0060837
-0.03952
-0.08066
-0.092141
-0.059931
0.0028946
-0.070774
-0.058336
-0.014327
-0.0076295
0.07752
0.038294
-0.033461
-0.026764
0.061574
0.049455
0.008635
0.0032135
-0.061206
-0.053234
-0.026126
-0.042391
-0.0041214
0.024899
0.0064026
-0.00029452
0.059342
0.078476
0.048499
0.025218
-0.033142
0.056153
0.055515
-0.002208
-0.0047593
-0.070455
-0.072049
0.00098112
-0.015921
-0.079703
-0.01911
0.014694
-0.018791
0.067314
0.052326
0.021391
0.034786
0.00098112
2.4388e-05
0.022029
0.010867
-0.023575
-0.066947
-0.082254
-0.038245
0.0070404
-0.070455
-0.038245
0.013738
-0.0018891
0.051369
0.022986
-0.034418
-0.030272
0.012781
-0.010819
-0.043028
-0.01624
-0.090865
-0.099476
-0.085125
-0.091184
-0.036969
-0.014645
-0.033461
-0.046536
0.0057648
0.067633
0.040526
0.012781
-0.043347
0.04531
0.037975
-0.012413
-0.0066727
-0.073963
-0.057379
0.010867
-0.015602
-0.061525
-0.0098618
0.013419
-0.020386
0.059023
0.059023
0.03351
0.03638
-0.0028458
0.022029
0.052963
0.028726
-0.02198
-0.061844
-0.059612
-0.0041214
0.031278
-0.055466
-0.018153
0.041164
0.043715
0.10208
0.078476
0.020116
0.044034
0.074649
0.043396
0.028407
0.043077
-0.03378
-0.043028
-0.045899
-0.054509
0.0054459
0.0032135
-0.019429
-0.016878
0.031596
0.07433
0.038612
-0.0031647
-0.044623
0.045629
0.032553
-0.0031647
0.0095917
-0.060569
-0.05419
-0.00029452
-0.010181
-0.035056
0.022348
0.050093
0.0073593
0.075287
0.059979
0.042121
0.061893
-0.0031647
0.022348
0.039569
-0.0060349
-0.037288
-0.10809
-0.11064
-0.02804
-0.018791
-0.12467
-0.07173
-0.012413
-0.032186
0.03638
0.028088
-0.022618
-0.01911
0.011824
-0.0082673
-0.0047593
0.0089539
-0.071411
-0.083849
-0.084806
-0.072049
-0.0050782
-0.0076295
-0.020067
0.010548
0.02171
0.081346
0.058066
0.0041702
-0.0028458
0.096335
0.074012
0.01884
0.038612
-0.040158
-0.037926
0.02171
0.008316
-0.0069916
0.038612
0.024262
-0.012094
0.061574
0.063806
0.03925
0.034467
-0.041115
0.017246
0.031278
-0.01911
-0.04558
-0.10426
-0.10298
-0.032823
-0.010181
-0.10362
-0.036969
0.023624
-0.0069916
0.056153
0.055834
0.018521
0.024262
0.03064
0.01597
0.016289
0.02458
-0.026445
-0.051639
-0.075557
-0.059293
0.0035324
-0.043028
-0.044942
-0.0089051
0.026494
0.069547
0.03351
-0.020386
-0.027083
0.066995
0.044034
0.0035324
0.032234
-0.060569
-0.061844
-0.010819
-0.017516
-0.025488
0.026813
0.021072
-0.0041214
0.065082
0.096335
0.049774
0.028088
-0.039202
0.02171
0.038294
-0.0085862
-0.026764
-0.10011
-0.097562
-0.01337
0.00098112
-0.087357
-0.040158
0.0073593
-0.029315
0.067952
0.068909
0.030002
0.042121
0.029683
0.0064026
0.035742
0.020435
-0.034418
-0.06312
-0.078109
-0.052596
-0.0089051
-0.053234
-0.045899
-0.011456
-0.0031647
0.049137
0.025856
-0.049088
-0.035056
0.050412
0.032553
0.013738
0.012143
-0.065352
-0.053234
-0.03665
-0.045261
-0.0089051
0.030959
0.010548
-0.0034836
0.05679
0.075606
0.036699
0.026175
-0.036331
0.04818
0.059342
2.4388e-05
-0.010819
-0.076195
-0.06886
-0.0015702
-0.0034836
-0.073006
-0.020386
0.022667
-0.017197
0.073055
0.066039
0.03064
0.028407
0.0051269
0.008316
0.032234
0.011505
-0.042072
-0.088633
-0.10075
-0.043985
0.008635
-0.06312
-0.040477
-0.0044404
0.0051269
0.068271
0.050093
-0.014008
-0.015921
0.05679
0.046266
0.015332
0.032553
-0.033142
-0.032504
-0.025807
-0.027721
0.01597
0.028407
0.0099106
0.0073593
0.042439
0.074012
0.042121
0.012781
-0.038245
0.056471
0.056471
-0.011456
-0.0041214
-0.092778
-0.080979
-0.0018891
-0.013689
-0.076514
-0.012732
0.020435
-0.035056
0.057747
0.058066
0.022029
0.027451
-0.0085862
0.0038513
0.028088
-0.002208
-0.041753
-0.0864
-0.081935
-0.023894
0.0067215
-0.066628
-0.039202
0.010548
0.022348
0.09506
0.070185
0.0057648
0.012143
0.058385
0.038612
0.015332
0.027132
-0.050363
-0.058017
-0.040158
-0.049088
-0.005716
-0.0044404
-0.032823
-0.028996
0.020116
0.071779
0.021391
-0.026126
-0.051001
0.058066
0.042121
-0.01624
-0.0063538
-0.080979
-0.065033
-0.0098618
-0.032823
-0.071411
-0.0041214
0.010548
-0.018791
0.040207
0.047861
0.030002
0.020116
-0.036331
-0.0085862
0.026494
-0.015921
-0.049726
-0.10075
-0.096605
-0.030591
-0.014645
-0.091503
-0.036012
0.014694
-0.0047593
0.052326
0.038612
-0.016559
-0.0025269
0.033191
0.013738
0.00098112
0.038612
-0.035375
-0.052596
-0.074919
-0.066309
0.0067215
-0.010181
-0.021343
0.0003433
0.038931
0.07433
0.044353
-0.0031647
-0.032186
0.055834
0.048499
-0.0025269
0.0076782
-0.093097
-0.085125
-0.013051
-0.02517
-0.043666
0.0131
0.014056
-0.022299
0.050731
0.057109
0.027132
0.030959
-0.024532
0.017564
0.041164
0.018202
-0.014645
-0.06599
-0.063758
0.011824
0.025218
-0.067266
-0.018791
0.041164
0.027132
0.10144
0.073374
0.018521
0.040845
0.06859
0.034148
0.032553
0.037975
-0.029953
-0.043347
-0.059612
-0.055785
0.017883
-0.020067
-0.024851
0.01884
0.057747
0.099843
0.05105
-0.025488
-0.015283
0.06859
0.03925
-0.011775
-0.0044404
-0.097243
-0.08353
-0.030591
-0.05419
-0.069498
-0.018791
-0.032823
-0.046536
0.039569
0.038612
0.019159
0.0089539
-0.049407
0.028726
0.039569
0.0016189
-0.0095429
-0.076833
-0.087995
-0.00029452
0.0057648
-0.091503
-0.03952
0.012781
-0.017835
0.056471
0.049774
0.0013
0.0070404
0.0099106
2.4388e-05
0.011824
0.013738
-0.044304
-0.065352
-0.073325
-0.050363
0.016608
-0.037288
-0.033461
0.0041702
0.03351
0.093784
0.057747
-0.011775
-0.025807
0.067952
0.046585
-0.0095429
0.029364
-0.051001
-0.046855
-0.017516
-0.031229
-0.036331
0.0038513
0.011505
-0.0079484
0.05679
0.072736
0.03351
0.028407
-0.022299
0.052326
0.046904
-0.0060349
-0.020067
-0.088633
-0.092778
-0.014327
-0.012094
-0.063758
-0.015921
0.0003433
-0.043347
0.05105
0.050093
0.008635
0.014694
-0.013689
-0.0098618
0.0092728
0.0035324
-0.051001
-0.077152
-0.087995
-0.046855
0.008316
-0.062163
-0.050044
0.0044891
0.010867
0.081665
0.052007
-0.019748
-0.020705
0.053282
0.034467
-0.0073105
0.0079971
-0.060569
-0.063439
-0.048769
-0.066947
-0.025807
-0.005716
-0.028996
-0.022937
0.032553
0.061574
0.023943
0.0079971
-0.038245
0.053601
0.043715
-0.0085862
-0.0076295
-0.084168
-0.076514
-0.0041214
-0.0066727
-0.069179
-0.020067
0.017564
-0.023894
0.055515
0.045629
0.014694
0.023943
0.0028946
0.012462
0.03064
0.0067215
-0.037926
-0.072368
-0.085443
-0.034737
0.019797
-0.069179
-0.022937
0.027132
0.02777
0.083579
0.061574
-0.002208
-0.011775
0.050093
0.034467
0.0044891
0.023624
-0.047812
-0.050044
-0.054509
-0.059293
-0.015283
-0.014964
-0.023894
-0.012413
0.026494
0.073055
0.040526
0.0032135
-0.036969
0.053282
0.055834
-0.0079484
-0.011137
-0.08066
-0.067585
-0.0079484
-0.022618
-0.066628
0.0038513
0.01884
-0.038883
0.064763
0.07146
0.026494
0.01023
-0.012413
0.015651
0.041164
0.0076782
-0.02804
-0.069179
-0.075238
-0.015602
0.01597
-0.075557
-0.039839
0.00098112
-0.0018891
0.06285
0.041802
-0.015602
-0.009224
0.028088
0.015651
0.0038513
0.022986
-0.03665
-0.06312
-0.064077
-0.041753
0.023624
0.0019378
-0.00061343
0.035742
0.08326
0.11451
0.08326
0.037018
0.0041702
0.098886
0.093784
0.033829
0.043396
-0.041753
-0.039202
0.0073593
-0.0031647
-0.042072
0.019159
0.019478
-0.027083
0.047542
0.052326
0.027132
0.029364
-0.039839
0.0073593
0.023943
-0.012094
-0.03952
-0.10298
-0.10426
-0.035056
-0.014008
-0.10617
-0.072687
-0.012094
-0.025488
0.052007
0.02458
-0.03952
-0.036969
0.0051269
-0.016878
-0.01911
-0.0018891
-0.062163
-0.081298
-0.079384
-0.074919
-0.018791
-0.027721
-0.036969
-0.0038025
0.03638
0.10654
0.062531
-0.0066727
-0.017197
0.079114
0.052326
-0.0031647
0.010867
-0.070455
-0.053871
0.0013
-0.033461
-0.040477
0.011186
0.0028946
-0.020386
0.062212
0.077838
0.042439
0.03064
-0.029315
0.04531
0.066677
0.017564
-0.0098618
-0.065352
-0.054828
0.020754
0.024262
-0.066947
-0.028678
0.020754
-0.0034836
0.067633
0.065082
0.0070404
0.0073593
0.018521
0.0095917
0.0041702
0.010548
-0.042072
-0.068222
-0.070136
-0.058974
0.0067215
-0.053234
-0.032186
0.024899
0.040845
0.078157
0.036699
-0.026126
-0.02804
0.053601
0.031596
-0.024532
-0.01911
-0.091503
-0.08927
-0.039202
-0.058336
-0.050682
-0.016559
-0.032504
-0.045261
0.029045
0.057747
0.033191
0.025856
-0.03091
0.037656
0.039569
0.0038513
-0.010819
-0.09533
-0.082573
-0.015602
-0.025807
-0.092141
-0.022618
0.013419
-0.036331
0.032234
0.021391
-0.020067
-0.00093234
-0.010181
-0.020386
-0.00061343
-0.00061343
-0.044623
-0.074282
-0.070774
-0.045899
0.0016189
-0.043985
-0.01624
0.025856
0.044034
0.093146
0.068271
0.022348
0.016608
0.096335
0.068909
0.035104
0.050412
-0.032504
-0.041753
-0.022937
-0.02804
0.0019378
0.029045
-0.0060349
-0.024851
0.056153
0.078476
0.044034
0.011186
-0.044623
0.040845
0.03925
-0.011775
-0.022937
-0.093416
-0.08066
0.0025757
-0.011775
-0.08066
-0.023256
0.0025757
-0.044623
0.046904
0.026494
-0.0015702
-0.00029452
-0.023575
-0.02198
-0.0047593
-0.0060349
-0.058974
-0.10394
-0.097881
-0.061525
-0.005716
-0.081298
-0.062163
-0.0076295
0.0044891
0.066677
0.047542
-0.014008
-0.020386
0.038612
0.022348
-0.0012513
0.017564
-0.03665
-0.048769
-0.044942
-0.051001
-0.014008
0.0067215
0.010867
0.010867
0.057109
0.08613
0.052963
0.017883
-0.014964
0.088362
0.064444
-0.026126
-0.0050782
-0.05132
-0.056742
0.0044891
0.0016189
-0.047174
0.0019378
0.028726
-0.011137
0.072098
0.064125
0.044991
0.060617
0.014694
0.023305
0.035742
0.022986
-0.017197
-0.070136
-0.075876
-0.032823
-0.0095429
-0.10011
-0.054509
0.008635
-0.012094
0.07146
0.042439
-0.014008
-0.017516
0.031596
0.0022568
-0.0015702
0.023943
-0.040158
-0.040477
-0.042072
-0.037926
0.014694
0.010548
-0.0095429
0.0003433
0.046585
0.083898
0.050412
-0.0069916
-0.034099
0.065401
0.037337
-0.032186
-0.02804
-0.10872
-0.10585
-0.024213
-0.039202
-0.084806
-0.020067
-0.0015702
-0.040158
0.03925
0.050731
0.03351
0.029683
-0.014327
0.028726
0.040526
0.022986
-0.0031647
-0.061206
-0.055466
-0.0066727
0.028407
-0.084168
-0.038883
0.023305
0.0060837
0.071779
0.038612
-0.019429
-0.026126
0.0028946
0.00098112
-0.0012513
0.0067215
-0.067903
-0.080022
-0.071093
-0.074601
-0.012732
-0.028678
-0.027402
0.00098112
0.044991
0.096335
0.06285
0.01023
-0.0085862
0.090914
0.07146
0.0092728
0.025218
-0.047493
-0.042391
-0.0053971
-0.02517
-0.037288
0.00066221
0.0070404
-0.025807
0.052645
0.049455
0.020116
0.016289
-0.040477
0.020435
0.022986
-0.012413
-0.029953
-0.083849
-0.080341
-0.002208
0.0057648
-0.086719
-0.024532
0.026813
-0.0034836
0.072417
0.060617
-0.00061343
0.0095917
0.012781
-0.002208
-0.0076295
-0.00029452
-0.052915
-0.071093
-0.080022
-0.070136
-0.014964
-0.064077
-0.053234
-0.021343
0.0035324
0.065082
0.038612
-0.018791
-0.025488
0.058385
0.045947
-0.0044404
0.02458
-0.054828
-0.070774
-0.047174
-0.043347
-0.03952
0.019478
-0.0050782
-0.024213
0.05392
0.069866
0.030959
0.027132
-0.04271
0.019159
0.036061
-0.00061343
-0.015602
-0.074601
-0.073644
-0.0015702
0.01023
-0.063439
-0.0066727
0.03638
-0.0015702
0.080071
0.068271
0.030002
0.046266
0.044991
0.040207
0.049455
0.041164
-0.011775
-0.040796
-0.055466
-0.036331
0.025856
-0.039202
-0.038883
0.01597
0.043715
0.084536
0.030321
-0.03091
-0.03665
0.041483
0.013419
-0.021024
-0.0028458
-0.080979
-0.087676
-0.050044
-0.072049
-0.046536
-0.010819
-0.027083
-0.052915
0.028407
0.065401
0.028407
0.0032135
-0.044623
0.040526
0.030002
-0.017516
-0.015921
-0.095011
-0.081617
-0.0076295
-0.0098618
-0.083849
-0.023894
0.0079971
-0.016559
0.066358
0.044353
0.020435
0.035742
0.0013
2.4388e-05
0.023624
0.014694
-0.024532
-0.062163
-0.070136
-0.036331
0.0016189
-0.057379
-0.037926
0.016927
0.015332
0.073693
0.050412
-0.01337
-0.013689
0.055834
0.030959
-0.010181
0.0070404
-0.055785
-0.052915
-0.039202
-0.039202
-0.016878
0.012462
0.0025757
-0.00029452
0.051688
0.07752
0.051688
0.018202
-0.027402
0.079433
0.062212
0.0054459
0.0076782
-0.058017
-0.051639
0.0099106
0.0076782
-0.056742
0.0041702
0.022348
-0.021661
0.052326
0.070822
0.046266
0.046904
0.0051269
0.018521
0.027451
0.015013
-0.026764
-0.075557
-0.093735
-0.055466
-0.0034836
-0.10458
-0.066628
-0.012413
-0.012732
0.066358
0.025856
-0.06025
-0.058336
0.0070404
-0.01911
-0.034418
-0.016878
-0.070774
-0.067266
-0.061525
-0.077152
-0.022618
-0.022937
-0.042072
-0.034418
0.012462
0.05679
0.028088
-0.022299
-0.058336
0.064125
0.047223
-0.011137
-0.0073105
-0.085762
-0.084168
-0.018153
-0.024532
-0.057698
0.0060837
0.030002
2.4388e-05
0.080709
0.081984
0.052326
0.050412
0.0041702
0.046904
0.062212
0.035742
0.022348
