-0.063439
-0.071093
0.0051269
0.010548
-0.082254
-0.017835
0.011505
-0.017197
0.063806
0.040845
0.0089539
0.01023
0.011824
-0.0073105
-0.0034836
0.0041702
-0.044623
-0.069179
-0.08353
-0.056742
-0.005716
-0.064714
-0.058974
-0.002208
0.022029
0.063487
0.025856
-0.029634
-0.032504
0.052326
0.015013
-0.020386
-0.00029452
-0.069179
-0.058017
-0.04845
-0.043347
-0.049088
-0.0031647
-0.0031647
-0.026126
0.052645
0.060936
0.037975
0.032553
-0.0069916
0.061255
0.052007
0.0070404
0.0016189
-0.046855
-0.049407
0.016927
0.0089539
-0.072368
-0.0079484
0.021072
-0.0041214
0.075287
0.059023
0.0099106
0.015013
0.032234
0.0092728
-0.0082673
0.012462
-0.04558
-0.057379
-0.069817
-0.07173
-0.024851
-0.055147
-0.040796
-0.022618
0.0079971
0.056471
0.022348
-0.034737
-0.047493
0.043396
0.020435
-0.021024
-0.00061343
-0.074919
-0.067585
-0.022299
-0.025488
-0.055785
0.011186
0.011186
-0.025488
0.056471
0.057109
0.038612
0.031278
-0.026126
0.018521
0.026494
0.00098112
-0.026764
-0.082892
-0.084806
-0.027721
-0.027083
-0.11191
-0.055147
-0.015283
-0.033142
0.037018
0.023305
-0.01911
-0.018791
0.023624
-0.032823
-0.019748
0.0041702
-0.052277
-0.052277
-0.059612
-0.061844
-0.02198
-0.023894
-0.0044404
-0.00029452
0.03925
0.084217
0.052326
0.0054459
-0.013051
0.084854
0.052645
-0.0098618
0.0051269
-0.058974
-0.054828
-0.00029452
-0.010819
-0.075876
-0.0085862
-0.0044404
-0.047493
0.030321
0.018202
0.011186
0.0044891
-0.033142
-0.012413
-0.0063538
-0.016878
-0.056742
-0.094054
-0.099794
-0.039202
-0.012094
-0.092141
-0.043347
0.0013
0.00098112
0.063806
0.038612
-0.013689
-0.010819
0.044034
0.0095917
-0.010819
0.016289
-0.04271
-0.055466
-0.067585
-0.056104
-0.020705
-0.0069916
-0.0044404
-0.00061343
0.050412
0.06859
0.029683
0.0070404
-0.015283
0.076244
0.040845
0.0003433
0.012143
-0.069817
-0.068541
0.0064026
0.0092728
-0.074282
-0.011456
0.0028946
-0.035694
0.056471
0.046904
0.028726
0.023624
-0.0018891
-0.0079484
-0.00061343
-0.0031647
-0.040796
-0.076833
-0.087676
-0.047812
-0.012413
-0.088314
-0.054509
-0.0089051
-0.0047593
0.054239
0.030959
-0.030591
-0.03091
0.04818
0.010867
-0.024213
-0.0079484
-0.073963
-0.064714
-0.060569
-0.066947
-0.055466
-0.013051
-0.026764
-0.052915
0.016289
0.040845
0.014056
-0.0028458
-0.042391
0.029683
0.0028946
-0.032186
-0.026445
-0.094054
-0.091503
-0.02517
-0.025807
-0.10809
-0.028996
-0.0095429
-0.035056
0.051369
0.035423
-0.0028458
-0.0076295
0.0060837
-0.010819
0.0013
0.010548
-0.024213
-0.052596
-0.07173
-0.039839
0.0003433
-0.053871
-0.047174
0.0099106
0.03638
0.070822
0.040207
-0.019748
-0.021661
0.061255
0.027451
-0.010819
0.0095917
-0.063439
-0.058017
-0.033142
-0.038564
-0.046536
0.012143
0.0095917
-0.021661
0.049774
0.059342
0.036699
0.026494
-0.016559
0.047542
0.039569
0.0013
-0.017516
-0.078746
-0.076514
-0.0015702
0.0054459
-0.088633
-0.026445
0.016927
-0.012094
0.063487
0.04531
0.0089539
0.013738
0.034786
0.0016189
0.0057648
0.017564
-0.031548
-0.049088
-0.067903
-0.052596
-0.014327
-0.049088
-0.032504
-0.011456
0.03064
0.067633
0.029683
-0.02804
-0.032823
0.062212
0.024899
-0.0098618
0.008316
-0.063439
-0.062801
-0.0079484
-0.015921
-0.057698
0.004808
0.01884
-0.013051
0.064763
0.069547
0.055515
0.049137
0.0051269
0.036699
0.043396
0.0025757
-0.014964
-0.054509
-0.056742
-0.0018891
0.0044891
-0.075557
-0.026126
0.014694
-0.0050782
0.066358
0.052645
0.0003433
-0.0015702
0.037656
0.0073593
0.0076782
0.019478
-0.036012
-0.039202
-0.042072
-0.034418
0.0028946
-0.0034836
0.0028946
0.015013
0.054239
0.093146
0.052326
0.0060837
-0.012094
0.081984
0.052963
0.013419
0.014056
-0.072049
-0.070774
-0.011137
-0.0098618
-0.067266
-0.009224
0.01023
-0.034099
0.039888
0.039569
0.03351
0.037337
0.0044891
0.004808
0.017564
0.0064026
-0.028359
-0.058974
-0.074282
-0.026445
0.016608
-0.047174
-0.026126
0.0073593
0.019478
0.08613
0.067952
0.0064026
0.0016189
0.077838
0.037656
0.016608
0.033829
-0.030272
-0.025488
-0.026445
-0.02517
0.0019378
0.019478
0.015332
0.00066221
0.055515
0.082941
0.051369
0.02171
-0.010181
0.074968
0.059661
0.010867
0.004808
-0.070136
-0.062163
0.0131
0.013419
-0.063758
-0.0015702
0.021072
-0.019429
0.072417
0.062531
0.043077
0.039888
0.021391
0.011824
0.021391
0.023943
-0.022618
-0.052596
-0.061525
-0.027083
0.0028946
-0.066628
-0.036012
0.011824
0.022986
0.075925
0.037337
-0.021343
-0.018791
0.057109
0.022986
0.00098112
0.017246
-0.064077
-0.055147
-0.034418
-0.043347
-0.033461
0.00066221
0.012781
-0.012094
0.054877
0.066995
0.038931
0.0035324
-0.027721
0.050412
0.03638
-0.0060349
-0.0044404
-0.07779
-0.085762
-0.0089051
0.0028946
-0.0982
-0.02198
0.0089539
-0.015283
0.059023
0.051688
0.021072
0.010548
0.026175
0.008316
0.01884
0.027132
-0.024213
-0.04845
-0.059293
-0.036969
0.008635
-0.041434
-0.020386
0.0064026
0.031278
0.081665
0.05392
-0.0105
-0.014645
0.072417
0.040526
2.4388e-05
0.022029
-0.061206
-0.054828
-0.01911
-0.016878
-0.040158
0.012462
0.028088
-0.01624
0.045947
0.073374
0.053282
0.041483
-0.018153
0.029683
0.039569
0.008316
-0.017516
-0.071411
-0.079065
-0.012094
-0.0015702
-0.092778
-0.035375
-0.00061343
-0.020386
0.057109
0.039569
0.0051269
0.0022568
0.029045
-0.0047593
-0.0063538
0.017883
-0.041115
-0.063439
-0.071411
-0.071093
-0.023575
-0.046536
-0.048131
-0.015283
0.015332
0.057747
0.026494
-0.012413
-0.029315
0.045629
0.034467
-0.0085862
0.0095917
-0.071093
-0.059612
-0.009224
-0.014964
-0.051639
0.015651
0.023943
-0.018791
0.059979
0.054558
0.048818
0.044034
0.0003433
0.031596
0.042439
0.020754
-0.0069916
-0.057698
-0.058655
-0.011456
0.01023
-0.068541
-0.027083
0.01597
0.0003433
0.074649
0.049455
0.0003433
-0.00093234
0.047223
0.017246
-0.014645
0.0089539
-0.03952
-0.037607
-0.053234
-0.052277
-0.0034836
0.0054459
-0.012094
-0.0095429
0.041164
0.076244
0.054239
0.019478
-0.0069916
0.082303
0.064763
0.020435
0.020754
-0.055147
-0.052596
0.012781
0.021072
-0.053234
0.0073593
0.037656
-0.015921
0.067314
0.059661
0.037656
0.034467
-0.00061343
0.0095917
0.018521
0.0089539
-0.032186
-0.069817
-0.076833
-0.032504
-0.0105
-0.093097
-0.059612
-0.0066727
-0.0063538
0.049137
0.0131
-0.04271
-0.044623
0.024262
-0.0060349
-0.027402
-0.0012513
-0.081298
-0.066947
-0.065671
-0.056104
-0.047812
-0.0053971
-0.014964
-0.02517
0.044672
0.064125
0.040526
0.024899
-0.017516
0.062531
0.053282
0.0079971
0.0064026
-0.061844
-0.056742
0.011824
0.021391
-0.06025
-0.0018891
0.030959
-0.0031647
0.081665
0.059023
0.029045
0.028088
0.01597
0.0041702
0.01023
0.0131
-0.032186
-0.066947
-0.076195
-0.043028
-0.0066727
-0.064395
-0.038883
0.0060837
0.024262
0.075925
0.044353
-0.026126
-0.02517
0.069547
0.035104
-0.0069916
0.015651
-0.053552
-0.058017
-0.037288
-0.044623
-0.043666
0.0028946
-0.0012513
-0.029634
0.040845
0.055196
0.03351
0.022986
-0.027402
0.039569
0.036699
-0.0069916
-0.027083
-0.094692
-0.094054
-0.026445
-0.019429
-0.10266
-0.045899
-0.0085862
-0.037607
0.048818
0.0035324
-0.02517
-0.015283
-0.0089051
-0.035056
-0.037288
-0.029315
-0.073963
-0.10075
-0.10713
-0.094692
-0.041753
-0.076833
-0.085762
-0.055466
-0.019429
0.033191
0.0044891
-0.044623
-0.050682
0.037018
0.02458
-0.015283
0.0016189
-0.084487
-0.064077
-0.021343
-0.034418
-0.055147
0.01597
0.015651
-0.023575
0.052645
0.055834
0.042439
0.040526
-0.014645
0.031278
0.043715
0.016289
-0.0044404
-0.057698
-0.070136
0.00098112
0.018202
-0.064714
-0.021343
0.018202
-0.00093234
0.079752
0.054239
0.0019378
0.008316
0.033191
0.0070404
0.004808
0.020116
-0.043666
-0.050363
-0.065352
-0.06312
-0.02198
-0.024213
-0.016559
-0.0025269
0.032553
0.072736
0.037337
-0.0069916
-0.019429
0.072098
0.057747
-0.013051
0.0079971
-0.066947
-0.057379
-0.005716
-0.0105
-0.045899
0.011186
0.020435
-0.02198
0.05679
0.050731
0.034148
0.036061
-0.0031647
0.021072
0.02777
0.0060837
-0.02198
-0.066309
-0.073963
-0.01624
0.0131
-0.072368
-0.04558
0.012462
0.0044891
0.062212
0.046904
-0.01911
-0.017197
0.044034
0.01597
-0.0031647
0.019159
-0.053234
-0.069817
-0.069179
-0.057379
-0.020705
-0.0050782
-0.0079484
-0.0047593
0.052326
0.070503
0.044991
0.022348
0.00098112
0.096016
0.068909
0.014375
0.019159
-0.041115
-0.040158
0.013738
0.011505
-0.037607
0.023305
0.041802
0.0025757
0.074649
0.054239
0.03925
0.053282
0.021391
0.018521
0.030321
0.027132
-0.011775
-0.050682
-0.064395
-0.02804
-0.00061343
-0.064395
-0.029953
0.023624
0.028407
0.087406
0.067952
-0.017197
-0.010819
0.066677
0.040207
0.016608
0.026494
-0.043028
-0.034099
-0.021343
-0.036969
-0.016559
0.028407
0.020116
-0.0025269
0.05679
0.073374
0.046904
0.031596
-0.030591
0.054558
0.051369
0.0089539
-0.0018891
-0.073644
-0.072687
-0.002208
-0.00061343
-0.076514
-0.028678
0.0079971
-0.020386
0.05679
0.050093
0.024899
0.01884
0.012462
0.0025757
0.019159
0.032553
-0.013689
-0.037288
-0.060569
-0.038245
0.017246
-0.027083
-0.011137
0.02171
0.044034
0.090595
0.06572
0.0099106
0.0057648
0.097292
0.054877
0.013419
0.022029
-0.053871
-0.036012
-0.0085862
-0.018791
-0.030591
0.020116
0.017246
-0.013689
0.046585
0.061893
0.040526
0.037337
-0.016878
0.043077
0.045947
0.0095917
-0.00061343
-0.087357
-0.072687
0.0032135
0.0016189
-0.0864
-0.025488
0.01023
-0.024851
0.053601
0.046266
-0.0018891
-0.0012513
0.0057648
-0.016559
-0.018153
2.4388e-05
-0.052915
-0.072687
-0.079065
-0.069498
-0.04271
-0.055785
-0.044942
-0.022299
0.01597
0.066677
0.027451
-0.01911
-0.032504
0.06285
0.037975
-0.00029452
0.0095917
-0.062801
-0.059293
-0.012413
-0.024532
-0.053552
0.01023
0.0095917
-0.027721
0.039888
0.031278
0.019797
0.024262
-0.024213
0.011186
0.013738
-0.0063538
-0.04558
-0.093416
-0.091822
-0.028678
-0.0044404
-0.084487
-0.039202
0.0092728
-0.0047593
0.064444
0.046585
-0.005716
0.0016189
0.050412
0.02171
0.0073593
0.018521
-0.044304
-0.047812
-0.048769
-0.043028
-0.00029452
0.00098112
-0.0050782
-0.0034836
0.027451
0.057109
0.040207
0.0051269
-0.028678
0.058385
0.043715
-0.0085862
-0.0069916
-0.075557
-0.096605
-0.019429
-0.022618
-0.076514
-0.014964
-0.00093234
-0.040158
0.03925
0.029045
0.012781
0.019478
-0.020067
-0.0031647
0.0070404
-0.0069916
-0.041753
-0.085443
-0.084168
-0.04558
-0.012413
-0.085762
-0.042072
0.0073593
0.0073593
0.064125
0.034148
-0.039202
-0.020067
0.046904
0.017883
-0.0034836
0.010867
-0.060569
-0.078746
-0.07173
-0.070455
-0.040477
-0.0089051
-0.021343
-0.024213
0.029683
0.055834
0.033191
0.0079971
-0.031867
0.049774
0.045629
0.0019378
-0.0044404
-0.057698
-0.064714
0.012143
0.020754
-0.051958
-0.002208
0.028088
-0.0012513
0.081984
0.070822
0.043715
0.046266
0.027132
0.017883
0.029364
0.02777
-0.015283
-0.050682
-0.066309
-0.045261
-0.0047593
-0.06312
-0.053234
-0.014008
0.0028946
0.063806
0.037018
-0.021661
-0.022299
0.061893
0.019797
-0.023256
0.012462
-0.055466
-0.051958
-0.028359
-0.040158
-0.03952
0.014056
0.014694
-0.020386
0.03925
0.060298
0.038931
0.029045
-0.020067
0.050731
0.049455
-0.0028458
-0.0073105
-0.064714
-0.068541
0.0003433
0.0076782
-0.077471
-0.025807
0.012462
-0.015283
0.061255
0.046266
-0.017197
-0.01624
-0.0015702
-0.014964
-0.013051
-0.0047593
-0.058655
-0.085762
-0.097562
-0.078109
-0.034737
-0.054828
-0.044304
-0.010819
0.016608
0.066358
0.038294
-0.016878
-0.023894
0.086449
0.060617
0.021072
0.035423
-0.030272
-0.033142
0.0057648
-0.014008
-0.011775
0.047223
0.041164
-0.009224
0.071141
0.08613
0.064763
0.048818
-0.009224
0.035104
0.042439
0.014056
-0.0063538
-0.061844
-0.056423
-0.0060349
0.017883
-0.075238
-0.021024
0.02777
0.016927
0.084217
0.073374
0.023624
0.02458
0.056153
0.026175
0.021391
0.037337
-0.02198
-0.037926
-0.053871
-0.049726
0.0079971
-0.020705
-0.018791
0.0028946
0.036061
0.075925
0.040207
-0.016878
-0.043985
0.055834
0.040526
-0.012413
-0.005716
-0.08066
-0.079065
-0.026445
-0.030591
-0.068222
-0.010819
0.012462
-0.030272
0.050412
0.058066
0.043396
0.038612
-0.0050782
0.028088
0.039888
0.022986
-0.0082673
-0.06025
-0.067903
-0.012094
0.01023
-0.083849
-0.047174
0.0028946
-0.013689
0.049455
0.026494
-0.02517
-0.027721
0.02458
-0.0047593
-0.012413
-0.027721
-0.074919
-0.070774
-0.063758
-0.065352
-0.027083
-0.017835
-0.021024
-0.013689
0.040207
0.074649
0.040526
0.0067215
-0.022937
0.061255
0.051369
-0.0076295
-0.0095429
-0.076514
-0.072368
0.0003433
-0.0063538
-0.070455
-0.0038025
-0.00093234
-0.029953
0.054877
0.042121
0.021072
0.03351
-0.0089051
-0.0060349
0.026813
0.015332
-0.02517
-0.071093
-0.087995
-0.043347
-0.018153
-0.08927
-0.061206
-0.015283
-0.023894
0.031915
0.015013
-0.051639
-0.06886
0.0013
-0.024851
-0.062482
-0.050044
-0.11383
-0.11255
-0.10426
-0.10681
-0.073006
-0.047493
-0.043347
-0.058336
0.015651
0.020435
0.0060837
0.0032135
-0.033142
0.034786
0.030321
-0.0098618
-0.011775
-0.080341
-0.081935
-0.011775
-0.012413
-0.093416
-0.035694
-0.00029452
-0.034099
0.036699
0.028407
-0.0076295
-0.0069916
-0.012732
-0.019748
-0.022299
-0.020067
-0.058655
-0.085443
-0.10458
-0.081935
-0.037288
-0.088633
-0.072049
-0.030591
-0.020705
0.026813
0.0013
-0.059931
-0.058974
0.030002
0.0092728
-0.034737
-0.022299
-0.084487
-0.10043
-0.052277
-0.055466
-0.056104
-0.015921
-0.02198
-0.055466
0.023305
0.0099106
-0.0031647
0.0022568
-0.061525
-0.01624
-0.0053971
-0.046536
-0.066309
-0.11989
-0.12563
-0.064714
-0.05132
-0.12052
-0.086719
-0.041434
-0.055785
0.022986
0.00066221
-0.038245
-0.024851
-0.010819
-0.037926
-0.033461
-0.014327
-0.066309
-0.080022
-0.090227
-0.075876
-0.018791
-0.050044
-0.043985
-0.014327
0.017883
0.069228
0.043077
-0.0038025
-0.015921
0.082941
0.059661
0.014375
0.012143
-0.045261
-0.036012
0.0089539
0.010867
-0.01624
0.041164
0.050731
0.012462
0.091233
0.09187
0.082303
0.078476
0.021391
0.066677
0.071779
0.043715
0.011186
-0.03665
-0.041115
0.0070404
0.027451
-0.06312
-0.015283
0.035104
0.01597
0.085811
0.061255
0.0054459
0.0070404
0.044991
0.031278
0.019159
0.038931
-0.015921
-0.039839
-0.046536
-0.037288
-0.0047593
-0.0053971
-0.017835
0.015013
0.060936
0.093465
0.054558
0.0060837
-0.024851
0.071779
0.059661
0.0070404
0.0073593
-0.064714
-0.058655
-0.0038025
-0.0105
-0.050363
0.0044891
0.026175
-0.018472
0.063169
0.063487
0.04531
0.047542
0.012781
0.032553
0.037656
0.039569
-0.0047593
-0.058974
-0.064395
-0.017197
0.013738
-0.058017
-0.025488
0.024899
0.022029
0.089
0.069547
0.015013
0.0013
0.072098
0.052326
0.034786
0.056471
-0.021024
-0.024851
-0.015283
-0.0098618
0.023943
0.038294
0.025856
0.016927
0.06859
0.092189
0.053282
0.034148
-0.012413
0.079752
0.069228
0.015013
0.0060837
-0.059931
-0.053552
0.0095917
0.0051269
-0.067266
-0.010181
0.025856
-0.013689
0.076244
0.037018
0.028407
0.030321
0.00098112
-0.0044404
0.01023
0.015651
-0.019429
-0.058974
-0.078427
-0.044304
0.0022568
-0.056104
-0.035056
0.010867
0.03351
0.091552
0.06572
0.0064026
0.0051269
0.079752
0.055515
0.031278
0.049137
-0.023256
-0.01911
-0.00061343
-0.0060349
-0.012094
0.031915
0.038612
0.012781
0.069547
0.090914
0.06859
0.052645
-0.00061343
0.070503
0.071779
0.03351
0.018202
-0.043985
-0.041434
0.030002
0.031915
-0.05419
0.0025757
0.050412
0.02458
0.094422
0.074968
0.041164
0.041483
0.047861
0.037975
0.043396
0.047861
-0.00061343
-0.034418
-0.044304
-0.026126
0.0092728
-0.019429
-0.0041214
0.032872
0.055834
0.10431
0.064763
0.0057648
-0.00029452
0.081984
0.074968
0.012781
0.034467
-0.031867
-0.023575
0.021072
-0.010181
-0.023575
0.03638
0.040845
0.014375
0.088681
0.091552
0.067314
0.072098
0.020754
0.06859
0.07752
0.04531
0.016289
-0.040158
-0.040477
0.028407
0.037656
-0.050682
-0.0015702
0.04531
0.024262
0.090914
0.07752
0.031278
0.03351
0.067633
0.040207
0.034148
0.049455
-0.0047593
-0.018472
-0.020386
-0.011775
0.038294
0.0095917
0.0013
0.02777
0.066358
0.10877
0.068909
0.02458
0.0016189
0.089
0.066677
0.021072
0.026813
-0.051001
-0.055147
2.4388e-05
0.0054459
-0.035056
0.008316
0.02458
-0.0069916
0.063806
0.054877
0.032553
0.03351
-0.015602
0.0038513
0.0099106
-0.011775
-0.034737
-0.099476
-0.12499
-0.060887
-0.030272
-0.12116
-0.088633
-0.023894
-0.035056
0.028726
0.0067215
-0.035375
-0.03091
0.0131
-0.0038025
-0.015921
0.0016189
-0.062163
-0.061206
-0.057379
-0.057698
-0.015602
-0.0060349
-0.0044404
-0.02517
0.031278
0.069547
0.040845
0.0028946
-0.034418
0.065401
0.050731
-0.009224
-0.0105
-0.075238
-0.080341
-0.019748
-0.031229
-0.089908
-0.029634
-0.0025269
-0.044942
0.037337
0.027451
0.0038513
0.0028946
-0.026126
-0.014964
0.0025757
-0.0025269
-0.039839
-0.075876
-0.081617
-0.06025
-0.03378
-0.099157
-0.065352
-0.0050782
-0.0012513
0.050412
0.021391
-0.040158
-0.05132
0.008635
-0.0079484
-0.035056
-0.018791
-0.080979
-0.082573
-0.074282
-0.091822
-0.061206
-0.034737
-0.035694
-0.047493
0.0057648
0.03351
0.008316
-0.011137
-0.055785
0.019478
0.016289
-0.02804
-0.020386
-0.094054
-0.084806
-0.0076295
-0.0025269
-0.10522
-0.044942
0.0067215
-0.02198
0.060936
0.052007
0.028407
0.01597
0.017564
0.013738
0.022986
0.022348
-0.01624
-0.043985
-0.051639
-0.02517
0.021072
-0.024532
-0.0063538
0.029683
0.044672
0.10399
0.072098
0.015651
0.016927
0.098886
0.071141
0.018202
0.030959
-0.037288
-0.036331
-0.0028458
-0.0053971
-0.010819
0.020754
-0.0031647
-0.027721
0.046585
0.054877
0.02458
0.01597
-0.032504
0.025856
0.017564
-0.024851
-0.041753
-0.090865
-0.087995
-0.015921
-0.0050782
-0.087995
-0.050044
-0.00029452
-0.012094
0.063169
0.060617
0.027132
0.027451
0.052007
0.03064
0.029683
0.01597
-0.02198
-0.039202
-0.046855
-0.035056
0.015332
-0.024213
-0.021024
-0.0066727
0.027132
0.073055
0.03351
-0.022937
-0.022937
0.062531
0.041164
-0.0053971
-0.00029452
-0.069817
-0.060569
-0.011456
-0.013689
-0.035694
0.022986
0.024262
-0.005716
0.069547
0.077838
0.059023
0.057109
0.0076782
0.041483
0.043396
0.021072
-0.0063538
-0.055466
-0.062163
-0.005716
0.010867
-0.076195
-0.032504
0.013738
-0.0105
0.055834
0.047223
-0.005716
-0.018153
0.011505
-0.026764
-0.041753
-0.014645
-0.079703
-0.095011
-0.10904
-0.10362
-0.057698
-0.054828
-0.051639
-0.043347
0.0054459
0.02458
0.008316
-0.017835
-0.036012
0.053601
0.040526
-0.00061343
0.013419
-0.060887
-0.051639
-0.017516
-0.021343
-0.071411
-0.0066727
-0.0015702
-0.041115
0.033829
0.02777
0.0092728
-0.0060349
-0.04845
-0.029953
-0.022299
-0.032823
-0.064077
-0.11255
-0.12307
-0.066947
-0.048769
-0.12052
-0.0864
-0.02198
-0.033461
0.03925
0.025218
-0.041753
-0.044304
0.0013
-0.0060349
-0.035375
-0.0044404
-0.070774
-0.087038
-0.082892
-0.081935
-0.044942
-0.029953
-0.050682
-0.066628
-0.0047593
0.033829
-0.0034836
-0.026445
-0.069179
0.011505
-0.0085862
-0.062482
-0.068222
-0.13328
-0.13615
-0.068222
-0.078109
-0.14763
-0.10458
-0.075238
-0.10777
-0.020067
-0.026764
-0.053234
-0.047493
-0.058655
-0.065671
-0.046855
-0.037926
-0.086719
-0.11128
-0.12052
-0.080022
-0.03378
-0.089908
-0.070455
-0.016878
-0.002208
0.045629
0.016608
-0.036331
-0.035694
0.037337
0.008635
-0.018153
0.0054459
-0.069498
-0.065033
-0.041753
-0.046218
-0.039202
-0.0060349
-0.002208
-0.018791
0.037975
0.058704
0.030002
0.021072
-0.02804
0.039888
0.035104
-0.0012513
-0.027721
-0.089908
-0.072368
0.0016189
-0.0082673
-0.090865
-0.033461
0.0064026
-0.012732
0.061893
0.040207
0.011186
0.013419
0.022667
0.0051269
-0.019429
0.0025757
-0.038564
-0.044304
-0.078427
-0.052915
-0.0031647
-0.055466
-0.014327
-0.0079484
0.041164
0.060298
0.029683
-0.013689
-0.012732
0.081665
0.075287
0.032234
0.037656
-0.035694
-0.035375
0.0041702
0.010867
-0.00029452
0.059342
0.054558
0.031278
0.10845
0.12631
0.11132
0.11037
0.045629
0.096016
0.098568
0.057428
0.049137
0.008635
-0.035694
0.028726
0.059023
-0.045899
-0.049726
0.0016189
0.01597
0.072098
0.047542
0.0067215
0.012143
0.019159
-0.011775
0.0070404
-0.0031647
-0.034418
-0.059293
-0.053871
-0.031229
0.026494
0.0057648
0.022667
0.045947
0.087087
0.13078
0.10144
0.06859
0.060617
0.12727
0.11005
0.063169
0.059979
0.0079971
0.013419
0.057109
0.058704
0.031278
0.067952
0.052963
0.037656
0.11292
0.11419
0.084217
0.091552
0.042758
0.054239
0.078157
0.038612
0.017246
-0.037288
-0.035375
0.02171
0.030959
-0.051639
-0.032823
0.071779
0.059661
0.11356
0.088362
0.048818
0.063806
0.11834
0.093784
0.087087
0.099524
0.042439
0.035423
0.038294
0.038931
0.075606
0.081984
0.069866
0.066677
0.11706
0.15151
0.11738
0.067314
0.021391
0.11228
0.10431
0.052326
0.0131
-0.03952
-0.033142
0.036699
0.010867
-0.052915
-0.035694
-0.011775
-0.045261
0.011824
-0.0063538
-0.024213
-0.032823
-0.067903
-0.056742
-0.055785
-0.0982
-0.11989
-0.14061
-0.11383
-0.11223
-0.052915
-0.11064
-0.078109
-0.035694
0.024262
0.032872
0.025856
-0.023256
0.0032135
0.048818
0.027132
0.0067215
-0.0034836
-0.027721
-0.039839
-0.047493
-0.021343
0.014375
0.025218
0.06572
0.052645
0.11993
0.14832
0.13684
0.13205
0.095378
0.19424
0.19296
0.15087
0.14449
0.080709
0.07146
0.14736
0.14417
0.066358
0.11356
0.13588
0.098568
0.17128
0.15055
0.11675
0.12695
0.11643
0.1059
0.086768
0.088681
0.0041702
-0.0066727
-0.034418
-0.022299
0.016608
-0.037926
-0.032504
-0.016559
0.0131
0.03925
-0.010181
-0.035375
-0.029315
0.026494
0.0060837
-0.036331
-0.039839
-0.094373
-0.060887
-0.022299
-0.02517
-0.014964
0.017246
0.0092728
-0.068541
-0.005716
0.023624
-0.011456
-0.023894
-0.03665
-0.046218
-0.088633
-0.11191
-0.050363
-0.11415
-0.13774
-0.047493
-0.0085862
-0.082573
-0.052915
0.017883
0.029364
0.13939
0.10144
0.090595
0.1177
0.13779
0.10973
0.10335
0.074968
0.038612
0.047223
0.037337
0.03925
0.098249
0.05392
0.05392
0.071779
0.096016
0.16937
0.12121
0.08613
0.094103
0.16299
0.15183
0.089319
0.045947
-0.053234
-0.052915
-0.037926
-0.052596
-0.087038
0.0044891
-0.043347
-0.10426
-0.094054
-0.058974
-0.062482
-0.0082673
-0.10203
-0.06025
-0.046218
-0.06599
-0.11255
-0.18399
-0.17474
-0.11638
-0.094373
-0.19387
-0.14572
-0.12052
-0.16932
-0.058974
-0.11128
-0.1674
-0.12882
-0.087676
-0.14317
-0.13169
-0.035375
-0.089908
-0.081298
-0.07173
-0.073325
-0.070774
-0.028359
0.012781
0.041483
0.076563
0.10813
0.074012
-0.012732
-0.042072
0.047542
0.02458
-0.01911
0.020116
-0.047493
-0.040158
0.008316
-0.047812
-0.076514
0.015651
0.05679
0.04531
0.1126
0.098568
0.10271
0.086768
0.027451
0.014056
0.01597
0.0092728
-0.029953
-0.075238
-0.096286
-0.034099
-0.038245
-0.17984
-0.12818
-0.024851
0.0089539
0.047223
-0.014008
-0.043985
-0.00061343
0.067952
0.0095917
0.008635
0.035104
-0.029315
-0.033461
-0.030591
0.029683
0.036699
-0.010819
-0.047812
-0.026126
0.083579
0.091233
0.055196
0.037975
-0.012413
0.070503
0.017246
0.0070404
0.038612
-0.053871
-0.03665
0.020754
0.010867
-0.071093
-0.038564
0.01023
0.0076782
0.087406
0.052645
0.02171
0.040526
0.057428
0.065082
0.065082
0.05679
0.03638
0.019797
0.022029
0.057428
0.06572
0.0064026
0.038612
0.053282
0.045629
0.12472
0.088362
0.029364
-0.0060349
0.068271
0.03351
0.019797
0.034148
-0.037607
-0.020705
-0.031548
0.0076782
0.044672
0.07752
0.042439
0.037975
0.082622
0.078795
0.035742
0.0054459
-0.10585
-0.030591
-0.042072
-0.075876
-0.068222
-0.13137
-0.14923
-0.09533
-0.090227
-0.13998
-0.099157
0.0044891
0.01023
0.076882
0.085173
0.081665
0.11196
0.11706
0.088044
0.099524
0.092189
0.081984
0.04818
0.010548
0.041483
0.10526
0.025856
0.017246
0.078476
0.097292
0.13779
0.10686
0.052963
0.057747
0.13524
0.096973
0.069228
0.093146
0.0067215
0.0089539
0.019478
0.0057648
0.0067215
0.043396
0.028088
-0.020386
0.012781
0.054239
-0.014327
-0.042391
-0.1033
-0.050363
-0.049088
-0.054828
-0.062163
-0.10968
-0.19674
-0.17442
-0.12595
-0.19419
-0.15911
-0.13902
-0.15018
-0.063758
-0.088952
-0.10394
-0.10872
-0.097243
-0.096924
-0.11159
-0.087995
-0.10075
-0.083211
-0.09246
-0.061844
0.04818
0.055515
0.059661
0.094741
0.14066
0.19711
0.17383
0.11292
0.081984
0.15342
0.067952
0.073055
0.14768
0.030959
-0.013051
0.024899
0.012143
-0.039839
0.019478
0.037656
0.011186
0.074649
0.035104
-0.0060349
-0.022618
-0.041434
-0.013051
-0.032186
-0.041115
-0.10809
-0.20886
-0.13519
-0.11574
-0.12307
-0.21588
-0.14636
-0.073325
-0.044304
-0.024851
-0.036969
-0.074282
-0.11446
-0.044304
-0.088633
-0.10745
-0.020705
-0.085762
-0.13902
-0.10075
-0.073006
-0.061525
-0.061844
-0.080979
-0.066628
0.017246
0.052963
0.027451
0.034148
0.0022568
0.096016
0.086449
0.03638
0.059023
-0.02517
-0.029315
0.028726
0.049455
-0.017835
0.0067215
0.030959
0.01884
0.064125
0.044353
0.051688
0.037975
0.0038513
-0.026126
0.0022568
-0.0041214
-0.057698
-0.11415
-0.13296
-0.10203
-0.011775
-0.067585
-0.059612
-0.018472
-0.025488
0.059342
0.017246
-0.078109
-0.066628
-0.005716
-0.015921
-0.042072
0.014375
-0.049726
-0.12403
-0.14349
-0.10075
-0.063758
-0.06025
-0.065352
-0.059612
-0.011775
0.0092728
-0.03665
0.028088
-0.01911
0.010867
-0.0012513
-0.015921
-0.010181
-0.095011
-0.088952
-0.012732
-0.016878
-0.076195
-0.040477
0.0051269
-0.035056
0.0067215
0.0073593
-0.00061343
0.00066221
-0.021343
-0.043666
-0.032823
-0.005716
-0.025488
-0.053234
-0.049407
-0.044942
0.013419
-0.02804
-0.013689
0.0044891
0.015651
0.059661
0.088362
-0.019429
0.0060837
0.066039
0.016289
-0.016559
-0.017516
-0.088314
-0.079384
-0.077471
-0.06599
-0.034737
0.0070404
0.016289
-0.012094
0.056153
0.080709
0.04818
0.02171
0.0003433
0.061893
0.057428
0.0095917
-0.013051
-0.0069916
0.0028946
0.044353
-0.037607
-0.11989
-0.013689
0.016289
-0.0085862
0.073693
0.06859
0.036699
0.034148
0.033191
0.020116
0.027451
0.038294
-0.0089051
-0.01337
-0.026445
-0.032186
0.0099106
0.014056
0.037975
0.054239
0.074968
0.084854
0.11675
0.11164
0.099843
0.19169
0.14959
0.078795
0.061893
-0.010819
0.027451
0.030002
0.049774
-0.033461
0.024262
0.086449
0.030959
0.12057
0.057109
0.022986
0.017883
-0.013689
0.060617
0.075606
0.058066
0.048499
2.4388e-05
-0.0060349
0.052963
0.044991
-0.005716
0.028088
-0.0044404
0.046585
0.099843
0.087406
0.041483
0.051369
0.089
0.026175
0.0051269
0.037656
-0.0060349
-0.0089051
-0.0060349
0.019478
0.071779
0.074649
0.077838
0.090276
0.11579
0.15406
0.11515
0.066358
0.026175
0.12249
0.1075
0.04531
0.034148
-0.10968
-0.0044404
0.042439
0.016927
-0.024851
0.031278
0.020435
0.00098112
0.10877
0.13716
0.13843
0.13046
0.1126
0.14194
0.16873
0.17351
0.17096
0.085811
-0.024851
0.059661
0.11611
0.035104
0.059342
0.055196
0.048499
0.1362
0.10622
0.027451
-0.02198
0.01884
0.0038513
0.028088
0.034148
-0.045261
-0.024851
0.0022568
0.0076782
0.068909
0.066039
0.059979
0.071141
0.10495
0.11675
0.10622
0.10208
0.043396
0.13492
0.11579
0.056471
0.041164
-0.067585
-0.031867
0.052326
0.031596
-0.063439
-0.022299
0.052007
0.028407
0.15087
0.13078
0.085492
0.075287
0.035423
0.015013
0.048499
0.066995
-0.040158
-0.020386
-0.027083
-0.022618
0.019797
-0.049088
-0.069498
-0.048769
-0.019748
0.052007
0.041483
-0.020067
-0.023894
0.064125
0.061574
0.048818
0.11898
0.064125
0.063806
0.098568
0.078476
0.076244
0.11069
0.010548
0.010548
0.14832
0.15916
0.16203
0.13046
0.015013
0.029683
0.013738
-0.037607
-0.053234
-0.092141
-0.087676
-0.0025269
0.0070404
-0.03378
0.041802
0.043077
0.02777
0.11228
0.11164
0.077201
0.060936
0.08326
0.012143
0.051369
0.049455
0.0025757
-0.020705
-0.013689
-0.017197
-0.01624
-0.064714
-0.044304
-0.013689
0.042439
0.089319
0.043077
0.0032135
0.00098112
0.13556
0.088681
0.059342
0.059023
-0.031548
-0.020067
0.0044891
0.020116
-0.020067
0.037018
0.061893
0.012462
0.072736
0.069547
0.06572
0.06285
0.018521
0.069547
0.087406
0.069547
0.082622
0.021072
0.0044891
0.031596
0.057109
-0.00029452
0.0060837
0.073055
0.01884
0.15565
0.10463
0.022667
-0.016878
0.024262
-0.018791
-0.028996
-0.034099
-0.08353
-0.082254
-0.10394
-0.11032
-0.052596
-0.051001
-0.060569
-0.06025
-0.015283
0.035423
0.012781
-0.0076295
0.0003433
0.10973
0.1311
0.10144
0.10686
0.076563
0.044991
0.095378
0.10718
-0.014645
-0.005716
0.1177
0.096335
0.11324
0.10495
0.087406
0.0089539
-0.050363
-0.05132
-0.062482
-0.073963
-0.08353
-0.12052
-0.10139
-0.056104
-0.0098618
-0.079384
-0.040796
-0.0105
-0.022618
0.016289
0.0051269
-0.0038025
-0.0031647
0.068271
0.0099106
0.019478
-0.010819
-0.12818
-0.10585
-0.066947
-0.080979
-0.049407
-0.014008
-0.027402
-0.034737
0.020435
0.054558
0.046585
0.040845
-0.0073105
0.062531
0.045629
0.015332
0.01597
-0.055785
-0.097881
0.034786
0.047223
-0.08927
-0.048769
-0.022299
-0.052596
0.022029
-0.0079484
-0.012094
-0.014008
-0.056104
-0.065671
-0.055466
-0.0085862
-0.061206
-0.09533
-0.084487
-0.052596
-0.0063538
-0.090865
-0.0864
-0.037607
0.0051269
0.052963
0.057109
-0.055785
-0.056104
0.022348
-0.015921
-0.067266
-0.060887
-0.12052
-0.12563
-0.10298
-0.077471
-0.048131
-0.012732
-0.058655
-0.040796
0.034467
0.054239
0.024899
0.026494
0.0035324
0.069228
0.064444
0.015013
0.0025757
-0.0098618
0.02171
0.070822
0.043396
-0.0069916
0.013419
0.012143
-0.034099
0.057747
0.025856
0.061574
0.055834
0.024899
-0.036969
-0.032823
-0.030591
-0.082254
-0.079384
-0.058336
-0.0085862
0.064763
-0.055785
-0.0073105
0.070503
0.037656
0.11451
0.034786
-0.016559
0.013419
0.09793
0.083579
0.028407
-0.0012513
-0.068222
-0.085443
-0.046536
-0.029634
-0.055466
-0.0050782
0.0060837
-0.020386
0.082622
0.10239
0.092189
0.055196
0.017246
0.076882
0.1059
0.061574
0.027132
-0.040477
-0.041115
0.059023
0.052963
-0.042391
0.061255
0.10271
0.089
0.11069
0.067952
0.040207
0.06285
-0.0034836
0.032553
0.05105
0.045947
0.017246
-0.018472
-0.057379
-0.06025
0.0032135
0.00066221
-0.0018891
0.022348
0.064763
0.10303
0.055834
0.0099106
0.024262
0.11579
0.078157
0.064763
0.070503
-0.034099
-0.052277
-0.0044404
-0.0069916
-0.050044
0.052645
0.048499
0.014056
0.10909
0.11196
0.09187
0.064125
0.011824
0.069547
0.10271
0.099524
0.10686
0.011824
-0.011137
0.0076782
-0.03091
-0.10075
0.0019378
0.051688
0.085173
0.1059
0.02777
-0.026445
-0.021024
0.028088
0.0079971
-0.044623
-0.026126
-0.04271
-0.034099
-0.055466
-0.098519
-0.042072
-0.043347
-0.040477
-0.032186
0.0044891
0.039569
0.023943
-0.01624
-0.070774
0.008635
0.0054459
-0.0038025
-0.0025269
-0.061844
-0.071411
-0.012094
-0.02517
-0.071411
-0.055466
-0.034737
-0.0079484
0.074968
0.046266
0.022029
-0.011775
-0.041115
-0.033142
0.0003433
-0.036969
-0.079703
-0.099794
-0.091822
-0.058017
-0.013051
-0.09533
-0.078746
0.0054459
0.020754
0.060617
0.022029
-0.017835
-0.022618
0.054239
0.044991
0.023943
0.034148
-0.030591
-0.019748
-0.0053971
0.011186
0.03351
0.083579
0.092189
0.0041702
0.072736
0.071141
0.074649
0.073374
0.0079971
0.051369
0.048499
0.010867
-0.017835
-0.10681
-0.098838
0.0060837
-0.041115
-0.13551
-0.082254
-0.018791
-0.053234
-0.014964
-0.016559
-0.021661
-0.015921
-0.029634
-0.028996
-0.035056
-0.051639
-0.080979
-0.11096
-0.11797
-0.093735
-0.046218
-0.079065
-0.046855
0.00098112
0.0092728
0.072736
0.028088
0.0016189
0.023943
0.10845
0.066358
0.031915
0.051688
-0.021024
-0.023894
-0.027083
-0.034737
-0.013689
0.018202
0.019797
-0.01911
0.037656
0.025537
-0.019429
-0.015283
-0.06025
0.01023
0.018521
-0.016878
-0.036012
-0.10777
-0.11064
-0.05132
-0.039202
-0.13328
-0.065033
-0.026764
-0.063439
0.013419
0.011824
-0.016878
-0.017835
0.025856
-0.014964
-0.02804
-0.025488
-0.068541
-0.058655
-0.071411
-0.062163
0.022667
-0.029634
-0.066628
-0.00029452
0.027132
0.082303
0.028088
-0.042072
-0.042391
0.037656
0.019159
-0.02198
-0.0066727
-0.087038
-0.12084
-0.053234
-0.041115
-0.061844
-0.024213
-0.017197
-0.032504
0.056153
0.03638
0.036061
0.033191
-0.029953
0.014694
0.015332
-0.0073105
-0.044304
-0.057061
-0.069179
-0.021024
-0.0034836
-0.081298
-0.031548
0.011824
-0.0060349
0.076244
0.073693
0.0095917
0.0057648
0.044991
0.014375
0.0051269
0.022667
-0.045261
-0.051958
-0.043666
-0.02804
-0.00093234
-0.028359
-0.019429
2.4388e-05
0.071779
0.097611
0.059023
0.0025757
-0.0105
0.10048
0.093784
0.030321
0.03064
-0.0073105
0.0057648
0.056153
0.030959
-0.037607
0.00098112
0.031278
-0.0082673
0.093465
0.098249
0.072098
0.026175
0.031915
0.031278
0.029364
0.023943
0.011824
-0.038883
-0.072687
-0.0073105
0.03351
-0.047493
-0.029315
0.02458
0.044353
0.097611
0.054239
-0.0025269
-0.0018891
0.076563
0.1075
0.12057
0.1228
0.028088
0.008635
0.0051269
0.038612
0.072417
0.089
0.078476
0.091552
0.15374
0.15406
0.12185
0.063806
0.012143
0.085811
0.094103
0.067952
0.1295
0.051369
0.027132
0.10303
0.089638
0.0057648
0.060298
0.052326
0.028088
0.10495
0.18659
0.16586
0.092189
0.020116
-0.0012513
0.0092728
-0.00029452
-0.023894
-0.064714
-0.077471
-0.047812
-0.010819
-0.068222
-0.038564
-0.00093234
0.01884
0.07146
0.061255
-0.010819
-0.0018891
0.080709
0.067314
0.028726
0.042439
-0.0041214
0.0025757
-0.0073105
0.034467
0.0070404
0.057428
0.048818
0.025537
0.11962
0.15278
0.074649
0.044672
0.039569
0.082622
0.081665
0.008316
0.012781
-0.046218
-0.050363
0.031915
0.023624
-0.053234
-0.010181
0.024899
0.0067215
0.081984
0.079433
0.081028
0.097611
0.10686
0.10176
0.074649
0.040526
-0.066947
-0.049088
0.0019378
0.0054459
0.073055
0.01597
0.0070404
0.022348
0.013738
0.046904
-0.011456
-0.042072
-0.020386
0.068271
0.025218
-0.014645
-0.0098618
-0.06599
-0.069817
-0.018153
-0.012413
-0.042391
0.013419
0.031915
0.008316
0.080071
0.08326
0.073055
0.069866
0.034467
0.087087
0.086768
0.05392
0.04531
0.0041702
0.011186
0.060298
0.059979
-0.021661
0.0089539
0.069547
0.040526
0.11164
0.087725
0.04818
0.057428
0.066995
0.023624
0.0044891
0.032553
-0.013689
-0.040796
-0.049407
-0.039839
0.037337
0.05392
0.059342
0.054558
0.080709
0.15374
0.13588
0.042121
0.014056
0.085492
0.13588
0.089
0.059979
-0.040477
-0.024213
0.013738
0.016289
-0.040158
0.0060837
0.010548
-0.0076295
0.07146
0.05679
0.019478
0.038931
0.008635
0.037975
0.0076782
0.023624
-0.020386
-0.082892
-0.073325
-0.035056
-0.009224
-0.094373
-0.030591
-0.012732
0.01597
0.11164
0.065401
0.0038513
0.0054459
0.059979
0.035742
0.0089539
0.05105
-0.012094
-0.028996
-0.047812
-0.032186
0.014694
0.031596
0.0054459
-0.021661
0.011824
0.066677
0.052007
0.037018
-0.0041214
0.075925
0.069547
0.011186
0.017564
-0.04558
-0.073325
-0.0012513
0.041802
-0.026764
0.01597
0.035423
-0.0063538
0.072098
0.059342
0.081028
0.093465
0.093465
0.091552
0.11419
0.088362
0.05105
-0.03091
-0.045899
-0.00093234
0.052326
-0.0079484
-0.0076295
0.029364
0.011824
0.044034
-0.0018891
-0.077152
-0.078746
-0.0089051
-0.040477
-0.068541
-0.044942
-0.11415
-0.11128
-0.082573
-0.082573
-0.069817
-0.022937
-0.041753
-0.051958
0.010548
0.015013
-0.012094
0.012462
-0.04845
0.046585
0.019478
-0.016559
-0.019748
-0.10872
-0.10841
-0.036969
-0.022299
-0.1033
-0.042391
0.0054459
-0.03091
0.031915
0.038612
0.023943
0.013419
0.008316
2.4388e-05
0.02171
0.025218
-0.050682
-0.084487
-0.027083
0.011824
0.034148
-0.022618
-0.032186
-0.010181
0.012781
0.10208
0.053601
-0.025807
-0.019429
0.070822
0.06572
0.012462
-0.0069916
-0.08353
-0.065033
-0.020705
-0.0076295
-0.020386
0.028726
0.04531
0.018202
0.085492
0.10335
0.09187
0.06859
0.0076782
0.080709
0.087087
0.050731
0.015013
-0.039202
-0.032504
0.035104
0.027451
-0.065352
-0.009224
0.036061
0.0099106
0.093465
0.091552
0.049774
0.086449
0.09187
0.053282
0.061255
0.069866
-0.0018891
-0.0066727
-0.015283
-0.01624
0.026813
0.012781
0.0079971
0.019478
0.042439
0.087087
0.052963
-0.0098618
-0.012413
0.076882
0.069228
0.016289
0.0028946
-0.076514
-0.073325
-0.0082673
-0.00029452
-0.061206
0.0022568
0.012462
-0.03378
0.040207
0.032234
0.016608
0.015332
-0.018472
-0.0044404
0.0038513
0.019478
-0.011775
-0.049726
-0.029953
0.037018
0.04818
-0.035056
0.017883
0.073055
0.044353
0.093784
0.089
0.069547
0.08613
0.13014
0.067314
0.057747
0.050412
-0.013051
-0.050363
-0.074919
-0.06025
0.0054459
0.008316
0.0076782
-0.011775
0.017246
0.042439
0.01884
-0.012732
-0.02517
0.073374
0.060936
0.014375
0.004808
-0.076195
-0.073325
0.016608
0.014694
-0.050044
0.0054459
0.026494
-0.0031647
0.073374
0.060617
0.044034
0.029364
0.0003433
0.022667
0.05392
0.048499
-0.0034836
-0.034099
-0.035056
0.011505
0.023624
-0.045261
-0.034099
0.028407
0.038294
0.096016
0.074649
-0.012732
-0.0095429
0.068909
0.035742
0.017246
0.02777
-0.058017
-0.057698
-0.040477
-0.080341
-0.051639
0.022348
0.028088
0.0067215
0.025856
0.034786
-0.0018891
0.0022568
-0.046536
0.01023
0.008635
-0.023575
-0.033461
-0.11032
-0.10713
-0.034099
-0.036969
-0.10107
-0.050363
-0.024851
-0.080979
0.025856
0.024899
0.00066221
0.0064026
-0.005716
-0.017197
-0.014008
0.012781
-0.019429
-0.046536
-0.043985
-0.02198
0.040845
-0.0047593
0.0003433
0.063169
0.066039
0.11069
0.084536
0.029045
0.012143
0.097292
0.048818
-0.012094
0.025537
-0.056423
-0.070774
-0.051958
-0.057698
-0.064077
-0.017835
-0.020705
-0.050363
0.023624
0.05105
0.028088
0.0092728
-0.01337
0.045629
0.057109
0.017564
-0.0050782
-0.06025
-0.057698
0.010867
-0.0018891
-0.066628
-0.034099
-0.0105
-0.033142
0.055515
0.041483
2.4388e-05
-0.009224
0.0013
-0.033142
-0.017197
0.010548
-0.041115
-0.061525
-0.077471
-0.046536
0.0092728
-0.03665
-0.054509
-0.011456
0.019159
0.093465
0.082303
-0.0012513
-0.043985
0.040207
0.028088
-0.024532
-0.0095429
-0.079065
-0.071411
-0.02198
-0.033142
-0.069498
2.4388e-05
0.0054459
-0.011456
0.059342
0.052326
0.043077
0.050093
-0.0012513
0.042758
0.047223
0.016289
-0.0063538
-0.053552
-0.045261
0.014694
0.018521
-0.063439
-0.021661
0.028088
0.011505
0.086768
0.075287
0.035104
0.032553
0.074968
0.040526
0.021072
0.044034
0.020435
0.015332
-0.0044404
-0.005716
0.031278
0.021391
0.02458
0.047542
0.11132
0.12695
0.088681
0.040526
0.030321
0.11515
0.084536
0.042439
0.044353
-0.029315
-0.018472
0.034786
0.01597
-0.030591
0.025218
0.049774
0.0076782
0.087725
0.075606
0.058704
0.05105
0.016927
0.043715
0.074968
0.02777
0.0022568
-0.044942
-0.067585
-0.012094
0.0070404
-0.08927
-0.037607
0.028726
0.011186
0.052326
0.032872
-0.01624
-0.013689
0.05679
0.049137
0.04531
0.059342
-0.01337
-0.0041214
-0.017197
-0.010819
0.043396
0.019478
0.028726
0.060936
0.098249
0.11866
0.085492
0.061255
0.0079971
0.071779
0.059342
0.022029
0.019797
-0.072049
-0.053871
0.034148
0.040207
-0.040796
0.015651
0.040845
-0.0028458
0.092189
0.085811
0.04531
0.034786
0.049774
0.044034
0.046585
0.05392
0.026175
-0.017516
-0.026764
-0.0095429
0.025537
0.0057648
0.030959
0.067952
0.079752
0.1531
0.12089
0.048818
0.022348
0.078476
0.067633
0.049774
0.023943
-0.032504
-0.0012513
0.0092728
-0.037288
-0.035694
0.0013
0.0003433
-0.024213
0.026494
0.038294
0.054877
0.040207
-0.00061343
0.069866
0.065082
0.02458
0.018202
-0.048131
-0.052596
0.023943
0.0019378
-0.057698
-0.0073105
0.050093
0.01023
0.075925
0.03064
0.011505
0.016289
0.01597
0.0035324
0.0060837
0.012781
-0.041753
-0.058336
-0.069817
-0.051639
0.018202
-0.02804
-0.016559
0.022667
0.066995
0.12567
0.084217
0.015332
0.0067215
0.11866
0.13843
0.075287
0.06285
-0.014327
0.025856
0.069547
0.045629
-0.029634
0.015651
0.055196
-0.0105
0.08039
0.097611
0.081984
0.046266
-0.011456
0.031278
0.033829
0.01023
-0.02198
-0.040158
-0.026126
0.022986
0.05679
-0.031548
-0.0073105
0.03925
0.021072
0.075925
0.07146
0.0064026
0.042439
0.063806
0.013738
0.0003433
-0.0053971
-0.066309
-0.081617
-0.087357
-0.074601
-0.029634
-0.035694
-0.0079484
-0.026445
-0.0050782
0.073693
0.040526
-0.014645
-0.041434
0.053282
0.042758
0.004808
0.010548
-0.094054
-0.058974
0.022348
0.017883
-0.036012
0.012462
0.022029
-0.0098618
0.074649
0.06572
0.051369
0.058066
0.015013
0.043077
0.058066
0.038612
-0.0095429
-0.038883
-0.053234
0.012143
0.047861
-0.043347
-0.0085862
0.05679
0.05392
0.12695
0.087725
-0.031867
0.020116
0.075606
0.069866
0.085173
0.066677
-0.032504
-0.033142
-0.04558
-0.01624
0.03351
0.05392
0.065082
0.038612
0.10112
0.13173
0.093146
0.087725
0.044353
0.12057
0.086449
0.037975
0.052007
-0.047174
-0.01911
0.025856
-0.031867
-0.061844
-0.011137
0.0089539
-0.039202
0.043715
0.031915
0.014694
0.02458
-0.011775
0.0131
0.032553
0.017246
-0.032186
-0.042072
-0.037288
-0.0031647
0.010867
-0.042391
-0.020067
-0.010181
0.028726
0.091233
0.074968
-0.046536
-0.017835
0.07433
0.028407
0.0016189
-0.0073105
-0.087995
-0.071093
-0.040796
-0.043985
-0.052915
-0.0047593
-0.0079484
-0.040796
0.01884
0.050731
0.035423
0.015651
-0.030272
0.053282
0.042121
-0.0044404
-0.0073105
-0.057698
-0.052277
0.019478
0.013738
-0.045261
0.017564
0.05105
0.020754
0.086768
0.082622
0.059979
0.046585
0.030321
0.0019378
0.026494
0.034467
-0.0079484
-0.029953
-0.058336
-0.058017
-0.002208
-0.04845
-0.024213
0.03064
0.04818
0.09793
0.059023
0.0057648
0.0019378
0.092189
0.061893
0.035423
0.069866
0.00066221
0.008316
0.038612
0.047223
0.029683
0.088681
0.07752
0.018202
0.054239
0.09793
0.057109
0.043077
0.0003433
0.032234
0.074968
0.0035324
-0.035056
-0.11638
-0.13169
-0.051001
-0.017197
-0.088633
-0.04271
-0.0060349
0.0019378
0.060298
0.091552
0.032234
0.040845
0.066358
0.031278
-0.00093234
0.034467
0.013419
-0.04558
-0.076833
-0.025488
0.0013
-0.019748
-0.037607
-0.011456
0.008635
0.044672
0.022348
0.0013
-0.028678
0.042439
0.029683
0.0013
0.016608
-0.046536
-0.022937
0.028407
-0.013689
-0.023256
0.046585
0.057747
0.008316
0.09187
0.078795
0.074968
0.081984
0.015013
0.056471
0.069228
0.026813
-0.0066727
-0.05419
-0.071411
-0.02517
0.0038513
-0.085443
-0.029634
0.0044891
0.017246
0.092508
0.072736
0.010867
0.011824
0.056471
0.024899
0.013738
0.030959
-0.034737
-0.080979
-0.071411
-0.066628
-0.047812
0.0022568
-0.011775
-0.028359
0.011505
-0.0060349
0.0073593
-0.0066727
-0.046855
0.044672
0.045629
-0.0028458
-0.0069916
-0.069498
-0.043666
-0.00061343
-0.032186
-0.051958
0.0032135
0.023624
-0.012094
0.045947
0.0076782
0.0019378
0.01884
-0.017516
0.0057648
0.032553
0.010867
-0.028996
-0.085762
-0.11446
-0.056104
-0.0050782
-0.079384
-0.034418
0.015332
0.011824
0.059023
0.069547
-0.0025269
0.024899
0.074968
0.035742
-0.010819
0.01023
-0.040796
-0.040158
-0.032186
-0.050044
-0.030591
-0.01911
-0.0031647
-0.0105
0.048499
0.054877
0.045629
0.040526
-0.014964
0.073374
0.070185
0.027132
0.022667
-0.020067
0.0044891
0.029683
0.020435
-0.021343
0.065082
0.056153
-0.0066727
0.03638
0.060936
0.038294
-0.0018891
0.010548
-0.0066727
-0.010181
-0.01337
-0.047174
-0.073325
-0.08066
-0.067903
-0.041434
-0.078109
-0.055466
-0.024213
-0.005716
0.059342
0.037018
-0.062163
-0.065033
0.017883
0.035742
-0.0098618
-0.026126
-0.10458
-0.12084
-0.062482
-0.053871
-0.071093
-0.030591
-0.0095429
-0.032186
0.044991
0.065401
0.03351
0.016289
-0.015921
0.046904
0.043715
0.016927
0.020435
-0.060569
-0.066628
0.038612
0.010548
-0.06599
-0.021661
0.021391
-0.034099
0.058704
0.033829
0.0044891
0.056471
0.060617
-0.002208
0.015332
0.034786
-0.022937
-0.070774
-0.066309
-0.032504
0.00066221
-0.022299
-0.041753
0.0028946
0.029045
0.074968
0.030321
-0.015921
-0.037607
0.046585
0.034148
-0.018791
-0.005716
-0.072049
-0.069498
-0.030591
-0.023256
-0.064714
0.012781
0.037656
2.4388e-05
0.047223
0.008635
0.020754
0.049774
-0.0041214
0.037337
0.015651
-0.046218
-0.040477
-0.075557
-0.062163
-0.0063538
-0.0034836
-0.11128
-0.070136
-0.0098618
-0.0041214
0.069547
0.037337
-0.049088
0.0073593
0.035742
0.0051269
0.0095917
0.020754
-0.049088
-0.051639
-0.056104
-0.037288
0.023305
0.036061
-0.0038025
-0.0018891
0.041164
0.081665
0.045629
-0.0085862
-0.03091
0.083579
0.052645
-0.042391
-0.041434
-0.080341
-0.086719
-0.042072
-0.080022
-0.13615
-0.056742
-0.036331
-0.067266
0.034467
0.027451
0.0016189
-0.012094
-0.041115
-0.0069916
0.014375
0.016927
-0.010181
-0.1285
-0.16007
-0.017197
-0.0028458
-0.071093
-0.024213
-0.010181
-0.034418
0.035423
0.021072
-0.0034836
-0.0050782
0.034148
0.020435
0.017883
0.032553
-0.023894
-0.044942
-0.02804
-0.0089051
0.02458
0.04531
0.043077
0.037018
0.093784
0.12886
0.096016
0.083579
0.029364
0.15151
0.12504
0.05105
0.050093
-0.028678
-0.027721
0.069866
0.076244
-0.0031647
0.030959
0.059979
0.031278
0.090595
0.078157
0.044991
0.011505
0.02171
0.027132
-0.014645
0.015651
-0.02517
-0.06886
-0.12403
-0.056742
-0.023894
-0.090865
-0.047493
-0.018153
-0.011456
0.050412
0.052963
-0.025488
-0.020386
0.065082
0.058385
-0.012094
0.0013
-0.038564
-0.021024
-0.010181
-0.015602
-0.0015702
0.03351
0.014056
-0.0076295
0.072417
0.076563
0.086768
0.078795
-0.012094
0.065401
0.073055
0.045947
0.01884
-0.040477
-0.045261
0.037975
0.031278
-0.055147
0.0028946
0.060617
0.037656
0.12185
0.099524
0.02171
0.040207
0.054558
0.031596
0.05392
0.020435
-0.070455
-0.034418
-0.051639
-0.027083
0.016289
-0.032186
-0.024532
0.0067215
0.0092728
0.057109
0.051369
0.028407
-0.0028458
0.10558
0.078795
0.032553
0.053601
-0.031548
-0.027083
0.041802
0.0070404
-0.021024
0.047542
0.0092728
0.01023
0.084854
0.12312
0.056153
0.023305
-0.044623
-0.00061343
0.035742
0.0095917
-0.0031647
-0.058336
-0.088633
0.0054459
-0.059612
-0.11925
0.02777
0.032872
0.017883
0.096654
0.047542
0.0099106
0.019478
0.069866
0.043715
0.045947
0.055834
0.0016189
-0.01337
-0.028359
-0.026764
0.03064
0.031915
0.023305
0.020754
0.052326
0.098568
0.073374
0.025856
0.011824
0.083898
0.062212
0.019478
0.020754
-0.056742
-0.054828
0.0041702
-0.0060349
-0.050044
0.015013
0.034467
0.014694
0.087406
0.077838
0.029364
0.05105
0.03638
0.057747
0.067314
0.020435
-0.055785
-0.11733
-0.070455
-0.014964
-0.0060349
-0.10139
-0.058336
-0.015921
-0.0085862
0.045947
0.035423
-0.031229
-0.07779
0.0070404
-0.0044404
-0.022299
-0.0015702
-0.052596
-0.093735
-0.084806
-0.1202
-0.069817
-0.045261
-0.030591
-0.064714
-0.00093234
0.050412
-0.014327
-0.02804
-0.065671
0.072098
0.05392
0.0025757
0.0019378
-0.077471
-0.048769
0.028407
0.021391
-0.044623
0.015651
0.038931
0.0057648
0.083579
0.077201
0.041164
0.04531
0.031915
0.028726
0.038612
0.03351
-0.02198
-0.051639
-0.050682
-0.022618
0.0003433
-0.046536
-0.024213
0.020116
0.014056
0.076882
0.060617
-0.0034836
-0.0047593
0.061255
0.031915
0.00098112
0.021072
-0.047493
-0.04845
-0.036969
-0.034737
-0.022937
0.017564
2.4388e-05
-0.01337
0.036061
0.059661
0.042121
0.031915
-0.01624
0.049137
0.013738
0.016927
-0.021343
-0.083211
-0.095649
-0.012413
-0.022937
-0.10649
-0.032823
-0.00093234
-0.044623
0.011824
0.027132
-0.0018891
-0.011775
-0.009224
-0.021661
-0.027083
-0.0060349
-0.051639
-0.077471
-0.096286
-0.066309
-0.032186
-0.074282
-0.055147
-0.021661
0.0025757
0.052963
0.013738
-0.040796
-0.03378
0.049455
0.01597
-0.03665
-0.039839
-0.11287
-0.085762
-0.05132
-0.081617
-0.10043
-0.056423
-0.070774
-0.067903
0.029045
-0.0085862
-0.028359
-0.031867
-0.081298
-0.017516
-0.0073105
-0.031548
-0.052596
-0.087676
-0.09533
-0.022937
-0.017835
-0.11415
-0.066309
-0.0069916
-0.0073105
0.044353
0.035104
-0.00061343
-0.009224
0.022667
-0.012413
-0.0095429
0.0073593
-0.046855
-0.058017
-0.076195
-0.061525
-0.025488
-0.019429
-0.019748
-0.0041214
0.027451
0.069866
0.036699
-0.011775
-0.024532
0.064444
0.037975
-0.0098618
-0.0041214
-0.075876
-0.070455
-0.01911
-0.02517
-0.066309
-0.0069916
-0.0038025
-0.037926
0.040207
0.039888
0.028407
0.024262
-0.022937
-0.0018891
0.0051269
-0.0085862
-0.032186
-0.085762
-0.09246
-0.03378
-0.016878
-0.10235
-0.053234
-0.0069916
-0.015283
0.046904
0.031278
-0.023894
-0.024213
0.022029
-0.0041214
-0.015283
0.0003433
-0.061525
-0.070455
-0.077152
-0.069817
-0.036012
-0.026764
-0.024851
-0.026764
0.019478
0.05105
0.020754
-0.011456
-0.036331
0.052007
0.032553
-0.017835
-0.0095429
-0.086719
-0.078427
-0.018153
-0.029634
-0.078109
-0.015283
0.0054459
-0.042391
0.046585
0.031278
0.0019378
0.017883
-0.012094
-0.012413
-0.024213
-0.0028458
-0.045261
-0.10362
-0.12882
-0.053552
-0.023894
-0.099157
-0.073006
-0.033142
-0.024213
0.042758
0.020754
-0.047174
-0.041434
0.014694
0.0064026
-0.019748
-0.0038025
-0.069179
-0.075238
-0.081617
-0.070455
-0.03952
-0.0066727
-0.015602
-0.033142
0.026175
0.048818
0.027451
0.0070404
-0.024851
0.049137
0.030959
-0.0015702
-0.0085862
-0.081935
-0.082254
-0.0060349
-0.018153
-0.095011
-0.032186
-0.0041214
-0.040158
0.037337
0.025856
-0.0031647
-0.0050782
-0.0079484
-0.024213
-0.020705
-0.014964
-0.06312
-0.084168
-0.098838
-0.074601
-0.026764
-0.079384
-0.059931
-0.021661
-0.0018891
0.052326
0.021391
-0.040477
-0.036012
0.038612
0.017883
-0.013689
0.00098112
-0.071093
-0.078427
-0.052915
-0.048769
-0.051639
-0.0098618
-0.010819
-0.039839
0.023943
0.038612
0.022029
0.0131
-0.035375
0.031596
0.026494
-0.041115
-0.054828
-0.11446
-0.10681
-0.032186
-0.019748
-0.11191
-0.065352
-0.015602
-0.064395
0.0019378
0.0019378
-0.025488
-0.020067
0.0022568
-0.029634
-0.020386
-0.019748
-0.054828
-0.067585
-0.089908
-0.068222
-0.02804
-0.044304
-0.039202
-0.0018891
0.026494
0.065401
0.020754
-0.016878
-0.011775
0.065401
0.037337
-0.0038025
0.0076782
-0.06599
-0.061525
-0.028359
-0.03091
-0.058655
0.0079971
0.0070404
-0.033142
0.038612
0.038612
0.02171
0.022029
-0.020067
0.0060837
0.008635
-0.0069916
-0.029953
-0.091822
-0.094373
-0.027083
-0.020386
-0.10043
-0.058655
-0.009224
-0.019429
0.046585
0.026494
-0.023894
-0.03378
0.017883
-0.037926
-0.043347
-0.029953
-0.087995
-0.099476
-0.10681
-0.091184
-0.045261
-0.036331
-0.045261
-0.03665
0.0073593
0.039888
0.011186
-0.015283
-0.032504
0.073055
0.052645
-0.011456
-0.010181
-0.073644
-0.065033
-0.015283
-0.024532
-0.084487
-0.016878
-0.002208
-0.041753
0.032234
0.03064
0.022986
0.028088
-0.012094
0.00066221
0.0025757
-0.0089051
-0.030272
-0.069498
-0.074282
-0.020067
0.0038513
-0.080979
-0.043028
0.010548
0.0089539
0.06572
0.051688
-0.023256
-0.012094
0.058066
0.028407
0.015332
0.016927
-0.04558
-0.043028
-0.054509
-0.03665
-0.021343
0.0054459
-0.0028458
-0.014645
0.036699
0.069547
0.033829
0.011824
-0.029315
0.04818
0.032872
-0.012732
-0.020705
-0.086719
-0.087357
-0.018153
-0.023894
-0.095968
-0.036969
-0.013689
-0.044623
0.037337
0.023305
0.0003433
-0.005716
-0.020067
-0.048131
-0.032186
-0.028678
-0.062482
-0.10458
-0.11733
-0.076195
-0.039202
-0.098519
-0.060569
-0.017516
0.0067215
0.040845
0.021391
-0.031229
-0.038883
0.06285
0.038931
0.0095917
0.023305
-0.052915
-0.052915
-0.033142
-0.032823
-0.049407
-0.0025269
-0.00093234
-0.025488
0.032872
0.045629
0.035742
0.015651
-0.034737
0.033191
0.017564
-0.019429
-0.021343
-0.091503
-0.093097
-0.017197
-0.014008
-0.10011
-0.053234
-0.0050782
-0.017197
0.053601
0.03064
-0.015921
-0.0082673
0.015332
-0.0089051
-0.0069916
0.0073593
-0.04558
-0.072049
-0.089908
-0.066309
-0.0098618
-0.054828
-0.041115
-0.018791
0.012143
0.063169
0.031915
-0.048131
-0.058655
0.036699
-0.0015702
-0.051958
-0.035056
-0.10171
-0.095649
-0.045261
-0.051958
-0.083211
-0.017835
-0.047812
-0.048131
0.041164
0.037018
0.028726
0.021391
-0.014008
0.037656
0.034786
0.008635
-0.0095429
-0.068541
-0.073006
-0.0089051
-0.0041214
-0.091503
-0.043347
0.00066221
-0.014008
0.047542
0.024899
-0.020067
-0.014645
0.013419
-0.014645
-0.019748
-0.0066727
-0.063439
-0.068541
-0.083849
-0.066628
-0.044623
-0.034737
-0.03091
-0.020067
0.014694
0.060617
0.02777
-0.011456
-0.012413
0.072098
0.040207
-0.0085862
0.0057648
-0.062482
-0.067903
-0.012094
-0.009224
-0.053234
0.0038513
0.0067215
-0.034099
0.040845
0.040845
0.015651
0.0032135
-0.026764
-0.0085862
-0.0015702
-0.020386
-0.058017
-0.10043
-0.11446
-0.057379
-0.027083
-0.11702
-0.068222
-0.017197
-0.019429
0.040526
0.014694
-0.032186
-0.02198
0.017246
-0.018791
-0.023894
-0.002208
-0.070136
-0.072687
-0.070774
-0.066947
-0.032823
-0.015921
-0.009224
-0.032504
0.027451
0.037656
0.025856
0.0099106
-0.020067
0.056153
0.029045
-0.0105
2.4388e-05
-0.079065
-0.066309
0.0079971
-0.002208
-0.088633
-0.017835
0.0064026
-0.02517
0.047223
0.034148
0.029364
0.021391
0.0044891
0.0041702
0.022986
-0.00029452
-0.042391
-0.078109
-0.087676
-0.047174
-0.0089051
-0.075238
-0.038564
0.0073593
0.0022568
0.059979
0.043077
-0.0085862
-0.011775
0.059661
0.025537
0.0131
0.031278
-0.04558
-0.047812
-0.026445
-0.018153
-0.0095429
0.024262
-0.009224
-0.025488
0.030959
0.051369
0.028407
0.0067215
-0.04558
0.021391
0.015651
-0.039839
-0.068222
-0.13169
-0.12084
-0.04271
-0.053552
-0.12467
-0.06599
-0.028678
-0.055147
0.029683
0.021072
-0.012094
-0.014964
-0.01624
-0.0085862
0.0025757
0.0079971
-0.043347
-0.069179
-0.084806
-0.078427
-0.036331
-0.061844
-0.044942
-0.011775
0.0013
0.043077
0.015651
-0.036331
-0.03378
0.059661
0.03064
-0.0050782
-0.0053971
-0.087038
-0.072049
-0.027083
-0.021661
-0.029634
0.011824
0.0044891
-0.023894
0.035104
0.042121
0.031278
0.035742
-0.018791
0.025218
0.022348
-0.0018891
-0.019748
-0.070774
-0.074919
-0.002208
0.010867
-0.077152
-0.026764
0.026175
-0.00061343
0.060617
0.040845
0.017564
0.020754
0.032872
0.0044891
0.0060837
0.010548
-0.059612
-0.075876
-0.092141
-0.070136
-0.040477
-0.061844
-0.056742
-0.050363
-0.012094
0.041802
0.015332
-0.048131
-0.06312
0.038612
0.018521
-0.032186
-0.02198
-0.10011
-0.076195
-0.028996
-0.022299
-0.062801
-0.0047593
-0.0028458
-0.049726
0.041164
0.034467
0.020435
0.024262
-0.020067
0.0060837
0.012143
-0.0047593
-0.042391
-0.086719
-0.087357
-0.036012
-0.018472
-0.092778
-0.062482
-0.021024
-0.015283
0.063487
0.037656
-0.034737
-0.023256
0.028726
0.00098112
-0.011137
-0.00029452
-0.06025
-0.059612
-0.06025
-0.050363
-0.013689
0.00066221
-0.0041214
-0.0031647
0.031278
0.074649
0.047223
0.015332
-0.0089051
0.07146
0.04818
0.0003433
0.0076782
-0.061844
-0.058017
0.011824
0.0019378
-0.067266
-0.0076295
2.4388e-05
-0.040158
0.05105
0.052326
0.034786
0.02458
-0.0085862
-0.020386
-0.01911
-0.0025269
-0.038883
-0.082573
-0.10362
-0.053234
-0.027721
-0.10394
-0.069817
-0.014645
-0.015602
0.046904
0.025218
-0.038883
-0.034099
0.021391
-0.0018891
-0.015921
-0.00061343
-0.079703
-0.089908
-0.086719
-0.070136
-0.048131
-0.0012513
-0.014964
-0.037288
0.017564
0.040207
0.025856
-0.00093234
-0.039202
0.055515
0.047223
0.0016189
-0.011137
-0.073963
-0.068541
0.008635
-0.017835
-0.087676
-0.028996
0.0038513
-0.025807
0.047542
0.03638
0.011824
0.00066221
0.0019378
-0.009224
-0.010181
-0.015602
-0.050363
-0.063758
-0.082254
-0.059612
-0.017516
-0.066947
-0.046855
0.0051269
0.018202
0.082941
0.050412
-0.021661
-0.024213
0.060617
0.048499
0.0038513
0.0131
-0.052596
-0.061525
-0.021343
-0.020067
-0.037288
0.0099106
0.01023
-0.024851
0.03638
0.036699
0.022667
0.020435
-0.037607
0.023305
0.014694
-0.038564
-0.036331
-0.087357
-0.087038
-0.029315
-0.041115
-0.1151
-0.048131
-0.0044404
-0.02804
0.035104
0.036061
0.0016189
-0.018472
0.0076782
-0.011775
-0.0031647
0.00066221
-0.060569
-0.081935
-0.092778
-0.06886
-0.016878
-0.045261
-0.041753
-0.024532
0.008635
0.06572
0.037337
-0.026764
-0.028996
0.07752
0.049774
0.0003433
0.013738
-0.055785
-0.046855
-0.0038025
-0.020386
-0.053871
0.0035324
0.012143
-0.033142
0.028407
0.033191
0.033829
0.023624
-0.014008
0.019478
0.004808
-0.020067
-0.027402
-0.085443
-0.097881
-0.012413
-0.011137
-0.078109
-0.046218
-0.0018891
-0.018153
0.049774
0.04531
-0.009224
-0.0066727
0.028407
-0.022937
-0.02804
-0.012094
-0.072368
-0.078109
-0.10458
-0.093735
-0.047174
-0.049407
-0.041434
-0.030272
0.0044891
0.043077
0.0019378
-0.013689
-0.027402
0.066358
0.031278
-0.0098618
-0.00029452
-0.068541
-0.059293
0.0016189
-0.011137
-0.055147
0.00098112
0.015332
-0.02804
0.040526
0.032553
0.012143
0.0051269
-0.027083
-0.010819
0.0064026
-0.0098618
-0.043666
-0.091184
-0.096924
-0.052596
-0.025488
-0.097562
-0.061844
-0.0012513
-0.0044404
0.05679
0.035104
-0.049407
-0.035375
0.030002
-0.0038025
-0.018472
-0.0095429
-0.074282
-0.066947
-0.054828
-0.078109
-0.06599
-0.024851
-0.012094
-0.026445
0.051369
0.075287
0.028088
0.0051269
-0.0063538
0.087725
0.052007
-0.0063538
-0.00061343
-0.051001
-0.041753
0.0131
0.0099106
-0.060887
-0.00093234
0.0057648
-0.036969
0.047542
0.043715
-0.0031647
0.0092728
-0.0066727
-0.014327
-0.0063538
-0.011456
-0.044942
-0.087357
-0.10745
-0.068541
-0.010181
-0.067903
-0.058974
0.0028946
0.014056
0.063806
0.03064
-0.030591
-0.01337
0.063487
0.032553
-0.009224
0.0025757
-0.070455
-0.071093
-0.06312
-0.06025
-0.04845
-0.016559
-0.029634
-0.047812
0.027451
0.03064
-0.017516
-0.029953
-0.055466
0.020754
0.0054459
-0.021343
-0.02804
-0.080979
-0.073963
0.0003433
-0.0034836
-0.084806
-0.0085862
0.022029
-0.0066727
0.066995
0.071141
0.010548
0.022348
0.029045
-0.014008
-0.0031647
0.0060837
-0.033461
-0.069817
-0.096924
-0.079065
-0.017516
-0.043347
-0.029634
0.010867
0.03351
0.072736
0.037018
0.0060837
0.0051269
0.097292
0.074012
0.016927
0.034467
-0.059931
-0.058974
2.4388e-05
-0.0105
-0.04845
-0.015921
-0.015602
-0.053871
0.017246
0.01597
-0.0018891
0.017246
-0.038564
0.013419
-0.01337
-0.038883
-0.070455
-0.10075
-0.090546
-0.011456
-0.0079484
-0.10011
-0.031548
0.0022568
-0.0095429
0.063806
0.051688
0.0099106
0.0019378
0.037975
0.026813
0.024899
0.028407
-0.03665
-0.043347
-0.053552
-0.043666
-0.00061343
-0.010819
-0.031229
-0.0053971
0.026813
0.06285
0.02777
-0.0095429
-0.036969
0.046904
0.034467
-0.0069916
0.0057648
-0.086081
-0.098838
-0.012413
0.0016189
-0.067266
-0.015283
0.018202
-0.032823
0.047542
0.047542
0.033829
0.024262
-0.011456
0.0067215
0.01597
-0.002208
-0.038564
-0.096924
-0.099476
-0.051958
-0.033461
-0.10777
-0.061844
-0.029315
-0.027721
0.05105
0.020754
-0.043985
-0.037607
-0.005716
-0.03665
-0.028359
0.0022568
-0.088952
-0.090546
-0.074282
-0.070774
-0.035694
-0.029953
-0.024851
-0.032823
0.034148
0.052963
0.01884
0.01023
-0.01624
0.072736
0.05105
0.004808
0.0028946
-0.06599
-0.065671
0.0079971
-0.026764
-0.09246
-0.020386
-0.018472
-0.03091
0.034467
0.0089539
-0.0095429
-0.012732
-0.025488
-0.019748
0.0025757
0.0092728
-0.02517
-0.078109
-0.087357
-0.041434
0.016608
-0.031548
-0.0089051
0.037018
0.05105
0.10431
0.075287
0.0051269
-0.009224
0.076244
0.048499
0.0013
0.02171
-0.03952
-0.046855
-0.041434
-0.050682
-0.024532
0.021391
-0.0063538
-0.020067
0.030002
0.063487
0.033191
0.032234
-0.0079484
0.059979
0.045629
-0.026126
-0.037607
-0.09246
-0.0864
-0.014645
-0.038245
-0.11542
-0.054509
-0.026445
-0.054509
0.018202
-0.010181
-0.027083
-0.021661
-0.022618
-0.03378
-0.012732
-0.005716
-0.076195
-0.085762
-0.093416
-0.091503
-0.042391
-0.066947
-0.039839
-0.012732
0.024262
0.061574
0.014375
-0.045899
-0.023575
0.063806
0.034786
-0.012413
0.0099106
-0.059612
-0.046855
-0.0012513
-0.0063538
-0.023575
0.044991
0.023624
-0.014008
0.07433
0.069547
0.046904
0.039569
-0.0073105
0.042439
0.045947
-0.0050782
-0.032186
-0.10936
-0.093416
-0.009224
-0.023575
-0.11446
-0.07779
-0.031867
-0.056742
0.03351
0.02777
-0.022299
-0.014008
-0.0031647
-0.017197
-0.039202
-0.0034836
-0.062163
-0.070455
-0.085762
-0.095968
-0.014964
-0.023256
-0.029315
-0.034737
0.028088
0.07752
0.033829
-0.017197
-0.013689
0.066677
0.04531
0.011824
0.0073593
-0.079703
-0.071411
-0.0089051
-0.019748
-0.06599
0.011505
-0.0089051
-0.032186
0.02458
0.014694
-0.010181
0.017564
-0.00093234
0.016608
0.0054459
-0.0050782
-0.049726
-0.088952
-0.077471
-0.012094
-0.015921
-0.09533
-0.04558
-0.017197
-0.0044404
0.073374
0.052326
-0.032504
-0.030591
0.0060837
0.0076782
-0.0076295
-0.01337
-0.10139
-0.081298
-0.084168
-0.082254
-0.057698
-0.049088
-0.02804
-0.03091
0.021072
0.052645
0.03064
-0.013689
-0.060569
0.050412
0.035104
-0.012413
-0.01624
-0.081298
-0.065671
-0.014645
-0.010181
-0.076833
-0.0082673
-0.017835
-0.04845
0.073055
0.063487
0.049137
0.029045
0.0041702
0.0092728
0.034467
0.033829
-0.026445
-0.04845
-0.023256
-0.0038025
-0.019429
-0.11829
-0.081935
-0.071411
-0.045899
0.024262
-0.011775
-0.092141
-0.097562
-0.0060349
-0.044304
-0.068222
-0.058336
-0.074919
-0.056423
-0.044623
-0.046855
-0.043347
0.0032135
0.029683
0.059661
0.1228
0.13301
0.090595
0.078476
0.023624
0.089638
0.062212
0.0038513
0.036061
-0.030272
-0.074601
0.028726
0.011186
-0.091503
-0.049407
-0.0082673
-0.020705
0.053601
-0.01624
-0.024851
0.0060837
-0.00061343
-0.04271
-0.029953
-0.0089051
-0.082254
-0.087995
-0.11542
-0.11893
-0.077152
-0.13902
-0.082573
-0.063439
-0.045261
-0.0085862
-0.019748
-0.063439
-0.064077
0.013419
-0.0089051
-0.014964
-0.00029452
-0.064714
-0.043028
-0.0044404
0.023943
0.033829
0.086449
0.09187
0.067633
0.1362
0.14226
0.11579
0.090595
0.052645
0.13078
0.11324
0.057109
0.042439
-0.024851
-0.064077
0.034148
0.059661
-0.035056
0.014375
0.038931
0.004808
0.072417
0.078157
0.064763
0.03925
0.02171
-0.026445
-0.014964
-0.042072
-0.056423
-0.086719
-0.082573
-0.078109
-0.020386
-0.083849
-0.040796
-0.053871
-0.047493
0.0073593
-0.01624
-0.064395
-0.099794
0.0041702
-0.01624
-0.16836
-0.14795
-0.19005
-0.19419
-0.1572
-0.21715
-0.21747
-0.12339
-0.10681
-0.20248
-0.13073
-0.061525
-0.048769
-0.055785
-0.06025
-0.017197
0.0016189
-0.0012513
-0.041434
-0.018791
-0.032186
0.045629
0.022029
-0.056423
0.043715
0.075287
0.037656
0.13684
0.16171
0.081028
0.063169
0.10654
0.085492
0.085173
0.11579
0.046904
0.043396
0.032872
0.020435
0.05679
0.038612
0.038931
0.039888
0.075606
0.092189
0.049137
-0.034418
-0.03952
0.025856
0.023305
-0.042391
-0.041115
-0.1167
-0.13519
-0.046855
-0.056423
-0.10553
-0.053552
-0.030591
-0.054509
0.031278
0.015013
-0.0047593
-0.07779
-0.14731
-0.074282
-0.070455
-0.10872
-0.14827
-0.1926
-0.25447
-0.16262
-0.11159
-0.21269
-0.18144
-0.061206
-0.056104
-0.012094
-0.026445
-0.055147
0.0013
0.088681
0.072736
0.053282
0.11292
0.038612
0.02777
0.052645
0.024899
0.059979
0.059661
0.052963
0.060617
0.13492
0.10686
0.10845
0.090914
0.0025757
0.086449
0.082622
0.037018
0.041164
-0.0015702
-0.029634
0.0028946
-0.0095429
-0.070774
0.0025757
0.031915
-0.026126
0.024262
0.028407
-0.0012513
-0.0098618
-0.025488
-0.037926
-0.053871
-0.06312
-0.068541
-0.10266
-0.097881
-0.047812
-0.019748
-0.058017
-0.041434
-0.014964
0.034467
0.11993
0.099524
0.032553
0.039569
0.1059
0.042758
-0.028359
0.011186
-0.044304
-0.059293
-0.04845
-0.05419
-0.073644
-0.034099
-0.052915
-0.055147
0.064763
0.08326
0.042758
0.0076782
-0.047493
0.008316
0.014375
0.0076782
0.011186
-0.059293
-0.058017
0.012462
-0.018153
-0.15656
-0.085125
-0.043028
-0.010819
0.048818
0.0099106
-0.034099
-0.036012
0.017883
0.03064
0.041164
0.073055
0.057109
0.049137
0.0095917
0.0038513
0.025537
0.0044891
0.050412
0.079433
0.11037
0.11834
0.034148
-0.0047593
0.0028946
0.052645
0.044034
0.043715
0.0041702
-0.10235
-0.085762
-0.005716
-0.0047593
-0.022937
0.041164
0.040207
-0.034099
0.042758
0.019159
-0.019429
-0.014327
-0.063439
-0.043028
-0.031867
-0.082573
-0.10777
-0.14923
-0.15146
-0.066309
-0.09246
-0.10203
-0.04558
-0.031867
-0.024851
0.05392
0.073055
0.054877
0.088044
0.13811
0.091233
0.062531
0.090914
0.020754
0.0051269
-0.027721
-0.011137
0.010548
0.020435
0.029683
-0.0089051
0.0064026
0.069547
0.014694
-0.036012
-0.075557
0.028088
0.015651
-0.044304
-0.033461
-0.10107
-0.085762
0.0057648
-0.031548
-0.096605
-0.01337
0.015013
-0.01624
0.043396
0.03925
0.020116
0.0019378
-0.036331
0.0067215
0.032553
0.021072
-0.0038025
-0.075876
-0.13487
-0.091503
-0.027721
-0.087676
-0.048131
-0.078746
-0.084168
-0.0018891
-0.039202
-0.058655
-0.050363
0.0095917
-0.028359
-0.023256
-0.027083
-0.090227
-0.015283
-0.005716
-0.027402
0.0028946
0.047542
0.055515
0.059023
0.090276
0.11292
0.078157
0.06285
0.049137
0.16299
0.13716
0.029045
-0.0085862
-0.047174
-0.034099
0.038931
0.019478
-0.00061343
0.049455
0.074968
0.030959
0.10239
0.053601
-0.0041214
-0.017835
-0.078746
-0.022937
-0.015602
-0.04845
-0.10777
-0.1572
-0.16517
-0.10139
-0.056742
-0.096286
-0.085443
-0.058974
-0.031867
0.039569
0.042439
-0.0069916
0.025537
0.10399
0.059342
0.037975
0.022986
-0.035694
0.029683
-0.021661
-0.077152
-0.043347
0.0038513
-0.014008
-0.028359
0.073374
0.067952
0.022986
0.026494
0.010548
0.084217
0.048818
-0.084487
-0.0085862
-0.033461
-0.042391
0.030002
0.022348
-0.082892
-0.027721
0.023305
-0.010819
0.077201
0.052007
-0.010819
-0.026445
-0.0063538
-0.01624
0.0079971
0.015332
-0.046855
-0.098519
-0.069498
-0.028996
-0.032186
-0.067585
-0.0053971
0.030959
0.040845
0.086449
0.080071
-0.00061343
0.010548
0.13747
0.092189
0.038931
0.030002
-0.039202
-0.022618
-0.014008
-0.019748
-0.058655
0.017564
0.0028946
-0.047174
0.008316
0.034786
0.062531
0.028726
-0.027402
0.027451
0.037337
0.027451
0.023624
-0.016878
-0.017197
0.074012
0.049137
-0.03378
-0.030272
0.015651
-0.04271
0.020754
-0.009224
-0.046855
-0.015602
-0.0069916
-0.041115
-0.036969
-0.038245
-0.11351
-0.11797
-0.10777
-0.073006
0.0131
0.034467
0.024262
0.055196
0.1228
0.15661
0.10335
0.060617
0.070185
0.17766
0.13173
0.093146
0.12886
0.0025757
-0.03091
0.026175
0.017564
0.00098112
0.062212
0.09506
0.040207
0.040207
0.050093
0.09506
0.087406
0.048818
0.018521
-0.032823
-0.058974
-0.059612
-0.085125
-0.10203
-0.031229
-0.014008
-0.12339
-0.039839
0.008635
0.0025757
0.035423
0.017564
-0.034418
-0.01337
0.070503
0.040845
0.044672
0.059023
-0.018791
-0.071411
-0.069817
0.0076782
0.07146
0.047542
-0.0069916
0.019159
0.066358
0.066358
0.05105
0.045947
-0.0047593
0.07752
0.082622
0.014694
-0.060887
-0.10745
-0.046536
0.0032135
-0.030591
-0.13392
-0.091822
-0.038564
-0.0864
-0.0044404
-0.015602
-0.027083
0.0073593
-0.018791
-0.054509
0.021391
0.0051269
-0.071093
-0.11415
-0.093735
-0.017835
0.01597
-0.080022
-0.061206
-0.018153
-0.005716
0.050412
-0.002208
-0.05419
-0.068541
-0.0041214
-0.03378
-0.061206
-0.042072
-0.1167
-0.098838
-0.040796
-0.047493
-0.023894
0.014694
-0.031548
0.0070404
0.12727
0.12312
0.05105
0.079752
0.081346
0.16044
0.096973
0.031278
0.03351
-0.02804
-0.047174
0.029045
0.028726
-0.096286
-0.064077
-0.044304
-0.0041214
0.057747
0.03064
-0.025488
-0.026764
-0.01337
0.0070404
0.022029
0.022986
-0.037926
-0.049407
-0.058655
-0.03091
0.042439
-0.073963
-0.014008
0.049137
0.025218
0.054558
0.049774
-0.029953
-0.019429
0.060936
0.022348
-0.005716
0.016927
-0.052915
-0.056742
-0.045261
-0.0085862
0.008316
0.054239
0.052963
0.024899
0.088362
0.10558
0.072417
0.011186
-0.042072
0.051688
0.0092728
-0.047812
0.032553
-0.054828
-0.12977
-0.089589
-0.072687
-0.14508
-0.093735
-0.052915
-0.062163
0.022667
0.0079971
-0.037607
-0.025807
0.023943
0.0067215
0.0003433
0.024262
-0.04558
-0.064714
-0.10266
-0.084487
-0.0079484
0.0060837
-0.043028
-0.016559
0.025856
0.05392
-0.010181
-0.056742
-0.058974
0.035423
0.037337
-0.01624
0.01597
-0.046536
-0.043985
0.02458
0.010867
-0.016878
0.043077
0.03925
0.022029
0.069866
0.096335
0.081665
0.090276
0.028726
0.022348
-0.0044404
0.01597
0.0051269
-0.054828
-0.076514
-0.065033
-0.03378
-0.10522
-0.07173
0.032553
0.05105
0.16522
0.13843
0.030959
-0.01337
0.028407
-0.024213
-0.0044404
0.058385
-0.022618
-0.047174
-0.032186
-0.023575
-0.037607
-0.047812
-0.068222
-0.06599
-0.00029452
0.037337
0.017564
0.0032135
-0.087357
0.032234
-0.00061343
-0.065033
-0.034737
-0.091184
-0.10139
-0.018791
-0.047493
-0.11542
-0.056104
-0.031548
-0.046218
0.0131
-0.021024
0.017564
0.0054459
-0.021024
0.019478
0.020116
0.094103
0.12185
0.061574
0.026175
0.047542
0.09506
0.011505
-0.049088
-0.087995
0.048818
0.16809
0.10973
0.052645
0.0095917
-0.0025269
-0.076195
-0.10394
-0.083849
-0.13328
-0.13328
-0.10298
-0.053552
0.0070404
0.0076782
-0.033461
-0.073325
-0.020386
0.020116
-0.00029452
-0.012413
-0.025807
0.076563
0.08613
-0.019748
-0.075557
-0.15433
-0.12212
-0.03091
-0.023256
-0.091184
-0.023256
0.016289
-0.0015702
0.078795
0.05679
0.03638
0.05105
0.07146
0.072098
0.070503
0.11292
0.064444
0.039569
-0.017516
-0.0069916
0.014694
-0.0041214
0.012462
0.033191
0.046904
0.1295
0.08039
-0.044623
-0.057061
0.069866
0.063806
0.061574
0.036061
-0.043666
-0.077152
-0.06312
-0.08066
-0.10713
-0.083849
-0.0089051
0.015013
0.031278
-0.0047593
-0.030272
-0.038245
-0.12339
-0.057061
-0.048769
-0.074601
-0.083849
-0.12403
-0.099157
-0.010819
-0.01337
-0.10649
-0.035694
0.019478
-0.0038025
0.048818
0.057428
-0.0028458
-0.0085862
0.014056
0.0076782
0.017883
0.025856
-0.034418
-0.031548
-0.032504
-0.012413
0.0089539
0.03925
0.035423
0.041483
0.10813
0.079433
0.12344
0.064125
0.016927
0.086768
0.10941
0.072417
0.048499
-0.058655
0.014375
0.035742
-0.014964
-0.035056
0.058066
0.049774
0.024899
0.10973
0.096973
0.083579
0.0079971
-0.097562
-0.0053971
0.041483
0.036699
-0.044623
-0.12339
-0.11415
-0.063439
-0.063439
-0.13806
-0.10904
-0.06025
-0.081935
0.016608
0.025218
-0.039839
-0.062801
0.0057648
0.011505
0.00098112
-0.0073105
-0.076195
-0.079384
-0.058017
-0.020067
0.017564
-0.0015702
-0.01337
-0.025488
-0.015921
0.081665
0.079114
0.049455
0.043396
0.11898
0.099205
0.015651
0.0095917
-0.061206
-0.033461
0.073374
0.043077
-0.038564
0.029364
0.033829
0.032234
0.16713
0.16394
0.13684
0.10399
0.056153
0.052326
0.038931
-0.0025269
-0.058655
-0.050682
-0.03091
0.010867
-0.025488
-0.14253
-0.14859
-0.10394
-0.068222
-0.009224
-0.073006
-0.14476
-0.1167
-0.014645
-0.018791
-0.020386
-0.0069916
-0.05419
-0.055785
-0.035375
-0.037926
0.02777
0.075925
0.0073593
0.025537
0.095697
0.12121
0.11005
0.010867
-0.029634
0.10941
0.094103
0.012462
-0.0034836
-0.090865
-0.09533
0.0073593
0.0025757
-0.086081
-0.010181
0.041483
-0.0025269
0.069228
0.067314
0.057428
0.053282
0.10208
0.092827
0.053282
0.071141
0.028407
-0.012413
-0.11797
-0.037607
0.05679
0.0067215
-0.014327
0.0070404
2.4388e-05
0.041164
-0.0050782
-0.066309
-0.058336
0.019797
0.0060837
-0.031229
-0.040477
-0.10777
-0.084806
-0.055147
-0.032823
-0.02804
-0.0034836
-0.0047593
-0.022299
0.051369
0.040845
0.014056
0.027132
0.0051269
0.055196
0.027451
-0.029953
0.017564
-0.046218
-0.097881
-0.020705
-0.010819
-0.071093
-0.049407
-0.025488
0.014375
0.087406
0.061255
0.017246
-0.0089051
0.0041702
-0.0025269
0.02171
0.013419
-0.027402
-0.037607
-0.052277
0.0038513
0.11037
0.063169
0.068909
0.050412
0.069228
0.11196
0.079433
0.0054459
0.024899
0.1649
0.16235
0.066995
0.015332
-0.07779
-0.07779
-0.039202
-0.039202
-0.068541
-0.0105
-0.01624
-0.051639
0.023305
0.029045
0.0057648
0.00098112
-0.055147
-0.0089051
0.031278
0.0095917
-0.012094
-0.063439
-0.072687
0.035423
0.062531
0.0057648
0.043715
0.060617
0.043715
0.081028
0.064125
0.079114
0.08326
0.076882
0.057747
0.035104
0.034148
-0.047493
-0.050682
-0.073963
-0.067903
-0.020386
-0.009224
-0.014008
-0.021661
0.022667
0.07433
0.03638
-0.03091
-0.024213
0.11037
0.10271
0.026494
0.035104
-0.052915
-0.061844
-0.02804
-0.027083
-0.013689
0.05105
0.062212
0.02171
0.10495
0.089
0.059342
0.076882
0.03064
0.05105
0.055515
0.11738
0.096016
0.01023
-0.013689
-0.025488
-0.0034836
-0.040158
0.0131
0.031278
0.060936
0.075925
0.087725
-0.0085862
-0.04845
0.023624
0.013419
0.022348
0.055515
-0.014645
-0.071411
-0.062801
-0.072687
-0.020067
-0.0041214
-0.0076295
-0.0015702
0.071141
0.084854
0.01884
0.00098112
-0.036969
0.050412
0.047542
-0.0050782
-0.005716
-0.068222
-0.041115
0.018521
0.015651
-0.050363
0.056471
0.07146
0.024262
0.11196
0.11643
0.10208
0.079433
0.030959
0.040207
0.032553
0.046904
0.044672
0.008316
-0.030272
-0.0089051
0.022348
-0.036331
-0.013051
-0.0079484
0.0041702
0.067633
0.042439
-0.012413
-0.014327
0.037018
0.017564
0.012781
0.0060837
-0.068222
-0.078109
-0.039839
-0.020705
0.0095917
0.070185
0.061255
0.0099106
0.084854
0.076563
0.079114
0.0038513
-0.020386
0.1193
0.10463
0.03638
0.0079971
-0.056104
-0.066947
-0.018153
-0.012413
-0.079384
-0.032504
0.012781
-0.0034836
0.068271
0.075606
0.04531
0.029045
0.059342
0.053601
0.12344
0.19488
0.094103
0.025856
0.016608
0.041483
0.067633
-0.047174
-0.023575
0.12727
0.15055
0.17319
0.07433
-0.029634
-0.054828
0.022029
-0.0069916
-0.04271
-0.030591
-0.10745
-0.10522
-0.06025
-0.057061
-0.07173
-0.023256
-0.025807
-0.031548
0.060936
0.055515
0.038612
0.032234
-0.013689
0.063806
0.052007
0.02171
-0.009224
-0.04845
-0.028678
0.044353
0.03064
-0.087357
-0.034418
0.017883
0.0028946
0.084217
0.059023
0.0025757
0.014056
0.048818
0.011824
-0.0025269
0.01023
-0.035694
-0.032186
-0.029634
-0.027083
0.01884
0.015332
0.019159
0.041164
0.071141
0.11993
0.10558
0.05679
0.018521
0.12408
0.10271
0.10526
0.11356
0.023305
0.0025757
0.032553
0.07752
0.032872
0.0032135
0.0131
0.037975
0.12918
0.082303
0.011186
0.02777
-0.031548
-0.0053971
0.011824
-0.0028458
-0.06886
-0.1151
-0.10266
-0.056742
-0.0105
-0.066947
-0.026126
0.017883
0.022667
0.075606
0.052963
-0.012094
0.0044891
0.061255
0.04818
0.041802
0.019478
-0.036012
-0.038245
-0.030272
-0.042391
-0.012094
0.011505
0.01023
-0.00029452
0.047542
0.073055
0.046266
0.043715
-0.00061343
0.069866
0.063806
0.026175
0.021391
-0.054509
-0.054509
0.033191
0.035423
-0.051639
0.0032135
0.037337
-0.0085862
0.082941
0.075606
0.037337
0.058385
0.042758
0.037975
0.071779
0.083579
0.051369
0.057428
0.033191
0.050731
0.081984
-0.010181
0.050412
0.074649
0.09793
0.13492
0.099843
0.06572
0.046585
0.084536
0.022029
-0.032823
-0.034099
-0.11542
-0.10203
-0.10011
-0.07779
-0.070136
-0.01624
-0.015283
-0.048769
0.020435
0.037018
0.024899
0.032872
-0.020067
0.063487
0.095378
0.066995
0.06285
-0.023256
-0.035375
0.04818
0.040526
-0.034737
0.01597
0.074968
0.050412
0.10208
0.089319
0.046904
0.04531
0.035104
0.014056
0.03064
0.038294
-0.010181
-0.037288
-0.06025
-0.03665
0.020116
-0.032186
-0.020705
0.013738
0.036699
0.074012
0.037018
-0.0085862
-0.012094
0.072417
0.04818
0.013738
0.032872
-0.045899
-0.041753
-0.0069916
0.017246
0.027451
0.08039
0.079114
0.037975
0.10112
0.12855
0.11515
0.088362
0.049774
0.12695
0.16139
0.13779
0.074968
-0.0085862
0.0022568
0.070503
0.043396
-0.054509
-0.017835
0.059979
0.070503
0.089
0.042758
-0.012094
-0.023256
0.0060837
-0.019429
-0.036012
-0.034099
-0.10362
-0.10841
-0.094373
-0.079065
-0.039202
-0.067585
-0.063758
-0.026764
0.03351
0.073693
0.028407
-0.01911
-0.040158
0.060298
0.044991
0.011505
0.056153
-0.02198
-0.039202
-0.0095429
-0.01911
-0.026126
0.030002
0.046266
0.0041702
0.087406
0.084536
0.074012
0.070185
0.031278
0.055515
0.062212
0.044034
0.016608
-0.036969
-0.017197
0.020754
0.023943
-0.050044
0.02171
0.070185
0.05105
0.10654
0.092189
0.032234
0.033191
0.059661
0.019159
0.045947
0.077838
0.0067215
-0.022618
-0.037607
-0.024851
0.0044891
0.017564
0.015651
0.013419
0.061574
0.091233
0.064763
0.046904
0.026813
0.13205
0.12567
0.10654
0.11069
0.035104
0.028407
0.098886
0.060936
0.0016189
0.090914
0.12249
0.099524
0.14034
0.12886
0.081346
0.052963
0.049137
0.036699
0.038612
0.023624
-0.057698
-0.10011
-0.049726
-0.005716
0.00098112
-0.076514
-0.032186
0.010548
-0.0050782
0.037018
0.050731
-0.0098618
-0.014645
0.049774
0.019478
-0.014645
0.012781
-0.07173
-0.069179
-0.04271
-0.03952
-0.034099
-0.0041214
-0.00029452
-0.018472
0.05105
0.074012
0.042758
0.02458
-0.016559
0.07433
0.063487
0.024899
0.022986
-0.040796
-0.027083
0.043077
0.031278
-0.043028
0.0019378
0.053601
0.026494
0.10782
0.10909
0.052326
0.023943
0.064763
0.05679
0.047223
0.0060837
-0.020386
-0.017516
-0.031548
-0.017835
0.019478
-0.019748
-0.011775
0.036061
0.087725
0.13588
0.11993
0.050093
0.05392
0.12791
0.09506
0.055515
0.050731
-0.012413
0.0131
0.070185
0.049137
0.0095917
0.038294
0.036699
-0.002208
0.049774
0.049774
0.040845
0.054877
0.026813
0.077838
0.058066
0.056471
0.049774
-0.023894
-0.012094
0.035742
0.029364
-0.050044
-0.012732
0.042439
0.03064
0.12249
0.074649
-0.0041214
-0.0050782
0.023624
-0.017197
-0.032186
-0.01337
-0.064714
-0.072687
-0.072687
-0.05419
0.00098112
-0.014964
-0.017516
0.0038513
0.043077
0.078476
0.063806
0.017246
0.025218
0.089957
0.072417
0.037656
0.026494
-0.04558
-0.038564
0.012143
0.0044891
-0.028359
0.020754
0.043077
0.021072
0.091233
0.09187
0.079114
0.078157
0.031915
0.059023
0.070185
0.069547
0.026494
-0.012413
-0.033461
0.033191
0.036699
-0.051001
0.019478
0.042758
0.022348
0.093146
0.060298
0.012781
0.035423
0.084536
0.038294
0.045947
0.072417
-0.0063538
-0.032823
-0.019429
-0.030591
0.010548
0.034467
0.050731
0.063487
0.092508
0.10877
0.093146
0.060298
0.021072
0.069866
0.02458
0.031596
0.046585
-0.03378
-0.033461
0.023305
0.033191
-0.053552
0.0131
0.031915
-0.031229
0.056153
0.06859
0.040207
0.014694
0.011505
0.028407
0.020754
0.020435
-0.017835
-0.05132
-0.060887
-0.023575
0.0099106
-0.03665
-0.00061343
0.065401
0.06285
0.12791
0.090914
0.03351
0.0064026
0.075606
0.06572
0.057747
0.035423
-0.0063538
-0.013051
-0.036331
-0.04271
-0.027402
0.0003433
0.0060837
-0.010181
0.047542
0.07146
0.061574
0.06572
0.017564
0.075287
0.078157
0.05679
0.044034
-0.016559
0.0054459
0.05105
0.042758
-0.012413
0.01597
0.0028946
0.0092728
0.1228
0.085492
0.037337
0.023624
0.018202
0.015651
0.028088
0.01884
-0.022618
-0.065352
-0.073963
-0.028996
0.027451
-0.005716
0.0025757
0.028407
0.02171
0.091233
0.079433
0.028088
0.039569
0.088362
0.043715
0.046904
0.057747
-0.017197
-0.031867
-0.0063538
0.00066221
-0.012413
0.047223
0.040526
-0.0015702
0.058704
0.085173
0.062212
0.045629
-0.0076295
0.073055
0.06859
0.014375
0.021391
-0.023575
-0.012732
0.064125
0.057109
-0.005716
0.047542
0.090276
0.046904
0.12791
0.10176
0.047542
0.074968
0.089638
0.044034
0.087725
0.10654
-0.014645
-0.075238
-0.064714
-0.036969
0.0131
-0.0018891
-0.029634
-0.033142
0.038612
0.092508
0.052326
-0.028359
-0.031229
0.059342
0.054877
0.015013
0.035104
-0.022618
-0.014964
0.054877
0.0070404
-0.023256
0.049455
0.063806
0.017883
0.080071
0.10654
0.092508
0.074649
0.010548
0.035423
0.035423
0.0044891
-0.0044404
-0.048131
-0.060569
-0.0069916
0.024899
-0.058017
0.0067215
0.069228
0.057747
0.12472
0.11324
0.048818
0.04531
0.029683
0.081028
0.032553
0.064125
-0.012732
-0.023256
-0.036969
-0.033142
0.017564
-0.0098618
-0.002208
-0.043028
0.00098112
0.069547
0.056153
0.016289
0.0025757
0.10973
0.073374
0.022667
0.026494
-0.038245
-0.033142
0.027451
0.040207
-0.051001
0.023943
0.068271
0.044672
0.10941
0.079114
0.05679
0.062212
0.044353
0.048818
0.066995
0.063806
0.033191
-0.041115
-0.021024
0.040207
-0.0095429
-0.031867
0.042121
0.037018
0.061893
0.12153
0.077838
-0.0053971
-0.0098618
0.019478
-0.0085862
0.011824
0.012781
-0.060569
-0.058336
-0.074601
-0.079703
-0.052915
-0.0076295
0.0057648
-0.020067
0.048818
0.069547
0.054877
0.042439
2.4388e-05
0.05392
0.022348
0.049774
0.042439
-0.074919
-0.047812
0.016608
-0.019429
-0.11223
-0.057061
-0.049088
-0.055785
0.027451
-0.0076295
-0.050682
-0.044942
-0.049088
-0.058017
-0.051958
-0.066947
-0.088952
-0.10235
-0.13487
-0.11829
-0.06886
-0.12371
-0.070455
-0.034099
-0.009224
0.053282
0.0095917
-0.022937
-0.036331
0.044353
-0.0047593
-0.061844
-0.066947
-0.054828
-0.015921
-0.038883
-0.062482
-0.051001
-0.026126
-0.045261
-0.030272
0.037656
0.055515
0.034786
-0.0047593
-0.065033
0.033191
0.041483
-0.0031647
-0.067903
-0.11032
-0.073963
-0.0047593
-0.016559
-0.11032
-0.090227
-0.039202
-0.083849
0.014694
0.020754
-0.020705
-0.022618
-0.009224
-0.030591
-0.027402
-0.021024
-0.06886
-0.070774
-0.089908
-0.055466
-0.020067
-0.039839
-0.032504
0.0035324
0.030959
0.071779
0.036061
-0.011775
-0.029634
0.054558
0.043396
0.011186
-0.010181
-0.1151
-0.060887
-0.016559
-0.014645
-0.065033
-0.023256
0.018521
-0.017835
0.058704
0.061574
0.049455
0.058385
0.0076782
0.055515
0.08326
0.05105
0.027132
0.016608
-0.044304
0.021391
0.02458
-0.035375
-0.024213
-0.013689
-0.023575
0.092508
0.052007
-0.0050782
-0.032186
-0.015283
-0.04558
-0.033142
-0.021343
-0.077471
-0.08927
-0.089589
-0.070774
-0.024851
-0.03091
-0.03665
-0.014008
0.036699
0.07433
0.050412
-0.00061343
-0.02198
0.083579
0.047861
-0.043666
-0.0028458
-0.090546
-0.046536
0.029364
0.0057648
-0.029634
-0.0066727
-0.01337
-0.032823
0.053601
0.058385
-0.0066727
0.028088
0.052007
0.041802
-0.013051
0.026813
-0.02517
-0.067266
-0.076833
-0.045899
0.014694
-0.063439
-0.055785
0.039569
0.033829
0.085173
0.052326
0.028407
0.038294
0.039888
-0.021024
0.037656
0.049137
-0.027721
-0.044304
-0.045899
-0.03952
-0.014964
0.022986
0.02777
0.012462
0.056471
0.08613
0.070185
0.03351
-0.013051
0.064125
0.044672
0.012143
0.011186
-0.052277
-0.058655
-0.00029452
-0.022937
-0.09246
-0.031229
-0.016559
-0.063758
0.03064
-0.014008
-0.016559
0.0076782
-0.014008
-0.022937
0.014375
0.013738
-0.024213
-0.022937
-0.050682
-0.03378
0.01884
-0.026764
-0.013051
0.043396
0.066039
0.094422
0.065082
0.026494
0.032872
0.071779
0.028726
-0.0060349
0.020435
-0.049407
-0.049088
-0.039202
-0.070455
-0.082892
-0.014008
0.018202
-0.02517
0.044034
0.0064026
-0.002208
0.022667
-0.034099
0.022986
0.024899
-0.014964
-0.039839
-0.10075
-0.10203
0.02171
0.0089539
-0.075557
-0.015921
0.031915
0.0044891
0.096335
0.06285
0.012781
0.02458
0.071141
0.0057648
-0.0085862
0.01597
-0.034099
-0.047174
-0.069817
-0.058336
-0.017197
-0.051001
-0.070136
-0.022299
0.025218
0.12025
0.082941
-0.0089051
0.01023
0.10526
0.074649
0.069547
0.15438
-0.01624
-0.092778
-0.0085862
0.063806
0.025856
0.034148
0.019478
-0.076833
-0.0069916
0.019478
0.050412
-0.0015702
-0.05419
-0.032504
-0.025488
-0.034099
-0.068541
-0.13902
-0.14763
-0.064077
-0.056423
-0.14699
-0.10681
-0.051639
-0.043347
0.035423
0.022348
-0.058336
-0.06312
-0.0038025
-0.018153
-0.010181
0.0079971
-0.029953
-0.037607
-0.039839
-0.0015702
0.06285
0.035104
0.043396
0.075287
0.10303
0.13142
0.085492
0.064444
0.063169
0.12663
0.081028
0.040207
0.03925
-0.050363
-0.04558
-0.021343
-0.033142
-0.026445
0.012781
0.02171
-0.02804
0.038294
0.036061
0.026813
0.026813
-0.0050782
0.023305
0.032872
0.026813
0.008635
-0.023894
-0.069817
0.01597
0.044672
-0.072687
-0.03378
0.0076782
0.014694
0.079114
0.03351
-0.046536
-0.035056
0.05679
0.0095917
-0.03952
-0.025807
-0.049088
-0.083849
-0.091184
-0.046536
-0.025807
0.0051269
0.0057648
-0.023894
0.041483
0.10782
0.084217
0.029045
-0.041434
0.031278
0.043077
0.035104
-0.009224
-0.082254
-0.1033
0.00066221
-0.0050782
-0.081298
0.0022568
0.020116
-0.026126
0.059342
0.06285
0.060617
0.034467
0.0131
0.039569
0.047223
0.050412
-0.005716
-0.04271
-0.036012
-0.002208
0.01597
-0.058974
-0.023575
0.021072
0.024899
0.093465
0.074968
-0.010819
-0.042391
0.043715
0.026494
-0.0073105
0.014056
-0.044304
-0.053552
-0.021024
0.0032135
-0.053234
-0.05132
0.038612
0.0051269
0.094741
0.07146
0.046266
0.052963
-0.002208
0.080709
0.041164
0.012143
0.0051269
-0.070136
-0.079065
-0.012413
-0.025488
-0.099476
-0.03665
0.02458
-0.029953
-0.00061343
0.008635
-0.0034836
0.004808
0.017564
0.016927
0.016608
0.037337
-0.012413
-0.052915
-0.073325
-0.018153
0.044672
-0.0098618
0.018521
-0.0105
0.031596
0.081346
0.078157
0.0016189
-0.002208
0.064444
0.00098112
-0.087038
-0.060569
-0.13551
-0.082573
-0.043347
-0.052596
-0.089908
-0.040477
-0.027721
-0.086081
-0.014645
0.07146
0.040845
0.008316
-0.031548
0.014694
0.033829
0.023624
-0.0025269
-0.057379
-0.056423
-0.0076295
-0.011775
-0.093735
-0.026126
0.013419
-0.020386
0.047542
0.044034
-0.010819
-0.0038025
0.028407
0.004808
0.010867
0.027132
-0.053871
-0.056423
-0.044304
-0.02517
0.023943
-0.0031647
0.021072
0.00098112
0.079114
0.14258
0.084854
-0.0060349
0.027132
0.12057
0.072417
0.0067215
0.00098112
-0.056742
-0.090227
0.019159
-0.018153
-0.097243
-0.029953
-0.0018891
-0.014964
0.042439
0.031596
0.01023
0.0099106
-0.024851
-0.0073105
0.015651
-0.015921
-0.050044
-0.14189
-0.12116
-0.049407
-0.026764
-0.13456
-0.12977
-0.097243
-0.058974
0.017883
0.052326
-0.039202
-0.061206
0.02458
-0.024851
-0.044942
0.023305
-0.022299
-0.0044404
-0.010181
-0.0079484
0.023305
0.04531
0.054558
0.035742
0.099843
0.11005
0.024899
0.055515
0.022029
0.099205
0.068271
0.012143
-0.0076295
-0.11829
-0.10171
2.4388e-05
-0.047493
-0.096605
-0.005716
0.0032135
-0.066947
0.014694
0.0016189
-0.00061343
-0.0053971
-0.019748
-0.012094
0.0022568
0.0054459
-0.029953
-0.070136
-0.085443
-0.044304
-0.0095429
-0.061206
-0.051958
-0.0050782
-0.011775
0.032234
0.044991
-0.048769
-0.043347
0.045947
-0.00093234
-0.012732
2.4388e-05
-0.087676
-0.081935
-0.084487
-0.079703
-0.047174
-0.0015702
-0.014964
-0.042072
0.015651
0.053601
0.033191
-0.029953
-0.031867
0.06285
0.0044891
-0.052915
-0.055147
-0.069498
-0.063439
-0.0085862
-0.015283
-0.089589
-0.01911
0.0089539
0.012143
0.08613
0.056471
0.014375
0.055515
0.092508
0.040207
0.050731
0.050412
-0.016878
-0.033461
-0.016878
-0.0031647
0.019159
-0.12754
-0.034099
-0.032504
0.019478
0.049455
-0.021024
-0.077471
-0.083849
0.0070404
-0.0076295
-0.041115
-0.048131
-0.13009
-0.11287
-0.058655
-0.051001
-0.064395
0.0041702
-0.0012513
-0.031229
0.042758
0.047861
0.02171
0.013738
-0.018791
0.024899
0.022029
-0.002208
-0.029634
-0.086081
-0.10203
-0.019748
-0.0041214
-0.10298
-0.056104
-0.0047593
-0.02198
0.04531
0.038294
-0.0041214
-0.0069916
0.035742
0.0038513
-0.0028458
-0.012094
-0.053871
-0.081617
-0.066628
-0.073644
-0.021343
-0.062482
-0.043985
-0.037288
-0.0095429
0.018521
-0.011775
-0.03378
-0.052277
0.040845
0.0092728
-0.03378
0.0016189
-0.076514
-0.11319
-0.047493
-0.047812
-0.066309
-0.002208
0.0025757
-0.018791
0.040207
0.036061
-0.0050782
0.050412
0.008635
0.041164
0.025856
-0.015283
-0.061844
-0.080022
-0.075876
0.0003433
0.0051269
-0.078427
-0.049088
0.016289
-0.01624
0.0089539
0.020754
-0.043985
-0.050044
0.02458
-0.016878
-0.034418
-0.032823
-0.059931
-0.11415
-0.090546
-0.061844
-0.0105
-0.022299
-0.033142
-0.032823
0.038294
0.071779
0.039569
0.011505
-0.0098618
0.06572
0.051688
-0.00029452
-0.0066727
-0.081935
-0.082892
-0.012413
-0.0044404
-0.086719
-0.00029452
0.013738
-0.041434
0.025856
0.021072
0.022348
0.011505
-0.005716
-0.0050782
0.0044891
0.0013
-0.038883
-0.078746
-0.086719
-0.043985
-0.016559
-0.090865
-0.055147
-0.014008
-0.0031647
0.055834
0.02777
-0.035694
-0.029953
0.041483
-0.0028458
-0.014964
0.0060837
-0.070774
-0.072687
-0.062163
-0.06025
-0.051001
-0.0031647
-0.0089051
-0.034099
0.024899
0.039888
0.025537
0.0044891
-0.032504
0.05105
0.03638
-0.010181
-0.017516
-0.073963
-0.065352
0.0003433
-0.0053971
-0.084168
-0.046218
-0.047812
-0.035694
0.057428
0.030002
-0.0063538
0.0070404
-0.024851
-0.060887
-0.034737
-0.051639
-0.079065
-0.094054
-0.16326
-0.16645
-0.090227
-0.10266
-0.068541
-0.03378
-0.05132
-0.0044404
-0.032186
-0.094054
-0.045261
0.023943
0.020754
-0.0082673
-0.0012513
-0.086081
-0.074282
-0.0012513
0.0070404
-0.020705
0.03925
0.038931
0.0044891
0.073055
0.083579
0.057747
0.040845
0.0057648
0.073055
0.056471
0.022348
-0.0073105
-0.076514
-0.066628
0.011824
0.00098112
-0.1049
-0.037607
0.0060837
-0.026126
0.053282
0.031278
-0.020067
-0.024851
0.012143
-0.025488
-0.024213
-0.010819
-0.069498
-0.085762
-0.095011
-0.080979
-0.03665
-0.057379
-0.043347
-0.031548
0.0054459
0.052645
0.017883
-0.037607
-0.042391
0.049455
0.022029
-0.017835
0.0035324
-0.069179
-0.079065
-0.027083
-0.026126
-0.061525
0.013738
0.013738
-0.017197
0.053601
0.028726
0.019159
0.016608
-0.051639
-0.029953
-0.014645
-0.021661
-0.05132
-0.10681
-0.13647
-0.054509
-0.084487
-0.14827
-0.13456
-0.032823
-0.024532
0.052007
0.032553
-0.019429
-0.030591
0.020754
-0.0095429
-0.0012513
0.016608
-0.041434
-0.041434
-0.04271
-0.043347
-0.017516
-0.01624
-0.013689
-0.021024
0.022348
0.060936
0.028726
-0.016559
-0.036969
0.049137
0.021391
-0.03091
-0.022299
-0.096605
-0.090865
-0.02198
-0.026764
-0.11032
-0.034737
-0.016878
-0.050682
0.028726
0.022348
0.0060837
0.0032135
-0.015921
-0.010819
-0.0076295
-0.0085862
-0.03952
-0.078427
-0.084487
-0.03665
-0.0044404
-0.081935
-0.039202
0.0073593
0.0076782
0.067314
0.041483
-0.022618
-0.016878
0.053282
0.010548
-0.0089051
0.0092728
-0.061525
-0.061844
-0.05419
-0.051001
-0.041753
0.00066221
-0.0047593
-0.027083
0.036699
0.05679
0.034467
0.020435
-0.015283
0.06285
0.033829
-0.00061343
-0.0044404
-0.064077
-0.06599
0.0019378
-0.011775
-0.080979
-0.0028458
-0.0060349
-0.035694
0.044991
0.02171
0.0073593
-0.043985
-0.034099
-0.058336
-0.050363
-0.02198
-0.072368
-0.10171
-0.12276
-0.084168
-0.043985
-0.09246
-0.06599
-0.009224
0.01023
0.078157
0.038931
-0.026126
-0.034099
0.07146
0.042439
0.015651
0.0092728
-0.067903
-0.067585
-0.039202
-0.040477
-0.064395
-0.0066727
-0.014327
-0.04558
0.023305
0.035742
0.017564
-0.0038025
-0.032823
0.015651
0.0022568
-0.035375
-0.041753
-0.083849
-0.083211
-0.022299
-0.020386
-0.10362
-0.055147
-0.024532
-0.031229
0.047223
0.020116
-0.011456
-0.0050782
0.016608
-0.024213
-0.020705
-0.0066727
-0.059931
-0.076195
-0.08927
-0.076833
-0.032186
-0.056104
-0.042391
-0.027083
0.0073593
0.053282
0.018202
-0.037926
-0.041434
0.050412
0.022348
-0.025488
-0.013689
-0.088633
-0.080022
-0.029315
-0.033461
-0.075557
-0.002208
0.0003433
-0.037607
0.041164
0.039569
0.02777
0.026813
-0.0079484
0.0067215
0.012143
-0.002208
-0.034418
-0.085762
-0.095968
-0.018153
-0.0095429
-0.090865
-0.047174
-0.014008
-0.026445
0.040207
0.023305
-0.029634
-0.03091
0.025537
-0.024851
-0.021343
-0.021343
-0.11032
-0.0982
-0.10841
-0.10649
-0.086081
-0.062482
-0.064395
-0.070136
-0.01337
0.017246
-0.0018891
-0.062482
-0.053552
0.052007
0.023305
-0.013689
-0.014008
-0.093416
-0.069498
0.020754
0.014694
-0.064395
0.0016189
0.0079971
-0.014327
0.063169
0.060936
0.040207
0.028726
0.0003433
-0.00029452
0.013738
0.0044891
-0.029634
-0.084487
-0.08353
-0.033461
-0.011775
-0.089908
-0.046855
-0.005716
-0.0063538
0.044991
0.036699
-0.025488
-0.017197
0.05392
0.0095917
-0.03091
0.0025757
-0.058974
-0.066947
-0.05419
-0.052915
-0.041753
-0.011456
-0.014645
-0.034099
0.024262
0.046266
0.018202
-0.0031647
-0.035375
0.044353
0.026813
-0.017516
-0.021024
-0.085443
-0.083849
-0.009224
-0.010819
-0.098838
-0.02804
-0.002208
-0.024851
0.049774
0.030002
0.0076782
0.015332
0.0032135
-0.038245
-0.021343
-0.0044404
-0.058336
-0.097881
-0.10171
-0.070136
-0.041434
-0.10362
-0.083849
-0.062163
-0.03665
0.045629
-0.0038025
-0.050363
-0.04845
0.044353
0.0057648
-0.030591
0.0051269
-0.081617
-0.060569
-0.036331
-0.026445
-0.052596
0.02777
0.029045
-0.011137
0.063487
0.065082
0.043077
0.026813
-0.012413
0.048499
0.036061
2.4388e-05
-0.016559
-0.08066
-0.086719
-0.01337
-0.011775
-0.095011
-0.037926
-0.002208
-0.015602
0.066358
0.061255
0.0076782
-0.020386
0.025218
0.012143
0.0054459
0.018202
-0.035694
-0.05132
-0.064714
-0.05419
-0.011775
-0.039202
-0.029634
-0.010819
0.021072
0.064444
0.029045
-0.029315
-0.030272
0.059023
0.027132
-0.017516
0.0035324
-0.062163
-0.069498
-0.027402
-0.020705
-0.064395
0.0054459
0.011505
-0.023256
0.056153
0.047861
0.031278
0.016289
-0.028996
-0.0038025
-0.009224
-0.014964
-0.038883
-0.088952
-0.10522
-0.047174
-0.035694
-0.10936
-0.052277
-0.070136
-0.060887
0.020116
0.004808
-0.060569
-0.066309
-0.010181
-0.04845
-0.052277
-0.024213
-0.069817
-0.085762
-0.096605
-0.076195
-0.042391
-0.020386
-0.016559
-0.014645
0.044991
0.099205
0.074012
0.017246
-0.012413
0.091552
0.067633
0.023624
0.018202
-0.058017
-0.059293
0.0057648
-0.0034836
-0.08066
-0.0038025
0.00066221
-0.033142
0.05105
0.037656
0.016608
0.0079971
-0.017516
-0.0073105
-0.0034836
-0.0076295
-0.049407
-0.074282
-0.090227
-0.04271
-0.02198
-0.090865
-0.043985
-0.0028458
0.0032135
0.06859
0.03351
-0.036969
-0.028996
0.05679
0.017246
-0.0105
0.011186
-0.065033
-0.062163
-0.051639
-0.051958
-0.040158
-0.0076295
-0.0063538
-0.031548
0.028726
0.048499
0.026494
0.0016189
-0.027402
0.056471
0.041164
-0.029315
-0.037288
-0.10968
-0.10171
-0.026126
-0.030272
-0.10553
-0.035375
-0.013689
-0.051639
0.027132
-0.0063538
-0.012413
-0.035375
-0.020386
-0.048769
-0.034418
-0.033461
-0.074282
-0.097562
-0.10458
-0.086081
-0.052596
-0.11287
-0.10809
-0.041434
-0.020705
0.038931
0.0051269
-0.050682
-0.052277
0.022348
-0.0063538
-0.018791
0.0060837
-0.067903
-0.069817
-0.027402
-0.03091
-0.044942
0.019478
0.020435
-0.015921
0.053282
0.071779
0.052007
0.032234
-0.0085862
0.052645
0.040526
0.008635
-0.010819
-0.073325
-0.074601
0.0057648
-0.00093234
-0.081617
-0.015602
0.011505
-0.017197
0.063806
0.043396
0.0032135
-0.00061343
0.035104
-0.0041214
-0.002208
0.0041702
-0.049088
-0.061206
-0.07779
-0.058336
-0.014964
-0.043985
-0.033142
-0.012094
0.017883
0.048818
0.016289
-0.03091
-0.034418
0.062212
0.028407
-0.020386
-0.014964
-0.088314
-0.076195
-0.028678
-0.029953
-0.073325
-0.0050782
0.00098112
-0.030591
0.037018
0.027451
0.023624
0.017883
-0.021343
0.014694
0.0099106
-0.0098618
-0.032823
-0.081298
-0.098838
-0.032186
-0.0034836
-0.091503
-0.056104
-0.00029452
-0.0041214
0.057109
0.021391
-0.055466
-0.029953
0.04531
-0.0082673
-0.028996
-0.012094
-0.075876
-0.095011
-0.0982
-0.077152
-0.037288
-0.036331
-0.037607
-0.027721
0.010548
0.059661
0.031596
-0.01624
-0.022937
0.069547
0.043396
0.0022568
0.0067215
-0.076195
-0.082892
-0.0018891
-0.0050782
-0.073006
-0.0028458
0.0073593
-0.031548
0.046266
0.039888
0.021391
0.017246
-0.0060349
-0.00061343
-0.00029452
0.00066221
-0.034418
-0.073644
-0.079065
-0.037926
-0.015602
-0.083849
-0.045899
-0.0047593
-0.00061343
0.066995
0.036699
-0.025488
-0.02804
0.045947
0.0092728
-0.0105
0.0067215
-0.060887
-0.061525
-0.052915
-0.051958
-0.044623
-0.0098618
-0.0044404
-0.029953
0.029045
0.049137
0.02458
-0.002208
-0.031867
0.045947
0.030959
-0.014327
-0.016878
-0.088633
-0.099794
-0.016559
-0.017516
-0.096605
-0.027721
-0.0063538
-0.039202
0.038612
0.031596
0.016608
0.0051269
0.008635
-0.016878
-0.0041214
0.0092728
-0.034737
-0.072049
-0.078746
-0.034418
-0.0089051
-0.075557
-0.062163
-0.0063538
0.013419
0.049137
0.012781
-0.04845
-0.050682
-0.0015702
-0.036331
-0.058336
-0.023575
-0.10266
-0.10266
-0.072687
-0.069498
-0.084806
-0.034099
-0.011456
-0.041434
0.028407
0.046585
0.036699
0.014375
-0.017197
0.04531
0.048499
0.020435
-0.00093234
-0.071411
-0.087676
0.0041702
-0.002208
-0.085762
-0.026126
0.0095917
-0.019429
0.05679
0.039888
0.0019378
0.0003433
0.026494
-0.011456
-0.0095429
0.0044891
-0.048769
-0.063758
-0.074601
-0.06025
-0.021343
-0.044942
-0.032504
-0.014645
0.01884
0.066358
0.029045
-0.024532
-0.030591
0.059342
0.022348
-0.0069916
0.0022568
-0.076833
-0.075238
-0.025488
-0.028359
-0.067903
0.0064026
0.0057648
-0.034418
0.046904
0.041802
0.016289
0.0131
-0.029953
0.0079971
0.013738
-0.009224
-0.045899
-0.094054
-0.10266
-0.042072
-0.024532
-0.10426
-0.058336
-0.032823
-0.041115
0.046585
0.029683
-0.029315
-0.034099
0.018202
-0.016559
-0.018791
0.0070404
-0.048769
-0.078746
-0.078109
-0.071093
-0.040477
-0.031229
-0.027083
-0.024851
0.02458
0.055515
0.025218
-0.024213
-0.029315
0.046585
0.032553
-0.01911
-0.0044404
-0.079065
-0.078109
-0.013689
-0.013689
-0.088314
-0.012413
0.0035324
-0.031867
0.043396
0.035104
0.018202
0.010867
-0.017835
-0.0063538
-0.0063538
2.4388e-05
-0.040158
-0.078746
-0.088314
-0.055466
-0.023256
-0.092141
-0.053871
0.0019378
2.4388e-05
0.056153
0.032553
-0.029315
-0.028359
0.042758
0.0044891
-0.016878
0.0073593
-0.057698
-0.052915
-0.059293
-0.058974
-0.044942
0.0051269
-0.0034836
-0.027083
0.033829
0.054239
0.030002
0.0064026
-0.025807
0.03925
0.020754
-0.019748
-0.017835
-0.091822
-0.087357
-0.024213
-0.02198
-0.11223
-0.046536
-0.023575
-0.047174
0.032234
0.018202
-0.0044404
-0.0041214
-0.014327
-0.035375
-0.0105
0.0038513
-0.045899
-0.070774
-0.081935
-0.05132
-0.013689
-0.066309
-0.03665
0.00098112
0.021072
0.073693
0.03638
-0.023575
-0.019748
0.062212
0.019797
-0.0079484
0.0070404
-0.067266
-0.064077
-0.048769
-0.03378
-0.050363
-0.0060349
-0.017516
-0.041753
0.025218
0.036061
0.022029
0.0032135
-0.026445
0.019159
0.00098112
-0.005716
-0.036331
-0.093735
-0.097562
-0.015921
-0.0098618
-0.095011
-0.041753
-0.0038025
-0.026445
0.047542
0.035104
-0.0038025
-0.015283
0.011186
-0.023256
-0.014327
-0.0050782
-0.052596
-0.073963
-0.080979
-0.074919
-0.03378
-0.050363
-0.028678
-0.012413
0.01884
0.06859
0.041164
-0.015283
-0.024532
0.069547
0.044672
0.0003433
0.008635
-0.062482
-0.061206
-0.0105
-0.02517
-0.056742
0.011824
0.004808
-0.029634
0.045947
0.031915
0.020116
0.015013
-0.021024
0.014056
0.0067215
-0.023894
-0.044304
-0.10266
-0.11096
-0.045261
-0.032186
-0.11446
-0.066628
-0.021661
-0.029953
0.039888
0.017246
-0.03665
-0.03091
0.021391
-0.0085862
-0.010181
-0.00029452
-0.058017
-0.060569
-0.066309
-0.059612
-0.019748
-0.018791
-0.011137
-0.012094
0.038612
0.072417
0.039569
-0.0025269
-0.019429
0.071779
0.050093
0.0044891
-0.014008
-0.09246
-0.073963
-0.005716
-0.0053971
-0.076195
-0.014008
-0.0034836
-0.040796
0.029364
0.014056
0.012143
0.011824
-0.016559
-0.019748
-0.012094
-0.015283
-0.05132
-0.083211
-0.0864
-0.03665
-0.018791
-0.10362
-0.060569
-0.0076295
-0.0018891
0.059342
0.040526
-0.022618
-0.017516
0.05105
0.0131
-0.033142
-0.0018891
-0.061844
-0.06025
-0.051958
-0.051958
-0.030272
0.0067215
-0.011456
-0.018153
0.03351
0.040526
0.032553
0.0032135
-0.024851
0.057109
0.035742
-0.011456
-0.014008
-0.087357
-0.088314
-0.013051
-0.022618
-0.10649
-0.020067
2.4388e-05
-0.040477
0.039569
0.029364
0.0038513
-0.00061343
0.0003433
-0.025488
-0.014327
-0.0050782
-0.052915
-0.081935
-0.093735
-0.062482
-0.023575
-0.084168
-0.057698
-0.017516
0.0028946
0.058704
0.028726
-0.036331
-0.037288
0.052326
0.020116
-0.017197
0.0089539
-0.065671
-0.06599
-0.035056
-0.036012
-0.050044
0.0099106
0.0070404
-0.023894
0.047223
0.052645
0.030321
0.026494
-0.015283
0.046904
0.03638
0.00066221
-0.021024
-0.085762
-0.081935
-0.0076295
-0.011775
-0.10872
-0.043985
-0.012094
-0.044304
0.032234
0.023305
-0.009224
-0.017835
0.0003433
-0.035694
-0.036331
-0.014008
-0.059931
-0.078109
-0.097243
-0.084487
-0.033142
-0.06886
-0.059612
-0.035694
0.0099106
0.058385
0.02171
-0.044304
-0.052277
0.033191
0.01023
-0.015283
-0.009224
-0.080341
-0.072368
-0.032504
-0.028996
-0.072368
0.0076782
0.008635
-0.038883
0.028088
0.046585
0.034786
0.026813
-0.01337
0.00066221
0.0057648
-0.015921
-0.039202
-0.08927
-0.0864
-0.017516
-0.013051
-0.094373
-0.041753
0.0089539
-0.012094
0.057109
0.045629
0.012143
0.0076782
0.049774
0.015013
0.0041702
0.020116
-0.035375
-0.041434
-0.050682
-0.047493
-0.013689
-0.011456
-0.013051
-0.015283
0.041483
0.074649
0.041164
-0.0034836
-0.020386
0.071779
0.042121
-0.0034836
0.0067215
-0.064077
-0.06312
-0.0047593
-0.0041214
-0.064395
0.00066221
0.014694
-0.038883
0.047223
0.044672
0.026494
0.019797
-0.014964
-0.01624
-0.0085862
-0.0073105
-0.052596
-0.10426
-0.11287
-0.068541
-0.038564
-0.10936
-0.073325
-0.041753
-0.035694
0.023943
0.0092728
-0.045261
-0.053871
0.01597
-0.021343
-0.043985
-0.0073105
-0.07779
-0.087038
-0.079065
-0.075557
-0.053871
-0.020067
-0.014645
-0.037926
0.029364
0.058066
0.035423
0.0054459
-0.036331
0.06572
0.032872
0.008635
0.00098112
-0.061844
-0.075557
0.00098112
0.0032135
-0.074282
-0.009224
0.012781
-0.024851
0.052645
0.047223
0.023943
0.016927
0.018521
-0.002208
0.010548
0.015651
-0.036331
-0.06025
-0.061844
-0.064077
-0.029634
-0.066947
-0.036331
-0.0089051
-0.002208
0.052963
0.023305
-0.042072
-0.044304
0.046266
0.0095917
-0.01911
-0.0015702
-0.074919
-0.063758
-0.036969
-0.042391
-0.050682
-0.0034836
-0.0044404
-0.034099
0.046266
0.051688
0.027451
0.012781
-0.033142
0.020435
0.026813
-0.017197
-0.029634
-0.085762
-0.094373
-0.014327
-0.0050782
-0.10266
-0.037288
-0.0047593
-0.029634
0.05392
0.038931
-0.0079484
-0.011775
0.02171
-0.021343
-0.012413
0.012462
-0.068541
-0.074601
-0.085125
-0.069498
-0.028996
-0.086081
-0.056104
-0.038564
-0.0034836
0.047542
0.015013
-0.03665
-0.053871
0.043077
0.021391
-0.023256
-0.026445
-0.10011
-0.073963
-0.015602
-0.020386
-0.056423
0.017883
0.00098112
-0.022618
0.054877
0.050412
0.052007
0.053601
0.00098112
0.02777
0.029045
0.011186
-0.0066727
-0.064714
-0.075876
-0.0069916
0.0028946
-0.084168
-0.035056
-0.0069916
-0.02198
0.052645
0.033191
-0.015921
-0.018472
0.029045
-0.013689
-0.02198
-0.005716
-0.072049
-0.075876
-0.073325
-0.066947
-0.03665
-0.03665
-0.023575
-0.023894
0.017883
0.060617
0.028407
-0.011775
-0.028359
0.06859
0.03925
-0.009224
-0.00093234
-0.071093
-0.09533
-0.014964
-0.009224
-0.073963
-0.0034836
-0.014964
-0.061206
0.039569
0.030002
0.01597
0.025537
-0.02517
-0.020067
-0.028359
-0.029634
-0.053871
-0.11
-0.10809
-0.044942
-0.01337
-0.10298
-0.056104
0.00098112
-0.016559
0.053601
0.034148
-0.018153
-0.016878
0.060936
0.021391
-0.0012513
0.019478
-0.048769
-0.050363
-0.042391
-0.038245
-0.016878
0.016289
0.010867
-0.0079484
0.045947
0.06572
0.034148
0.014694
-0.0060349
0.072736
0.058704
0.013738
0.0067215
-0.076195
-0.083211
0.0089539
0.008635
-0.079703
-0.011775
-0.00061343
-0.030272
0.047542
0.028726
0.0038513
0.0044891
0.0041702
-0.012094
-0.0076295
-0.0063538
-0.050363
-0.078427
-0.087995
-0.052915
-0.015602
-0.066309
-0.043666
-0.0012513
0.0057648
0.065082
0.039569
-0.03091
-0.024851
0.066995
0.020435
-0.019429
0.0016189
-0.069817
-0.069817
-0.053234
-0.056742
-0.065671
-0.0041214
-0.0073105
-0.047493
0.024899
0.039888
0.024899
-0.0053971
-0.050363
0.0038513
-0.019748
-0.043028
-0.059293
-0.11765
-0.11957
-0.029634
-0.024851
-0.11893
-0.066309
-0.032186
-0.050044
0.038294
0.032553
0.011824
0.0131
0.030959
0.015651
0.017246
0.037975
-0.022937
-0.027402
-0.036969
-0.029953
0.010548
-0.024851
-0.0098618
0.017246
0.048818
0.090914
0.064444
-0.020705
-0.024213
0.071779
0.04531
0.004808
0.012462
-0.061844
-0.058336
-0.016878
-0.017197
-0.056104
0.014375
0.015332
-0.026764
0.05392
0.052963
0.038294
0.032553
-0.0044404
0.02777
0.024899
0.0019378
-0.024213
-0.078746
-0.082892
-0.018153
-0.0063538
-0.096605
-0.049088
-0.00061343
-0.01911
0.050093
0.029683
-0.022299
-0.024532
0.020116
-0.022299
-0.018791
0.0041702
-0.057061
-0.071411
-0.073006
-0.071411
-0.035056
-0.031548
-0.026764
-0.021343
0.028726
0.06285
0.031278
-0.014008
-0.037926
0.059661
0.047223
-0.0015702
-0.002208
-0.082254
-0.080022
-0.011137
-0.03378
-0.10043
-0.03665
-0.017197
-0.050682
0.032553
0.01597
0.0089539
-0.005716
-0.032186
-0.011775
-0.0105
-0.016878
-0.054509
-0.070455
-0.08066
-0.026126
0.0095917
-0.069179
-0.037926
-0.00029452
0.012462
0.076882
0.053601
-0.0025269
-0.0028458
0.055196
0.008635
-0.0050782
0.0051269
-0.067585
-0.067585
-0.072049
-0.066628
-0.047493
-0.012732
-0.020705
-0.031867
0.038612
0.047542
0.031278
-0.020386
-0.030272
0.059979
0.046585
0.0051269
-0.0079484
-0.067903
-0.072049
-0.0069916
-0.015921
-0.084806
-0.022618
-0.0073105
-0.027721
0.049137
0.037337
-0.005716
-0.022618
-0.014008
-0.022937
-0.022618
-0.017197
-0.042072
-0.063758
-0.091184
-0.061844
-0.024213
-0.08066
-0.054509
-0.0085862
0.017564
0.057428
0.038612
-0.030272
-0.034737
0.046904
0.008635
-0.020386
-0.010819
-0.073963
-0.064714
-0.059293
-0.074919
-0.10458
-0.024532
-0.032504
-0.069179
-0.0050782
0.0054459
-0.0031647
-0.014645
-0.040158
0.017883
0.02171
-0.018472
-0.037607
-0.078109
-0.079065
0.0013
0.022986
-0.082254
-0.015283
0.032234
0.0019378
0.088362
0.058385
0.015013
0.015651
0.033191
-0.01911
0.0016189
0.016289
-0.030272
-0.053234
-0.080022
-0.059931
-0.009224
-0.04845
-0.039839
-0.03091
0.032234
0.063487
0.029045
-0.015283
-0.028996
0.052007
0.034148
-0.01624
-0.021343
-0.096924
-0.085762
-0.041753
-0.03952
-0.084487
-0.026764
-0.03091
-0.063439
0.027451
0.017564
-0.033461
-0.011137
-0.047493
-0.02517
-0.00061343
-0.02198
-0.032823
-0.093735
-0.082573
-0.038883
2.4388e-05
-0.082892
-0.067266
-0.017516
0.0025757
0.087406
0.060617
0.017564
-0.0047593
0.071779
0.028726
0.026494
0.0070404
-0.0073105
-0.016559
-0.011775
-0.011456
0.02171
0.0032135
-0.035694
-0.017197
0.03925
0.083898
0.057747
-0.002208
-0.061206
0.021391
-0.030591
-0.067585
-0.053871
-0.16421
-0.169
-0.088633
-0.090865
-0.15943
-0.069179
-0.056742
-0.088952
0.0073593
-0.011456
-0.041115
-0.027083
-0.0089051
0.020116
0.03351
-0.00093234
-0.015283
-0.039839
-0.072049
-0.026126
0.0073593
-0.052915
-0.027721
0.016608
0.0076782
0.065082
0.035104
-0.0089051
-0.021024
0.047223
-0.005716
-0.011775
0.025537
-0.087038
-0.080022
-0.062163
-0.045899
-0.044304
0.0019378
-0.013051
-0.029634
0.048818
0.096016
0.017883
-0.021343
-0.077471
0.021072
0.014056
-0.028678
-0.0066727
-0.0864
-0.074601
0.017246
0.037337
-0.094692
-0.012094
0.02171
0.0044891
0.081665
0.088362
0.092508
0.097611
0.096973
0.084217
0.081984
0.096016
0.045947
0.0064026
-0.017197
0.042758
0.078795
0.0003433
-0.0034836
0.041483
0.037975
0.078795
0.016927
-0.084806
-0.033142
0.057109
0.033191
-0.024213
-0.041434
-0.13934
-0.1218
-0.074282
-0.06599
-0.079065
-0.018472
-0.0079484
-0.029953
-0.0044404
-0.0047593
-0.010181
-0.043347
-0.10011
-0.01624
-0.050363
-0.081935
-0.12244
-0.19866
-0.20918
-0.076514
-0.058017
-0.14859
-0.11989
-0.11415
-0.12339
0.0095917
0.012462
-0.026126
-0.0050782
0.044991
-0.0060349
-0.0098618
-0.018153
-0.060569
-0.079065
-0.055147
-0.02804
0.0003433
-0.046536
-0.039839
0.0060837
0.043077
0.080709
0.088681
0.063806
0.040207
0.13173
0.11675
0.078157
0.085173
-0.00061343
0.020116
0.069228
0.055515
0.040845
0.087406
0.13524
0.028407
0.060617
0.096335
0.10622
0.093465
0.040845
0.083579
0.07752
0.05392
0.031915
0.0032135
-0.00061343
0.053601
0.050412
-0.041434
0.0044891
0.067314
0.052645
0.11228
0.060936
-0.01624
-0.044304
0.0022568
-0.081935
-0.11319
-0.069498
-0.067266
-0.087995
-0.1859
-0.2331
-0.16007
-0.13679
-0.15592
-0.10107
-0.035056
0.014694
-0.013051
-0.081617
-0.098838
0.032553
0.058385
0.008635
0.032553
-0.032504
-0.029953
0.032553
0.045629
2.4388e-05
0.061255
0.08613
0.058066
0.11388
0.099843
0.066039
0.015332
-0.037288
0.0067215
0.0028946
-0.020386
-0.07779
-0.11383
-0.12371
-0.091822
-0.043028
-0.11064
-0.063439
-0.032186
-0.020705
0.025218
0.00098112
-0.025807
-0.0041214
0.075606
0.049137
0.033829
-0.0041214
-0.082254
-0.087357
-0.072049
-0.051639
-0.043028
-0.015921
-0.039202
-0.079703
0.0022568
0.020435
0.022348
-0.018791
-0.048131
0.050731
0.056153
0.023943
0.027451
-0.027721
-0.042391
0.037337
0.044353
-0.030591
0.048499
0.066677
0.008635
0.042121
0.046266
0.036699
0.050093
0.017564
0.0099106
0.022986
0.022348
-0.040158
-0.036012
-0.034418
0.01597
0.058704
-0.021343
-0.00061343
0.040207
0.072417
0.18021
0.12185
0.031278
0.038294
0.13014
0.049137
0.0073593
0.037975
-0.06312
-0.069817
-0.033142
-0.035056
-0.05419
-0.0034836
-0.012413
-0.080979
-0.017835
0.0044891
-0.026764
-0.044623
-0.069817
-0.043985
-0.060569
-0.12244
-0.1387
-0.13264
-0.13615
-0.080979
-0.11383
-0.19674
-0.067585
-0.020705
-0.051958
0.025537
0.037975
-0.00061343
-0.0076295
0.059979
0.032234
0.042758
0.05679
-0.021024
-0.040477
-0.073325
-0.08353
-0.0047593
-0.036331
-0.037288
-0.0095429
0.0095917
0.027132
0.0089539
-0.032823
-0.018153
0.093784
0.063169
0.0089539
0.021072
-0.025488
-0.01911
0.024262
0.038294
-0.04558
0.02777
0.075606
0.028088
0.03351
0.04818
-0.013689
-0.0012513
-0.028996
-0.049407
-0.0063538
-0.046536
-0.099157
-0.11223
-0.10649
-0.0082673
0.0070404
-0.08066
-0.043347
-0.034418
0.013738
0.10016
0.093146
0.042758
0.069547
0.11579
0.015651
0.03638
0.053601
-0.015602
-0.02198
-0.03665
-0.0060349
0.014375
-0.016559
0.01597
0.035742
0.10463
0.11738
0.070822
0.022348
0.0022568
0.098568
0.045629
-0.0063538
-0.012094
-0.077471
-0.077152
-0.019429
-0.0079484
-0.095649
-0.035694
-0.038564
-0.081298
0.0070404
0.010548
0.014694
0.02171
0.0131
0.054877
0.065401
0.052007
0.0032135
-0.06312
-0.095011
-0.012413
0.020435
-0.041434
0.0057648
-0.025807
-0.011456
0.072736
0.030002
-0.026764
-0.02804
0.069866
-0.0095429
-0.046536
-0.028678
-0.061844
-0.024213
0.0025757
0.01884
0.008635
0.0070404
0.036699
0.045629
0.10654
0.12121
0.061893
0.026494
0.0070404
0.078795
0.096016
0.11706
0.044991
-0.042072
-0.043666
0.022029
0.022986
-0.050044
-0.0085862
-0.0025269
-0.034737
0.038294
0.03064
-0.0066727
-0.021024
-0.025488
-0.078109
-0.061525
-0.063758
-0.087357
-0.097881
-0.11
-0.065352
-0.016878
-0.076195
-0.061525
-0.002208
0.011824
0.10654
0.061574
-0.0085862
0.016289
0.11037
0.059023
0.0019378
0.025537
-0.047493
-0.048131
-0.014964
-0.014645
-0.045261
0.036061
0.033191
0.0044891
0.075606
0.081028
0.069547
0.052963
0.03064
0.1346
0.10654
0.050093
0.040526
-0.01337
-0.031867
0.059342
0.075925
-0.022299
0.0092728
0.063806
0.032234
0.07146
0.039569
0.03925
0.016608
0.039888
0.00098112
-0.040158
-0.032823
-0.055466
-0.018153
-0.055785
-0.095649
-0.058974
-0.084806
-0.033142
-0.043028
-0.016878
0.036061
-0.011137
-0.076195
-0.074282
0.045629
-0.0079484
-0.098838
-0.070774
-0.086719
-0.065033
-0.072049
-0.071093
-0.092778
0.011186
0.050412
-0.0082673
0.074649
0.075925
0.065401
0.060617
0.022348
0.087725
0.12089
0.044672
-0.0015702
-0.047493
-0.047174
0.0013
0.0016189
-0.10266
-0.038564
0.0060837
-0.022299
0.043715
0.034148
0.0013
-0.066309
-0.032186
-0.08066
-0.044623
-0.014964
-0.057061
-0.092778
-0.11797
-0.029634
-0.041753
-0.002208
0.023305
-0.011137
0.01597
0.041164
0.1008
0.052007
-0.0041214
0.10845
0.098886
0.043396
0.049137
0.0067215
0.012143
0.03638
0.021391
0.00098112
0.060298
0.046585
-0.009224
0.05105
0.074012
0.033191
0.020116
0.022029
0.046904
0.015651
-0.0095429
-0.04845
-0.12435
-0.12435
-0.074282
-0.032504
-0.084487
-0.044623
-0.0089051
0.00098112
0.12631
0.10335
0.0051269
0.0016189
0.076244
0.028407
0.00098112
0.018521
-0.07779
-0.11319
-0.0015702
-0.0076295
-0.026126
-0.017835
-0.024532
-0.060569
0.00098112
0.024899
0.0089539
-0.014964
-0.028359
0.078157
0.075287
0.022986
0.031915
-0.034099
-0.041115
0.016289
0.010867
-0.073006
-0.017197
0.050412
0.016289
0.11069
0.056471
0.0095917
0.0060837
0.0054459
-0.0050782
0.049137
0.043077
-0.012094
-0.034099
-0.024213
0.00066221
0.037975
-0.016878
-0.017835
0.0044891
0.044353
0.099843
0.093784
0.0070404
-0.020386
0.093465
0.062531
0.010548
0.00098112
-0.090865
-0.1151
-0.065671
-0.036969
-0.0015702
0.062212
0.021391
-0.041753
0.0022568
0.039569
0.016289
0.0099106
-0.052277
0.0041702
-0.069817
-0.1033
-0.025488
-0.096924
-0.18431
-0.082254
-0.078427
-0.17665
-0.10809
-0.048131
-0.075238
0.01023
2.4388e-05
-0.0089051
0.015651
0.05105
0.049774
0.026494
0.03351
0.010548
-0.011456
-0.044942
-0.056423
0.0022568
-0.060887
-0.017835
0.029364
0.041164
0.07433
0.029683
-0.047174
-0.058017
0.041164
0.014375
-0.0050782
0.022029
-0.056423
-0.047493
-0.0063538
-0.0089051
-0.00093234
0.061255
0.048818
0.011505
0.08326
0.089319
0.059661
0.0073593
0.0051269
0.051369
0.040207
0.0035324
-0.021343
-0.076195
-0.098838
-0.002208
0.0057648
-0.080341
-0.0044404
0.023305
0.012462
0.13556
0.090595
0.05679
0.12695
0.14003
0.054877
0.05392
0.037975
-0.034099
-0.018472
-0.047174
-0.059612
0.0041702
-0.037607
-0.061206
-0.063439
-0.043347
-0.030272
-0.052596
-0.090227
-0.097562
0.010548
-0.0095429
-0.046855
-0.036331
-0.11032
-0.10968
-0.028996
-0.013051
-0.078109
-0.0085862
0.0067215
-0.034737
0.049137
0.04818
0.054877
0.05392
0.0032135
0.021391
0.048499
0.052326
-0.012413
-0.0982
-0.089589
-0.015283
0.030321
-0.050044
-0.014964
0.040526
0.022986
0.074649
0.061893
0.0051269
0.015332
0.070822
0.030959
0.03638
0.051369
-0.031548
-0.030591
-0.02517
-0.04558
-0.037607
-0.010819
0.011505
-0.0015702
0.020754
0.037337
0.019797
0.0035324
-0.046536
0.058385
0.037018
-0.018791
0.0073593
-0.05419
-0.020705
0.030959
-0.0018891
-0.058655
0.030321
0.026494
-0.054509
0.026175
0.08039
0.054558
0.026494
-0.012413
-0.060569
-0.03952
-0.045261
-0.083849
-0.10394
-0.11319
-0.056423
-0.010181
-0.050682
-0.024532
0.010867
0.048818
0.10399
0.073693
0.017564
-0.067585
0.12089
0.13939
0.064125
0.021391
-0.031229
-0.019748
-0.051958
-0.046218
-0.036012
0.0079971
0.02458
-0.06312
-0.013689
0.012781
-0.010819
-0.064077
-0.096605
0.014056
0.0067215
-0.045899
-0.067266
-0.12722
-0.096286
-0.018791
-0.014008
-0.090227
-0.024851
-0.0028458
-0.031867
0.026813
0.0079971
0.022986
0.021072
0.037018
0.0092728
-0.011137
-0.014008
-0.058655
-0.068541
-0.051001
-0.020705
0.0057648
0.0016189
0.026813
0.040526
0.034148
0.10877
0.096335
0.070185
0.029364
0.11547
0.072417
-0.0015702
-0.0050782
-0.10266
-0.079703
-0.070774
-0.031548
-0.055785
0.0019378
-0.019429
-0.092778
-0.01911
0.025856
0.018202
0.055515
0.0095917
0.071141
0.076244
0.026175
0.0057648
-0.020067
-0.087995
0.0060837
0.065401
-0.022937
0.014694
0.025218
-0.05132
0.020435
0.012781
-0.0063538
0.00066221
-0.018791
-0.06312
-0.058017
-0.032823
-0.092141
-0.093097
-0.10649
-0.090865
-0.031548
-0.014964
-0.0069916
0.023624
0.061893
0.078157
0.062531
0.01884
0.012462
0.08039
0.027132
-0.0028458
0.051688
-0.029953
-0.074601
-0.065671
-0.053552
-0.079065
-0.011775
-0.021343
-0.057061
-0.0015702
0.0013
0.016608
0.051369
0.030959
0.035423
0.037018
0.066039
-0.0063538
-0.045261
-0.068222
0.031278
0.081984
-0.036969
0.017564
0.035742
0.032234
0.11069
0.03064
-0.034737
0.0131
0.015332
0.045947
2.4388e-05
-0.021024
-0.080341
-0.076514
-0.098519
-0.091822
-0.057698
-0.014008
-0.0066727
-0.022937
0.021391
0.074012
0.0044891
-0.040477
-0.023894
0.076244
0.062531
-0.0028458
-0.035056
-0.098519
-0.079703
0.016289
0.015013
-0.11574
-0.027083
0.0054459
-0.020067
0.078157
0.061574
0.025218
0.032234
0.027132
0.019159
0.032872
0.031596
-0.013051
-0.031867
-0.050682
-0.016559
0.023943
-0.020386
-0.002208
0.012781
0.012462
0.081028
0.040845
-0.018153
-0.034737
0.047223
0.012143
0.0095917
0.023305
-0.051958
-0.075876
-0.061206
-0.050682
-0.056742
-0.0076295
-0.033142
-0.038245
0.056153
0.05105
0.022348
0.016608
-0.012413
0.057747
0.055196
0.044353
0.016289
-0.057698
-0.078746
-0.03665
-0.051001
-0.080979
0.0089539
0.036699
0.014375
0.041164
-0.029634
-0.01624
-0.011775
0.017564
-0.014964
-0.0038025
0.011824
-0.047174
-0.081298
-0.050682
-0.018791
0.0054459
-0.041115
-0.028678
0.023305
0.070503
0.12855
0.14736
0.11866
0.081028
0.15533
0.10941
0.034467
0.092189
-0.024851
-0.06599
0.085173
0.1075
0.027132
0.027132
-0.011137
-0.06312
0.018521
0.03064
0.031596
0.026494
-0.019429
0.036061
0.064125
0.031596
-0.01911
-0.10139
-0.092778
2.4388e-05
-0.0038025
-0.094692
0.0022568
0.028088
-0.01911
0.01597
-0.02198
-0.078746
-0.070774
0.004808
-0.049726
-0.053234
-0.048131
-0.11957
-0.12244
-0.11765
-0.10649
-0.063758
-0.057061
-0.092141
-0.077152
0.0044891
0.044353
0.023943
-0.023575
-0.064077
0.032553
0.054877
0.0051269
0.011505
-0.076195
-0.052915
0.035423
0.045947
-0.050044
0.034148
0.07146
0.010548
0.094103
0.083579
0.037337
0.018521
0.030002
0.06572
0.059661
0.051688
-0.0053971
-0.075238
-0.08066
-0.01337
-0.018153
-0.070455
-0.0066727
0.043077
0.025537
0.088044
0.067633
0.0060837
0.013419
0.072098
0.037337
0.0076782
0.045947
-0.0015702
-0.032186
-0.0025269
-0.0044404
-0.051001
0.035742
0.024899
0.022986
0.080071
0.073055
0.022348
0.025537
-0.0079484
0.071779
0.043715
0.020116
0.0051269
-0.076833
-0.099476
-0.030591
0.019797
-0.065671
-0.014327
-0.015602
-0.06599
0.040845
0.013738
-0.0085862
-0.002208
-0.036331
-0.030272
-0.0047593
0.013419
0.011505
0.023624
-0.012094
-0.0066727
0.023305
-0.06025
-0.034418
0.026494
0.01023
0.099843
0.082941
0.046585
0.013419
0.02171
-0.044623
-0.080979
-0.035694
-0.11159
-0.11765
-0.083849
-0.072687
-0.06599
0.019478
-0.016878
-0.065671
0.03351
0.050412
0.026813
0.021072
-0.02198
0.090276
0.11228
0.055196
-0.010181
-0.063439
-0.058336
-0.0050782
-0.051958
-0.046218
0.014056
0.037018
-0.0012513
0.054239
0.027451
-0.0012513
0.0041702
0.022029
-0.019748
-0.0082673
0.008316
-0.04271
-0.062163
-0.074601
-0.050682
-0.0066727
-0.044304
-0.013051
0.017883
0.040207
0.060936
0.053601
-0.012413
-0.0034836
0.12567
0.094741
0.055196
0.073374
0.0038513
0.0076782
0.047861
0.0025757
-0.073006
0.061255
0.1059
0.07146
0.099205
0.04531
0.037656
0.03351
-0.038564
0.0035324
-0.012094
-0.031229
-0.055785
-0.098838
-0.1218
-0.074601
-0.058974
-0.13041
-0.063758
-0.014008
-0.048131
0.019159
0.011824
-0.080341
-0.073006
-0.0015702
-0.05419
-0.035056
0.0022568
-0.082892
-0.10171
-0.11383
-0.092141
-0.015602
-0.049407
-0.054509
-0.032504
0.02777
0.082622
0.068271
0.029683
0.018202
0.12759
0.10622
0.057747
0.045629
-0.046218
-0.038245
0.050093
0.057109
-0.020067
0.046585
0.063806
0.0003433
0.066995
0.052963
0.03064
0.052007
0.024899
0.035104
0.03638
0.031278
-0.015921
-0.052915
-0.060569
-0.0018891
0.026175
-0.048131
0.0003433
0.040845
0.029683
0.08326
0.094103
0.03925
0.028726
0.10303
0.059979
0.025856
0.011186
-0.029953
-0.033142
-0.06312
-0.041115
0.027132
0.013738
-0.026445
-0.042391
0.0079971
0.030002
0.0131
-0.014964
-0.05132
0.038294
0.016608
-0.038883
-0.049726
-0.13456
-0.079065
-0.024851
-0.012732
-0.098519
-0.021661
0.020754
-0.0105
0.047542
0.03925
0.019797
0.028407
0.030959
-0.0034836
-0.043985
0.051369
0.031915
-0.011456
-0.040477
-0.0089051
0.013738
-0.048131
-0.029634
0.0131
0.025218
0.082941
0.062531
-0.01337
-0.019429
0.094741
0.034786
0.0051269
0.015013
-0.050363
-0.041115
-0.041434
-0.050682
-0.041434
-0.0060349
0.025218
0.049137
0.10558
0.081984
0.070503
0.01884
-0.043985
0.072736
0.12727
0.04531
0.02171
-0.018791
-0.031229
0.037018
0.049137
-0.081617
-0.0079484
0.055834
0.03064
0.10558
0.10239
0.058066
0.05392
0.065401
0.014375
0.02171
0.030959
-0.049407
-0.050682
-0.053871
-0.027402
0.023943
-0.005716
-0.012413
-0.0095429
0.019797
0.056153
0.050412
-0.034737
-0.051001
0.089957
0.060936
0.0041702
0.00098112
-0.063758
-0.062163
-0.018791
-0.033142
-0.096286
0.011824
0.014694
-0.021343
0.053601
0.041802
0.030959
0.017246
-0.0050782
0.041802
0.038931
0.0076782
0.0099106
-0.03952
-0.040477
0.035742
0.045629
-0.043347
-0.018153
0.0064026
0.0092728
0.09506
0.042758
0.0003433
0.03064
0.07433
0.015332
-0.0082673
0.0054459
-0.059293
-0.079384
-0.058974
-0.058974
-0.033461
-0.0041214
-0.0025269
-0.035694
0.042758
0.11228
0.1075
0.066358
0.010548
0.097292
0.070185
0.051369
0.046266
-0.039202
-0.067585
0.028407
0.052645
-0.015602
0.029364
0.0025757
-0.024532
0.045947
0.034786
0.017246
0.0013
-0.038245
-0.01911
-0.009224
-0.020386
-0.05132
-0.084806
-0.084168
-0.028996
2.4388e-05
-0.080979
-0.04845
0.0070404
0.008635
0.081984
0.069228
2.4388e-05
-0.010181
0.078795
0.041164
2.4388e-05
0.018521
-0.073006
-0.036969
-0.026764
-0.028996
-0.010819
0.02777
0.020116
0.0041702
0.067952
0.084854
0.058704
0.0060837
-0.062163
0.069228
0.07433
0.030959
0.0025757
-0.077152
-0.069498
-0.012094
-0.025488
-0.099157
-0.020067
0.022348
-0.014964
0.059979
0.050731
0.037975
0.052007
0.043396
0.008635
0.0032135
0.052963
0.0095917
-0.053871
-0.06312
-0.034737
0.028726
-0.028996
0.018202
0.046904
0.037975
0.085811
0.055196
0.0022568
0.015013
0.09793
0.037975
-0.015283
0.031596
-0.032186
-0.01911
-0.018472
-0.028996
-0.034099
0.0038513
0.0067215
-0.032186
0.043715
0.054239
0.035104
0.015651
-0.039202
0.035742
0.04818
0.0092728
-0.018791
-0.083211
-0.090546
-0.018472
-0.0050782
-0.10458
-0.038883
-0.0018891
-0.02517
0.051369
0.038931
-0.00061343
0.0041702
0.022986
-0.0063538
0.008316
0.021072
-0.031229
-0.046218
-0.056423
-0.041115
-0.0066727
-0.029953
-0.009224
0.01023
0.037975
0.064763
0.03925
-0.0079484
-0.01911
0.06572
0.040207
-0.0047593
0.022348
-0.057379
-0.053234
-0.0089051
-0.025488
-0.041434
0.042758
0.057109
0.037337
0.12982
0.12631
0.11802
0.096016
0.048499
0.10782
0.12153
0.066358
0.012462
-0.01624
0.0041702
0.062531
0.034148
-0.06025
-0.029315
-0.0066727
-0.019748
0.063169
0.051369
-0.0089051
-0.009224
0.043396
-0.0047593
-0.0050782
0.012462
-0.058017
-0.063439
-0.050682
-0.040477
-0.034099
-0.030591
-0.01911
-0.020067
0.017883
0.039888
-0.0089051
-0.036331
-0.049726
0.045947
0.016608
-0.03665
-0.036969
-0.099476
-0.080341
-0.0105
-0.0047593
-0.06025
0.013419
0.022667
-0.0031647
0.059979
0.065401
0.046266
0.056471
0.021391
0.033191
0.073374
0.027451
-0.012413
-0.051639
-0.06312
-0.019748
0.024899
-0.076195
-0.051001
0.013419
0.015332
0.069547
0.045629
-0.019429
-0.017835
0.053282
0.0060837
-0.0034836
0.01884
-0.034099
-0.014327
-0.0015702
-0.0015702
0.036061
0.073693
0.067314
0.04531
0.084854
0.11132
0.10622
0.059023
0.028088
0.12408
0.081028
0.018202
0.0064026
-0.036969
-0.028359
0.046266
0.042439
-0.038564
0.030959
0.049774
0.0057648
0.078795
0.061574
0.052326
0.068271
0.0099106
0.031278
0.051688
-0.010819
-0.08927
-0.089908
-0.11733
-0.066628
-0.049726
-0.1151
-0.10171
-0.054509
-0.03091
0.032234
0.017564
-0.052915
-0.04271
0.037975
0.031915
-0.0041214
0.011824
-0.061206
-0.026445
0.0057648
0.0060837
-0.036331
0.052963
0.025856
-0.0031647
0.092189
0.079433
0.055515
0.052645
-0.0012513
0.067633
0.06285
0.016608
-0.005716
-0.082254
-0.071093
0.010867
0.024899
-0.06886
-0.0069916
0.02171
-0.0047593
0.074968
0.056471
0.018521
0.030002
0.031278
-0.0095429
0.018202
0.038294
-0.031229
-0.016559
-0.035056
-0.042391
-0.0012513
-0.03952
-0.021661
-0.002208
0.051369
0.096016
0.046904
0.01884
0.03064
0.10208
0.047223
0.020435
0.042121
-0.04845
-0.028678
0.0038513
0.012781
-0.023256
0.069866
0.026175
0.008316
0.087406
0.081665
0.10176
0.10718
0.046266
0.089638
0.069547
0.035104
0.012143
-0.038883
-0.029634
0.0019378
0.012143
-0.033142
-0.013051
0.026494
0.0025757
0.05392
0.013738
-0.027402
-0.013689
0.033191
-0.027083
-0.044623
-0.0012513
-0.074601
-0.081298
-0.087995
-0.079384
-0.034737
-0.037288
-0.037288
-0.03665
0.019478
0.027451
0.0131
-0.061844
-0.070774
0.036061
0.014375
-0.016878
-0.015921
-0.084806
-0.073006
-0.0105
-0.016559
-0.083211
-0.043028
0.036699
0.022986
0.091233
0.067633
0.040845
0.058066
0.034148
0.055515
0.04818
0.061574
0.0035324
-0.02804
0.0013
0.034786
0.05105
-0.026445
0.046585
0.076244
0.078157
0.17574
0.10431
0.07752
0.073055
0.13875
0.077838
0.031278
0.05392
-0.02198
0.043715
0.026813
-0.023894
-0.02804
-0.0034836
-0.013689
0.0079971
0.094422
0.12312
0.076244
-0.0066727
-0.0095429
0.098568
0.073055
0.0073593
-0.057379
-0.13934
-0.06312
0.037018
0.026494
-0.0982
-0.046855
-0.034737
-0.092778
-0.022618
-0.0028458
-0.014964
-0.01337
-0.018791
-0.033142
-0.023894
0.010867
-0.047812
-0.053234
-0.066309
-0.012732
0.010867
-0.065033
-0.029315
-0.0044404
0.016927
0.078795
0.049774
-0.018791
-0.063439
0.053282
0.014694
-0.012094
-0.0085862
-0.093416
-0.094373
-0.044942
-0.050682
-0.041753
0.028088
0.026494
-0.012094
0.061893
0.10208
0.08326
0.085811
0.021072
0.092508
0.06572
0.029045
0.039888
-0.022299
-0.032504
0.032553
0.052645
-0.076514
0.029683
0.060617
0.03064
0.078476
0.065401
0.047542
0.022348
0.10654
0.050093
0.041802
0.019478
-0.049088
-0.042391
-0.010819
-0.034737
0.0022568
-0.047812
-0.033142
-0.005716
0.032872
0.058385
0.017246
-0.01337
-0.011775
0.077201
0.028088
-0.027402
0.0013
-0.07779
-0.080979
-0.014964
-0.035694
-0.067266
0.0092728
0.011186
-0.040158
0.06859
0.046585
0.031915
0.013419
-0.010181
0.052645
0.06285
-0.0069916
0.01023
-0.052915
-0.044942
0.029683
