-0.06312
-0.03091
-0.0098618
0.022986
0.072417
0.031915
-0.030591
-0.033142
0.059979
0.017564
-0.011775
0.0070404
-0.073325
-0.073963
-0.043347
-0.037926
-0.061206
0.0095917
-0.0028458
-0.03378
0.044353
0.044672
0.030959
-0.0082673
-0.037607
0.027451
0.013419
-0.011137
-0.038883
-0.10043
-0.099794
-0.017516
-0.022937
-0.10745
-0.040158
-0.011775
-0.02804
0.05392
0.028407
-0.0095429
-0.013689
0.02458
-0.017516
-0.0098618
0.0067215
-0.050363
-0.063758
-0.072049
-0.049088
-0.011456
-0.03665
-0.016878
-0.0105
0.036699
0.08039
0.044991
-0.020386
-0.028359
0.070822
0.028726
-0.0038025
0.004808
-0.073006
-0.06312
-0.019429
-0.029634
-0.078427
0.0025757
0.0016189
-0.041434
0.041802
0.038294
0.024899
-0.002208
-0.024532
0.014375
2.4388e-05
-0.015283
-0.057698
-0.09533
-0.0982
-0.018791
-0.012413
-0.10617
-0.041115
-0.0050782
-0.011456
0.061893
0.031596
-0.0095429
-0.0105
0.043077
-0.0044404
-0.002208
0.016289
-0.055147
-0.061206
-0.063439
-0.044623
-0.019748
-0.018791
-0.011137
-0.022299
0.042121
0.071141
0.037337
-0.020386
-0.034099
0.06572
0.031915
-0.005716
-0.0044404
-0.081617
-0.070774
-0.0085862
-0.011137
-0.093097
-0.002208
0.0089539
-0.029634
0.052963
0.040207
0.030002
0.011186
-0.0031647
0.0057648
0.008316
-0.0015702
-0.043347
-0.076195
-0.078427
-0.014645
0.0025757
-0.075238
-0.027721
0.0079971
0.013738
0.08039
0.053601
-0.0105
-0.016878
0.063487
0.010548
0.0016189
0.02458
-0.054828
-0.061844
-0.056423
-0.041753
-0.031229
0.0016189
0.0022568
-0.017835
0.053282
0.070503
0.044991
-0.00093234
-0.019748
0.073055
0.044991
0.012143
0.0038513
-0.06886
-0.060569
0.012781
0.012143
-0.073644
0.0099106
0.025218
-0.0073105
0.078476
0.060936
0.037975
0.026175
0.02777
0.01023
0.016608
0.024899
-0.029953
-0.064395
-0.070455
-0.020386
0.004808
-0.067585
-0.024851
0.0041702
0.024899
0.079433
0.037975
-0.020067
-0.021661
0.067314
0.018202
-0.0025269
0.015651
-0.064714
-0.061206
-0.041753
-0.031867
-0.040477
0.017564
0.0089539
-0.020067
0.054239
0.06285
0.043077
0.012781
-0.014008
0.050093
0.03064
0.0022568
-0.020705
-0.085443
-0.079065
-0.00093234
-0.0050782
-0.097243
-0.022299
0.004808
-0.027721
0.062212
0.047223
0.011824
0.00066221
0.025856
-0.0044404
0.0041702
0.018202
-0.037926
-0.056104
-0.068222
-0.038883
-0.002208
-0.037607
-0.0105
0.0032135
0.040207
0.079752
0.04531
-0.014964
-0.017197
0.078157
0.033191
0.0060837
0.021391
-0.062163
-0.051958
-0.018153
-0.013051
-0.04271
0.03064
0.024899
-0.011775
0.07433
0.073374
0.059342
0.025218
-0.0031647
0.052007
0.041802
0.022348
-0.011456
-0.072049
-0.071093
0.0076782
0.013419
-0.082892
-0.018472
0.022029
0.0025757
0.079433
0.055196
0.015332
0.010867
0.052963
0.0076782
0.011824
0.031278
-0.031548
-0.043666
-0.051958
-0.029315
0.0035324
-0.014008
-0.00029452
0.0022568
0.058066
0.093784
0.05392
-0.0060349
-0.014645
0.087406
0.052007
0.014694
0.01884
-0.061206
-0.050044
0.0028946
0.0044891
-0.055147
0.028726
0.030959
-0.012094
0.07433
0.054558
0.047223
0.029364
0.011505
0.033829
0.030959
0.018521
-0.030591
-0.077152
-0.078109
-0.0015702
0.00098112
-0.074919
-0.023575
0.015013
0.012143
0.08326
0.046266
0.0013
0.004808
0.07146
0.022029
0.025218
0.043715
-0.026126
-0.02517
-0.02804
-0.016559
0.0060837
0.02458
0.025218
0.014694
0.085811
0.1075
0.073374
0.020754
-0.0015702
0.1008
0.067952
0.025218
0.022029
-0.052596
-0.04271
0.025218
0.017883
-0.056423
0.028407
0.038931
0.0016189
0.085492
0.07146
0.057109
0.038294
0.029683
0.032234
0.036699
0.035742
-0.015921
-0.051001
-0.058017
-0.0034836
0.018202
-0.057698
-0.011775
0.019478
0.032234
0.093784
0.058066
-0.0038025
-0.0044404
0.077838
0.029045
0.014694
0.033191
-0.044942
-0.06025
-0.057379
-0.038245
-0.031548
0.011824
0.0079971
-0.021024
0.050093
0.059023
0.034148
-0.005716
-0.029953
0.064444
0.046266
0.01597
-0.002208
-0.071411
-0.059612
0.018202
0.019159
-0.06599
0.017246
0.041802
0.010548
0.094422
0.071141
0.049774
0.040526
0.047861
0.022986
0.03351
0.042121
-0.015602
-0.041115
-0.050682
-0.010819
0.018202
-0.039202
-0.0034836
0.021072
0.046585
0.099843
0.061893
-0.005716
-0.0063538
0.088681
0.043077
0.019797
0.035104
-0.047174
-0.042072
-0.017197
-0.012094
-0.029634
0.038294
0.022348
-0.012413
0.069547
0.076882
0.058704
0.023943
-0.0063538
0.060617
0.040845
0.01597
-0.0085862
-0.067266
-0.06599
0.011824
0.013419
-0.077152
-0.0041214
0.022348
-0.0015702
0.079114
0.054877
0.022029
0.013419
0.042121
0.0025757
0.011505
0.027451
-0.037288
-0.055147
-0.063439
-0.035694
-0.0015702
-0.037607
-0.012094
-0.00093234
0.045629
0.085811
0.047223
-0.016559
-0.021343
0.079752
0.040526
0.0067215
0.017246
-0.062801
-0.052915
-0.011775
-0.0073105
-0.05132
0.028726
0.02458
-0.016559
0.064763
0.060936
0.052326
0.028407
0.00098112
0.03925
0.030321
0.013419
-0.020705
-0.073644
-0.075557
0.00098112
0.0076782
-0.084806
-0.032823
0.0022568
-0.005716
0.069228
0.037975
-0.0073105
-0.014964
0.03638
-0.012094
-0.010819
0.0092728
-0.059612
-0.063758
-0.072687
-0.052277
-0.023256
-0.023575
-0.0089051
-0.014964
0.043715
0.075287
0.042121
-0.01337
-0.027721
0.079752
0.047223
0.0013
0.0067215
-0.069179
-0.059293
0.0019378
-0.0028458
-0.065352
0.022029
0.02458
-0.014008
0.073055
0.059661
0.043077
0.02777
0.011824
0.023943
0.021391
0.015013
-0.027721
-0.070136
-0.075876
-0.013051
0.0016189
-0.081935
-0.031229
0.0032135
0.0044891
0.071141
0.03925
-0.017835
-0.020386
0.051688
0.0019378
-0.005716
0.013419
-0.061844
-0.060887
-0.061525
-0.04845
-0.032504
-0.005716
-0.0028458
-0.021343
0.046585
0.066677
0.038612
-0.0098618
-0.029315
0.06572
0.038294
-0.00029452
-0.0085862
-0.080979
-0.072368
0.0016189
0.0016189
-0.082892
0.0019378
0.015013
-0.018791
0.066995
0.050412
0.03351
0.019797
0.014694
0.0051269
0.015013
0.014375
-0.038564
-0.06599
-0.075557
-0.025488
-0.0038025
-0.071093
-0.031229
-0.00061343
0.01597
0.072736
0.035742
-0.026764
-0.027402
0.060936
0.012781
-0.0076295
0.01023
-0.067903
-0.06312
-0.048131
-0.041434
-0.046855
0.012781
0.0019378
-0.026126
0.049137
0.061255
0.041483
0.0028946
-0.024532
0.056153
0.035423
0.0060837
-0.014008
-0.085443
-0.078427
0.0032135
-0.0012513
-0.085125
-0.010181
0.012143
-0.017197
0.065401
0.044991
0.019159
0.0079971
0.026813
-0.0063538
0.0028946
0.016289
-0.043985
-0.065033
-0.073963
-0.038245
-0.0082673
-0.053234
-0.023894
-0.0089051
0.018521
0.069866
0.030959
-0.034418
-0.036969
0.061255
0.015332
-0.01337
-0.0085862
-0.096286
-0.081617
-0.049726
-0.043347
-0.070774
0.0099106
2.4388e-05
-0.036331
0.045629
0.047223
0.036061
0.010548
-0.018791
0.044353
0.032872
0.019797
-0.0098618
-0.072049
-0.069498
0.012143
0.012143
-0.075557
-0.005716
0.024262
0.0032135
0.082941
0.054239
0.020116
0.013419
0.044353
0.0022568
0.0089539
0.024899
-0.040796
-0.054509
-0.063758
-0.041753
-0.0089051
-0.037607
-0.014008
-0.011137
0.037337
0.074649
0.03925
-0.027083
-0.032186
0.068271
0.028726
-0.0073105
0.0032135
-0.079065
-0.070774
-0.021024
-0.02517
-0.073325
0.012462
0.0076782
-0.029953
0.052963
0.04531
0.03351
0.0131
-0.0105
0.019159
0.014375
0.0028946
-0.035375
-0.084168
-0.087038
-0.014008
-0.0073105
-0.093097
-0.035694
-0.0034836
-0.0098618
0.064444
0.032872
-0.014008
-0.020386
0.039888
-0.0095429
-0.010819
0.0076782
-0.065352
-0.068222
-0.073325
-0.057379
-0.032186
-0.024851
-0.015283
-0.027721
0.035104
0.062212
0.029683
-0.02517
-0.038245
0.054558
0.020435
-0.015602
-0.014645
-0.096605
-0.083849
-0.021024
-0.023894
-0.097243
-0.012094
-0.0060349
-0.039202
0.045947
0.031596
0.022348
0.012143
-0.0018891
-0.0018891
0.0057648
0.0095917
-0.037288
-0.076833
-0.082892
-0.017197
0.0016189
-0.080341
-0.031548
0.0025757
0.011186
0.074012
0.039888
-0.01911
-0.020067
0.060936
0.0079971
-0.0031647
0.014694
-0.064395
-0.058017
-0.052915
-0.044942
-0.035694
0.0025757
-0.00029452
-0.023256
0.044034
0.063169
0.038294
-0.0069916
-0.031229
0.061574
0.035742
-0.00061343
-0.01337
-0.085762
-0.077152
-0.0085862
-0.0089051
-0.092141
-0.0073105
0.0060837
-0.026445
0.047223
0.032234
0.015332
0.0019378
0.0041702
-0.011775
-0.005716
0.0025757
-0.051639
-0.079065
-0.088633
-0.043028
-0.01337
-0.071411
-0.030591
-0.0044404
0.023305
0.076882
0.039888
-0.02517
-0.023575
0.068271
0.025218
0.0013
0.017564
-0.062163
-0.056423
-0.036012
-0.030272
-0.041434
0.023624
0.013419
-0.019429
0.061574
0.068909
0.050093
0.01597
-0.011456
0.063806
0.043715
0.01597
-0.0085862
-0.074282
-0.067585
0.013738
0.014375
-0.080022
-0.0089051
0.016608
-0.0060349
0.074012
0.051369
0.018521
0.010548
0.035104
-0.0018891
0.0076782
0.020435
-0.041753
-0.058336
-0.06886
-0.038245
-0.0028458
-0.047493
-0.018153
-0.0050782
0.037018
0.08039
0.043077
-0.023256
-0.025807
0.069228
0.022029
-0.0069916
0.0095917
-0.073006
-0.064714
-0.031229
-0.027721
-0.064077
0.011505
0.0054459
-0.029315
0.052963
0.053282
0.042439
0.019159
-0.0082673
0.044991
0.035104
0.015332
-0.017835
-0.073963
-0.074282
0.0099106
0.012781
-0.078746
-0.01624
0.018521
0.0013
0.075287
0.04531
0.004808
-0.0018891
0.046585
2.4388e-05
0.0035324
0.017883
-0.047812
-0.053234
-0.061844
-0.040158
-0.014327
-0.018153
-0.0060349
-0.0066727
0.047223
0.081665
0.046904
-0.011775
-0.018472
0.082941
0.044991
0.0070404
0.014056
-0.064395
-0.056104
-0.0038025
-0.0031647
-0.057698
0.027451
0.027451
-0.013689
0.070185
0.064125
0.052963
0.032553
0.0095917
0.032553
0.032872
0.023305
-0.021024
-0.063758
-0.067585
0.0016189
0.0131
-0.088952
-0.032504
0.0089539
0.008316
0.076244
0.038931
-0.014008
-0.020067
0.045629
-0.0044404
-0.0076295
0.012781
-0.057698
-0.056742
-0.056104
-0.038564
-0.017516
0.0013
0.0079971
-0.0044404
0.06285
0.089
0.062531
0.012462
-0.0047593
0.094422
0.063487
0.02458
0.019797
-0.055466
-0.046218
0.020754
0.020116
-0.058974
0.026175
0.033191
-0.0018891
0.084217
0.06859
0.055196
0.035104
0.029045
0.026813
0.029364
0.030321
-0.017835
-0.053234
-0.060569
-0.005716
0.015013
-0.063758
-0.019429
0.016289
0.029045
0.088362
0.051369
-0.0082673
-0.0079484
0.072098
0.021391
0.0067215
0.026175
-0.051639
-0.046855
-0.037288
-0.029634
-0.026764
0.022986
0.015651
-0.0085862
0.064444
0.076882
0.053601
0.011505
-0.012413
0.075925
0.049455
0.01597
0.0003433
-0.069179
-0.063758
0.015651
0.0099106
-0.075876
0.0013
0.01023
-0.015283
0.069866
0.048499
0.02458
0.011505
0.020754
-0.0069916
-0.00061343
0.0095917
-0.046218
-0.070136
-0.078746
-0.036012
-0.0063538
-0.064077
-0.027402
-0.00061343
0.029364
0.081346
0.043396
-0.024532
-0.020386
0.075925
0.030959
0.004808
0.024262
-0.060887
-0.052277
-0.026764
-0.018472
-0.03952
0.02777
0.017883
-0.014327
0.069228
0.072417
0.051369
0.019159
-0.0073105
0.060617
0.040526
0.015651
-0.012413
-0.072687
-0.071093
0.0095917
0.0092728
-0.084806
-0.011775
0.015332
-0.0066727
0.074012
0.049455
0.01597
0.0054459
0.040207
-0.00093234
0.0070404
0.022029
-0.042391
-0.054828
-0.065033
-0.039202
-0.0028458
-0.038245
-0.013051
-0.0025269
0.043077
0.08326
0.04531
-0.020386
-0.022618
0.077201
0.037656
0.0038513
0.013738
-0.068222
-0.057379
-0.014645
-0.014964
-0.058655
0.024899
0.017564
-0.017835
0.063806
0.059661
0.048818
0.025856
-0.0012513
0.03925
0.029045
0.014694
-0.021343
-0.073006
-0.074919
0.0035324
0.0076782
-0.083849
-0.023894
0.0095917
0.0019378
0.07433
0.042121
-0.002208
-0.0060349
0.044991
-0.015283
-0.0095429
0.011824
-0.058336
-0.064714
-0.074919
-0.056104
-0.028359
-0.034099
-0.020386
-0.023256
0.035423
0.064763
0.03351
-0.022618
-0.034099
0.071779
0.039569
0.0019378
0.0041702
-0.075557
-0.066947
-0.00061343
0.0019378
-0.066947
0.01597
0.020754
-0.018472
0.067314
0.056471
0.043715
0.025218
0.0076782
0.021391
0.019797
0.014694
-0.031548
-0.070774
-0.077152
-0.013051
0.0028946
-0.082254
-0.031229
0.0038513
0.0067215
0.074012
0.032872
-0.01911
-0.028678
0.04818
-0.0076295
-0.014645
0.0032135
-0.072049
-0.072687
-0.073006
-0.063758
-0.046855
-0.013689
-0.01337
-0.032186
0.041802
0.063806
0.035423
-0.0098618
-0.027402
0.072417
0.042758
0.0092728
0.0016189
-0.069179
-0.059293
0.0131
0.0038513
-0.073325
0.011186
0.023305
-0.011775
0.073055
0.053601
0.03638
0.022667
0.018202
0.008635
0.016608
0.018202
-0.033142
-0.064077
-0.072368
-0.020386
0.00098112
-0.06599
-0.025807
0.0028946
0.022667
0.080709
0.041802
-0.018791
-0.018791
0.069228
0.016927
-0.0018891
0.020754
-0.057379
-0.055466
-0.04271
-0.03378
-0.041753
0.013419
0.0099106
-0.020386
0.054558
0.065401
0.044034
0.0038513
-0.022299
0.058066
0.035104
0.0044891
-0.015921
-0.081935
-0.076833
0.0032135
0.0035324
-0.088952
-0.011775
0.012143
-0.015921
0.066677
0.044991
0.021072
0.008635
0.027451
-0.0053971
0.0044891
0.015332
-0.044942
-0.064714
-0.072687
-0.031867
-0.0047593
-0.059931
-0.023575
-0.005716
0.028726
0.07752
0.039888
-0.029953
-0.029953
0.069547
0.023305
-0.0050782
0.0089539
-0.07173
-0.064395
-0.034418
-0.029634
-0.06312
0.008635
-0.0012513
-0.03378
0.045947
0.039569
0.028088
-0.0015702
-0.03091
0.027451
0.010548
-0.012094
-0.040796
-0.09533
-0.08927
-0.0069916
-0.0098618
-0.094692
-0.023256
0.0095917
-0.009224
0.068909
0.040526
0.012462
0.0051269
0.044991
0.0003433
0.0089539
0.023943
-0.040477
-0.053234
-0.062801
-0.038564
-0.0082673
-0.036331
-0.017197
-0.012413
0.040526
0.078157
0.03925
-0.026764
-0.034099
0.06572
0.026175
-0.0076295
0.0003433
-0.08066
-0.067585
-0.020386
-0.015921
-0.067585
0.015013
0.015332
-0.024213
0.060617
0.053282
0.043396
0.023943
-0.00061343
0.030959
0.027132
0.014375
-0.027402
-0.073325
-0.075876
-0.0015702
0.008635
-0.086081
-0.023894
0.010867
0.0051269
0.077838
0.046266
-0.0066727
-0.0079484
0.051369
-0.0028458
-0.0038025
0.017246
-0.053234
-0.059612
-0.06599
-0.051001
-0.026126
-0.017516
-0.010181
-0.020386
0.041483
0.068909
0.036699
-0.01911
-0.034099
0.066995
0.034148
-0.0028458
-0.0041214
-0.082892
-0.074282
-0.0085862
-0.0082673
-0.080979
0.0060837
0.0095917
-0.024851
0.060298
0.046904
0.035104
0.0095917
-0.0038025
-0.00093234
0.0044891
0.0035324
-0.046855
-0.082573
-0.092778
-0.032504
-0.017835
-0.095011
-0.047493
-0.012732
-0.00029452
0.064763
0.031278
-0.028359
-0.026126
0.057747
0.0070404
-0.0050782
0.014694
-0.060887
-0.06025
-0.050682
-0.044304
-0.034737
0.0051269
2.4388e-05
-0.026445
0.045629
0.06285
0.036699
-0.0089051
-0.029634
0.061893
0.037018
-0.00061343
-0.01337
-0.08353
-0.075238
0.0025757
0.0016189
-0.08353
0.00098112
0.016927
-0.014645
0.069547
0.051369
0.030959
0.018202
0.023624
0.0044891
0.0131
0.019478
-0.03665
-0.062482
-0.071411
-0.02804
0.0035324
-0.064714
-0.024851
0.0019378
0.027132
0.078795
0.040845
-0.022618
-0.024851
0.066995
0.021072
-0.00093234
0.013738
-0.06599
-0.059293
-0.040477
-0.032504
-0.04558
0.018202
0.01023
-0.024213
0.055515
0.060298
0.041483
0.012143
-0.017835
0.055834
0.034467
0.0057648
-0.017516
-0.081298
-0.076833
0.00098112
-0.0018891
-0.094054
-0.017197
0.008635
-0.01624
0.065082
0.040845
0.0095917
-0.0012513
0.024262
-0.015921
-0.012094
-0.0018891
-0.06025
-0.075876
-0.084168
-0.055466
-0.028359
-0.066947
-0.040796
-0.029634
0.0131
0.058385
0.022029
-0.041753
-0.037926
0.059979
0.023624
-0.005716
0.0041702
-0.073325
-0.065033
-0.024213
-0.020705
-0.050682
0.030002
0.02171
-0.012732
0.068271
0.065401
0.053601
0.027451
0.0028946
0.053601
0.040526
0.019797
-0.012413
-0.066309
-0.064077
0.013419
0.014375
-0.074919
-0.012094
0.020435
0.0054459
0.082622
0.053282
0.011824
0.0067215
0.051688
0.0041702
0.0095917
0.026175
-0.040796
-0.051001
-0.061844
-0.041115
-0.0089051
-0.023575
-0.0073105
-0.011137
0.041164
0.075925
0.039888
-0.020067
-0.031548
0.070822
0.032872
-0.0050782
-0.0012513
-0.083211
-0.069817
-0.012732
-0.011775
-0.069498
0.017246
0.013738
-0.024851
0.05679
0.052007
0.042439
0.02171
0.0013
0.026175
0.020435
0.011505
-0.031867
-0.075876
-0.07779
-0.009224
-0.0012513
-0.088633
-0.033142
-0.0060349
-0.0076295
0.063806
0.028726
-0.020705
-0.024213
0.038294
-0.014645
-0.017835
0.0016189
-0.070136
-0.077152
-0.075876
-0.056423
-0.034737
-0.010819
-0.009224
-0.023256
0.045629
0.069228
0.038294
-0.014327
-0.026445
0.074968
0.044672
0.0067215
0.0003433
-0.076514
-0.065671
0.0032135
-0.0015702
-0.077152
0.010867
0.017564
-0.01911
0.066677
0.053282
0.037975
0.023943
0.014694
0.0025757
0.0067215
0.011505
-0.036969
-0.071093
-0.079065
-0.02517
-0.0053971
-0.08353
-0.039202
-0.0031647
0.010867
0.071779
0.029364
-0.027083
-0.026126
0.059342
0.0099106
-0.0041214
0.012781
-0.06886
-0.062163
-0.050363
-0.041115
-0.038245
0.010867
0.0044891
-0.022299
0.05105
0.065082
0.043077
0.0035324
-0.024213
0.064444
0.039888
0.008316
-0.0079484
-0.077471
-0.069817
-0.0063538
-0.010181
-0.094054
-0.010819
0.0070404
-0.023894
0.058066
0.037975
0.012143
-0.0012513
0.012143
-0.015602
2.4388e-05
0.0092728
-0.047493
-0.068541
-0.075876
-0.033461
-0.0015702
-0.056742
-0.02198
-0.00029452
0.036699
0.089
0.049137
-0.015602
-0.015283
0.078795
0.034786
0.0060837
0.02458
-0.056423
-0.050044
-0.027083
-0.022937
-0.044304
0.028088
0.019478
-0.018791
0.059342
0.063487
0.044672
0.016289
-0.014008
0.051688
0.031596
0.0057648
-0.018153
-0.081298
-0.078427
0.0022568
0.0016189
-0.0864
-0.018472
0.0092728
-0.011775
0.067952
0.044353
0.0051269
-0.00029452
0.034786
-0.0073105
-0.00029452
0.013419
-0.049726
-0.064077
-0.074282
-0.048131
-0.014964
-0.055147
-0.029953
-0.017516
0.028088
0.068271
0.028407
-0.036969
-0.040477
0.05679
0.015332
-0.016878
-0.0063538
-0.085443
-0.075876
-0.031229
-0.027402
-0.073963
0.0099106
0.0054459
-0.034418
0.05679
0.052645
0.041483
0.015013
-0.013689
0.02777
0.023624
-0.0050782
-0.038883
-0.088314
-0.0864
-0.0098618
-0.0041214
-0.096605
-0.038564
-0.0028458
-0.015921
0.061574
0.033191
-0.0098618
-0.011137
0.044034
-0.0038025
-0.00029452
0.019159
-0.04845
-0.053871
-0.059612
-0.043347
-0.0105
-0.0098618
0.0016189
-0.0053971
0.052963
0.082941
0.047861
-0.0095429
-0.022618
0.078157
0.046266
0.0054459
0.0070404
-0.07173
-0.06312
-0.002208
-0.0085862
-0.067266
0.017564
0.019797
-0.02198
0.06572
0.055834
0.040845
0.023305
0.01023
0.020116
0.01884
0.011505
-0.032823
-0.070774
-0.076195
-0.015283
-0.002208
-0.079065
-0.031867
0.0025757
0.0057648
0.070503
0.037337
-0.019748
-0.020386
0.052963
0.0016189
-0.0079484
0.014056
-0.062801
-0.061844
-0.06025
-0.046536
-0.034099
-0.0044404
-0.0041214
-0.02517
0.043715
0.059023
0.030321
-0.017516
-0.047174
0.048499
0.025218
-0.023575
-0.032186
-0.1049
-0.10011
-0.027402
-0.02804
-0.10777
-0.02198
-0.0095429
-0.042391
0.046266
0.036061
0.019159
0.008316
0.017246
0.0051269
0.013738
0.019797
-0.029315
-0.055466
-0.065671
-0.013051
0.017564
-0.056742
-0.015921
0.016289
0.033829
0.093146
0.056471
-0.0073105
-0.0095429
0.076563
0.028088
0.0095917
0.030959
-0.050044
-0.049726
-0.034737
-0.023256
-0.034418
0.02171
0.019159
-0.012413
0.058385
0.069228
0.048499
0.012781
-0.015921
0.063169
0.040845
0.011186
-0.0098618
-0.075238
-0.070774
0.0073593
-0.00093234
-0.082892
-0.010819
0.012781
-0.012413
0.068909
0.046904
0.017883
0.0073593
0.026175
-0.0082673
-0.00061343
0.013419
-0.047812
-0.066309
-0.075238
-0.051958
-0.014645
-0.060569
-0.029315
-0.014008
0.022348
0.069228
0.026175
-0.048131
-0.046218
0.053601
0.016289
-0.015921
-0.0038025
-0.085443
-0.075557
-0.041434
-0.034099
-0.073644
0.0019378
0.0044891
-0.027721
0.055515
0.054239
0.037656
0.015332
-0.013689
0.042758
0.028407
0.011186
-0.014327
-0.07173
-0.069498
0.010867
0.012462
-0.074282
-0.011775
0.020116
-0.00061343
0.075925
0.060617
0.020435
0.0099106
0.050412
0.0041702
0.0099106
0.026494
-0.041434
-0.05419
-0.061525
-0.039202
-0.010819
-0.028678
-0.0060349
-0.0047593
0.042439
0.075606
0.037337
-0.020067
-0.027083
0.070185
0.035104
-0.005716
0.0028946
-0.075557
-0.066947
-0.017516
-0.015921
-0.072368
0.011824
0.008635
-0.039839
0.047861
0.044672
0.031596
0.0089539
-0.01624
0.0092728
0.0051269
-0.0069916
-0.045899
-0.092141
-0.09246
-0.022618
-0.014327
-0.092778
-0.038564
2.4388e-05
-0.0098618
0.061893
0.037018
-0.015921
-0.016559
0.052007
0.0025757
2.4388e-05
0.017564
-0.053552
-0.059612
-0.060569
-0.044942
-0.022299
-0.014645
-0.0044404
-0.016559
0.047223
0.073055
0.036699
-0.013689
-0.031548
0.067633
0.040845
0.00098112
-0.0015702
-0.081935
-0.07173
-0.0047593
-0.0044404
-0.077471
0.0060837
0.012462
-0.022299
0.064125
0.050412
0.034467
0.021072
0.010867
0.011186
0.010548
0.010548
-0.044623
-0.080022
-0.085125
-0.027083
-0.0050782
-0.087676
-0.044304
-0.0085862
0.0019378
0.064444
0.029364
-0.029634
-0.041753
0.040845
-0.0041214
-0.013051
0.0041702
-0.073325
-0.070455
-0.068222
-0.061525
-0.055147
-0.009224
-0.0079484
-0.034418
0.038612
0.058066
0.03064
-0.0073105
-0.028359
0.062531
0.037337
0.0016189
-0.005716
-0.072049
-0.062482
0.015332
0.012462
-0.072687
-0.00093234
0.022029
-0.0095429
0.075606
0.059023
0.034786
0.018521
0.02171
0.0003433
0.0032135
0.013738
-0.037607
-0.065033
-0.074601
-0.032186
-0.0073105
-0.064077
-0.028996
-0.0034836
0.024262
0.07752
0.041164
-0.022937
-0.024213
0.068271
0.024262
-0.0015702
0.014375
-0.068541
-0.060569
-0.037607
-0.03378
-0.049088
0.019478
0.0079971
-0.027721
0.052645
0.060936
0.040526
0.0089539
-0.022618
0.047223
0.03064
0.0028946
-0.022299
-0.086081
-0.092778
-0.014645
-0.012413
-0.098838
-0.029953
-0.0060349
-0.029315
0.050093
0.025537
-0.0073105
-0.012413
0.01597
-0.021343
-0.011456
0.012143
-0.051958
-0.072049
-0.073325
-0.038883
-0.0050782
-0.052277
-0.022618
-0.0034836
0.044991
0.085811
0.04531
-0.020386
-0.023575
0.074968
0.036061
-0.0034836
0.008316
-0.06886
-0.058655
-0.015602
-0.012413
-0.059612
0.021391
0.015332
-0.027402
0.06285
0.059661
0.044353
0.021072
-0.0089051
0.037337
0.025218
0.0089539
-0.027721
-0.080022
-0.085443
-0.0079484
2.4388e-05
-0.083849
-0.024532
0.0079971
-0.0047593
0.067314
0.043396
0.0003433
-0.0018891
0.04531
0.0025757
0.0035324
0.010867
-0.053234
-0.060887
-0.06599
-0.049407
-0.022618
-0.024213
-0.013689
-0.017835
0.035742
0.067314
0.029364
-0.022937
-0.032504
0.063487
0.040526
0.0022568
0.0060837
-0.074601
-0.068222
-0.0079484
-0.0069916
-0.06025
0.022986
0.025856
-0.012094
0.072417
0.06285
0.050412
0.034467
0.014056
0.032553
0.032872
0.026494
-0.018791
-0.058336
-0.063758
0.00066221
0.015651
-0.069498
-0.01911
0.017883
0.018202
0.087725
0.05392
-0.0031647
-0.0066727
0.064125
0.015651
0.004808
0.02458
-0.055785
-0.060887
-0.058017
-0.04271
-0.029634
-0.0018891
-0.00061343
-0.022937
0.039888
0.062212
0.036699
-0.010181
-0.031548
0.064125
0.038612
-0.002208
-0.009224
-0.081298
-0.073963
-0.002208
-0.0028458
-0.080022
0.0013
0.010867
-0.033461
0.058704
0.046266
0.024899
0.0089539
0.0067215
-0.0031647
-0.0018891
-0.010819
-0.061206
-0.090546
-0.093097
-0.040796
-0.014327
-0.08927
-0.051001
-0.014327
0.0044891
0.066039
0.030959
-0.034737
-0.028678
0.064763
0.021072
0.0003433
0.020116
-0.058017
-0.054828
-0.038564
-0.029315
-0.029953
0.027132
0.019478
-0.013689
0.061574
0.07433
0.052007
0.01884
-0.013689
0.067314
0.046585
0.010548
-0.0044404
-0.072049
-0.066309
0.013738
0.0089539
-0.077152
-0.0028458
0.021391
-0.0069916
0.070503
0.051688
0.025856
0.014694
0.02458
-0.0038025
0.0073593
0.02171
-0.038245
-0.065033
-0.073644
-0.038883
-0.0018891
-0.056742
-0.031867
-0.012094
0.028407
0.078157
0.038294
-0.019748
-0.023256
0.06572
0.023624
-0.0069916
0.014056
-0.063758
-0.056742
-0.025807
-0.015921
-0.044304
0.026175
0.020754
-0.015602
0.069547
0.071779
0.046585
0.027132
-0.0047593
0.054558
0.038612
0.016289
-0.014008
-0.074282
-0.071093
0.0025757
0.0038513
-0.083849
-0.014008
0.01597
-0.0076295
0.070503
0.046904
0.0131
0.0038513
0.041164
2.4388e-05
0.0073593
0.022029
-0.043028
-0.056423
-0.063439
-0.041115
-0.0063538
-0.03091
-0.013689
-0.005716
0.044672
0.084217
0.041802
-0.014964
-0.022618
0.073055
0.038612
-0.00061343
0.010548
-0.077471
-0.069498
-0.020067
-0.035375
-0.077152
0.014056
0.008316
-0.034418
0.043715
0.037337
0.029045
0.0064026
-0.021024
0.014056
0.008316
-0.00061343
-0.038564
-0.08066
-0.085762
-0.014964
-0.011775
-0.0864
-0.031229
0.0022568
0.0013
0.072417
0.046904
-0.0028458
-0.0069916
0.054877
0.0079971
0.0028946
0.025537
-0.042391
-0.047493
-0.052596
-0.035375
-0.0073105
-0.0066727
0.0013
-0.0073105
0.054239
0.078476
0.04531
-0.005716
-0.02198
0.074968
0.043715
0.0028946
0.0013
-0.074282
-0.06599
-0.00029452
0.00098112
-0.071411
0.012143
0.019478
-0.014645
0.069547
0.061255
0.044034
0.030959
0.017883
0.021391
0.025218
0.026813
-0.020067
-0.060887
-0.069498
-0.0044404
0.0003433
-0.079384
-0.034737
-0.0050782
0.0022568
0.068271
0.037656
-0.028996
-0.032823
0.041483
-0.0079484
-0.020067
0.0019378
-0.070455
-0.065352
-0.062482
-0.046536
-0.028996
0.0067215
0.010548
-0.01337
0.059342
0.079433
0.052326
0.021072
-0.0044404
0.086449
0.055834
0.017883
0.0073593
-0.063758
-0.058017
0.0099106
0.008635
-0.072687
0.0073593
0.020754
-0.01624
0.065401
0.049774
0.026494
0.014056
0.017564
0.0016189
0.0051269
0.012781
-0.037607
-0.06599
-0.072049
-0.029315
0.00098112
-0.058974
-0.019429
0.011186
0.032234
0.081346
0.049137
-0.02198
-0.02198
0.070822
0.02458
0.0003433
0.01597
-0.068541
-0.06599
-0.044304
-0.036012
-0.047812
0.014056
0.0073593
-0.024851
0.057747
0.065401
0.046585
0.024899
-0.014327
0.059023
0.049137
0.015651
-0.0044404
-0.070136
-0.065352
0.013419
0.011824
-0.080341
-0.010819
0.016608
-0.0073105
0.069866
0.046904
0.019478
0.01023
0.03638
0.0028946
0.0076782
0.022667
-0.037607
-0.056104
-0.067585
-0.034099
0.0032135
-0.039202
-0.011456
-0.00029452
0.040526
0.088362
0.040845
-0.019748
-0.020386
0.076882
0.037975
0.0013
0.011824
-0.070774
-0.060569
-0.020705
-0.018791
-0.054509
0.017564
0.010867
-0.023256
0.057109
0.052326
0.039888
0.021072
-0.0098618
0.030959
0.015651
-0.00029452
-0.029634
-0.083849
-0.088314
-0.01337
-0.014964
-0.098838
-0.040158
-0.0012513
-0.019429
0.057747
0.034467
-0.0066727
-0.01337
0.031278
-0.0053971
-0.0018891
0.016289
-0.05419
-0.063439
-0.062801
-0.044304
-0.011137
-0.015283
-0.0038025
-0.011137
0.041483
0.078157
0.044034
-0.0105
-0.022937
0.075925
0.043396
0.0003433
0.0041702
-0.071093
-0.059293
0.0016189
-0.00061343
-0.061844
0.023943
0.029683
-0.011775
0.067314
0.066358
0.059661
0.044672
0.015651
0.030959
0.035423
0.032553
-0.023575
-0.065352
-0.06599
-0.0076295
0.010867
-0.075238
-0.030272
0.011824
-0.00029452
0.067952
0.030959
-0.022937
-0.022618
0.04531
-0.0034836
-0.012094
0.0054459
-0.064395
-0.06599
-0.067266
-0.052277
-0.027402
-0.0034836
0.0035324
-0.0098618
0.049455
0.078157
0.044353
2.4388e-05
-0.015921
0.078157
0.058704
0.011186
0.0041702
-0.070136
-0.062801
0.0099106
-0.00061343
-0.078746
0.0022568
0.0054459
-0.020386
0.064763
0.050731
0.029045
0.01884
0.0079971
0.0003433
0.0035324
0.011505
-0.039839
-0.066309
-0.070774
-0.025488
0.00066221
-0.064714
-0.024532
0.011824
0.026494
0.084854
0.050093
-0.0076295
-0.0098618
0.07146
0.024899
0.0076782
0.026494
-0.053234
-0.04845
-0.031548
-0.027721
-0.029953
0.023943
0.015651
-0.0079484
0.061255
0.069866
0.053282
0.031278
-0.005716
0.073055
0.058704
0.022986
0.0057648
-0.064395
-0.059293
0.020435
0.0079971
-0.07173
0.0028946
0.024262
-0.0066727
0.075287
0.057747
0.02777
0.016608
0.028726
0.0016189
0.012781
0.022986
-0.029634
-0.065033
-0.076514
-0.042072
-0.0038025
-0.058017
-0.023894
-0.0025269
0.026175
0.067314
0.028726
-0.032823
-0.038245
0.060936
0.026175
-0.0076295
0.0051269
-0.070455
-0.063758
-0.03091
-0.026126
-0.064077
0.020754
0.019797
-0.021343
0.061574
0.066677
0.049137
0.026175
-0.012413
0.049137
0.042439
0.018521
-0.005716
-0.062163
-0.059612
0.01597
0.02171
-0.058974
0.0016189
0.031915
0.01023
0.091552
0.074968
0.032234
0.018521
0.05392
0.013738
0.014375
0.032553
-0.028359
-0.054509
-0.070774
-0.043347
-0.017516
-0.032504
-0.015283
-0.009224
0.032234
0.066995
0.027132
-0.021661
-0.026445
0.073693
0.039569
-0.0095429
-0.015602
-0.084168
-0.072049
-0.019748
-0.019748
-0.06312
0.0054459
0.0044891
-0.046855
0.042758
0.052963
0.040526
0.029364
-0.013051
0.016608
0.025218
0.017246
-0.015602
-0.066947
-0.072687
-0.0038025
0.011824
-0.066947
-0.021024
0.023305
0.011824
0.08326
0.046904
-0.0082673
-0.010181
0.048499
0.0051269
-0.0050782
0.015332
-0.050044
-0.062163
-0.059612
-0.047174
-0.01337
-0.012094
-0.055147
-0.059612
0.0060837
0.045947
0.0051269
-0.051001
-0.081617
0.0038513
-0.016559
-0.058655
-0.078109
-0.15752
-0.11542
-0.049407
-0.084487
-0.12435
-0.017835
0.0028946
-0.032823
0.04818
0.05679
0.033829
-0.0095429
0.0054459
0.014694
0.030321
0.044034
-0.024532
-0.081298
-0.1033
-0.037288
-0.012413
-0.093097
-0.032504
0.012781
0.013419
0.10654
0.069547
0.023624
0.034148
0.062531
0.041164
0.032234
0.085173
0.01597
-0.0018891
-0.0018891
-0.0015702
-0.0015702
0.041483
0.040526
0.012781
0.080709
0.089957
0.058066
0.034786
0.010548
0.099843
0.088362
0.042758
0.021391
-0.043347
-0.031229
0.052326
0.034148
-0.047174
0.0013
0.016608
-0.024213
0.054558
0.033829
0.0025757
-0.017197
-0.0063538
-0.03665
-0.009224
-0.018472
-0.096924
-0.13328
-0.132
-0.076195
-0.053234
-0.0982
-0.059931
-0.014327
-0.03378
-0.0053971
-0.039202
-0.09246
-0.13137
-0.028359
-0.069179
-0.097243
-0.11861
-0.17729
-0.15815
-0.12658
-0.13296
-0.11255
-0.096605
-0.083211
-0.11733
-0.047174
-0.045261
-0.031548
-0.0089051
-0.023575
0.048499
0.043077
0.0041702
-0.016878
-0.10171
-0.076514
0.072736
0.093784
-0.035375
0.067314
0.12791
0.12249
0.21401
0.17287
0.13716
0.1362
0.16841
0.093784
0.13907
0.17638
0.12504
0.10016
0.063487
0.062531
0.087406
0.044991
0.066358
0.066677
0.10176
0.13333
0.058385
-0.0044404
-0.026764
0.050412
0.021072
-0.0053971
-0.009224
-0.13838
-0.078746
-0.05132
-0.078427
-0.093735
-0.032823
-0.027721
-0.062163
0.037337
0.0067215
-0.0031647
0.020116
-0.0066727
0.0067215
-0.019429
-0.052915
-0.042072
-0.11733
-0.13041
-0.049407
-0.032823
-0.11542
-0.059931
-0.013689
-0.011456
0.067952
0.057747
-0.047174
-0.02517
0.028407
0.0089539
0.037018
0.012143
-0.056742
-0.032504
-0.063439
-0.077152
-0.074919
-0.095011
-0.061525
-0.096286
-0.068222
-0.014008
-0.095968
-0.087038
-0.11255
-0.022299
-0.057379
-0.090227
-0.045899
-0.17697
-0.23533
-0.13328
-0.12212
-0.14189
-0.055147
-0.05132
-0.058017
0.00066221
-0.0082673
-0.021024
0.027451
0.030321
0.029045
0.022667
0.050093
0.098886
0.012143
0.03351
0.1598
0.22964
0.13907
0.15661
0.2188
0.22517
0.31096
0.26536
0.12823
0.087725
0.19105
0.12185
0.10813
0.084217
-0.015602
-0.072368
-0.027083
-0.03665
-0.009224
0.032234
-0.0089051
-0.028359
0.094422
0.13205
0.053282
0.03638
0.016289
0.16681
0.16076
0.11993
0.10718
0.047223
0.035104
0.11164
0.098568
-0.075557
0.0079971
0.033829
-0.095011
-0.022618
-0.011456
-0.014645
-0.058655
-0.079065
-0.091503
-0.053234
-0.091822
-0.12403
-0.10362
-0.088314
-0.095968
-0.043666
-0.075557
-0.00061343
0.042439
0.029045
0.081028
0.05392
-0.021024
-0.0079484
0.10782
0.078795
0.021391
-0.00061343
-0.06886
-0.029315
0.021391
0.025218
0.0028946
0.06859
0.10016
0.090276
0.15884
0.19009
0.098249
0.041164
-0.021024
0.02458
-0.00093234
-0.095011
-0.13105
-0.23501
-0.22513
-0.19228
-0.19196
-0.2449
-0.13743
-0.14093
-0.23119
-0.067585
-0.10298
-0.10171
-0.036331
0.0044891
0.069228
0.06572
0.057109
0.014375
0.059661
0.079114
0.10144
0.1464
0.12057
0.17893
0.20572
0.14832
0.27811
0.24303
0.20987
0.20572
0.28577
0.22868
0.13811
0.19201
0.088362
0.056471
0.049455
0.03064
0.0131
0.037656
-0.0076295
-0.0041214
0.016289
-0.00093234
0.051369
0.051369
-0.038245
-0.050044
-0.078109
-0.053234
-0.059293
-0.11319
-0.10809
-0.00029452
0.0003433
-0.078427
-0.071411
-0.058336
-0.06599
0.071141
0.039569
-0.016559
0.02171
0.10622
0.051369
0.028726
0.058066
0.050093
0.023305
0.026494
0.072736
0.11356
0.081984
0.050731
0.068271
0.12249
0.15693
0.093784
0.066039
0.026494
0.1311
0.12376
0.075606
0.061255
-0.019429
-0.024851
-0.087995
-0.047493
-0.02804
0.046904
0.011824
-0.080341
-0.071411
0.015013
-0.05132
-0.031229
-0.031229
-0.050044
-0.034099
-0.017835
-0.10107
-0.19483
-0.12945
-0.035375
-0.0098618
-0.033142
-0.010181
0.040526
0.012462
0.072736
0.055515
-0.0012513
0.051369
0.044672
0.0013
0.021391
0.037018
0.015332
0.0089539
-0.0089051
-0.017197
0.0076782
0.019478
0.042758
0.08039
0.16873
0.19201
0.13429
0.075925
0.043077
0.16713
0.13843
-0.012094
-0.0031647
-0.072049
-0.076514
0.022986
0.008635
-0.06599
-0.03952
-0.0034836
-0.094373
0.008635
-0.0069916
0.014694
0.039888
-0.0095429
0.022986
0.069547
0.034786
-0.048131
-0.044942
-0.042391
-0.0076295
0.045947
-0.011456
-0.056423
-0.12977
-0.059293
-0.015283
-0.044623
-0.10617
-0.09533
-0.0864
-0.17506
-0.11096
-0.047493
-0.11
-0.14508
-0.11606
-0.08927
-0.084168
-0.046855
-0.0053971
0.037975
0.13046
0.18053
0.13907
0.018521
0.022029
0.15501
0.097292
0.067952
0.05392
-0.024851
-0.050044
0.016608
-0.055466
-0.11893
-0.020386
0.029364
-0.075238
0.042758
0.050412
0.05679
0.0064026
0.01023
0.029045
0.027451
0.057747
0.03351
-0.014327
-0.035694
0.015013
0.054877
-0.02198
0.023624
0.075925
0.053601
0.037975
0.06285
-0.002208
0.016927
0.075287
0.015013
0.020116
0.026813
-0.058017
-0.061206
-0.017516
-0.0047593
0.010867
-0.018472
-0.0028458
-0.010819
0.074968
0.10558
0.059023
-0.039202
-0.066309
0.057747
0.040845
-0.0098618
0.0028946
-0.045899
-0.073006
-0.027721
-0.11765
-0.097243
-0.03952
0.043396
-0.018153
0.057109
0.022029
0.0032135
0.0079971
0.0089539
-0.031548
-0.038883
-0.014327
-0.044623
-0.078746
-0.081935
-0.026126
0.01884
-0.037288
-0.065352
-0.032823
0.034786
0.04531
0.032553
0.0044891
-0.014008
0.049137
0.057747
0.028088
0.073374
0.011824
0.0028946
-0.014327
-0.013689
0.029364
0.12695
0.10622
0.10367
0.20189
0.19839
0.10782
0.046266
0.038931
0.062531
0.080071
0.070822
0.054877
-0.047493
-0.055147
-0.031229
-0.020067
-0.073644
-0.094054
-0.041434
-0.070136
0.073055
0.071779
-0.0031647
-0.0095429
-0.012094
-0.045899
0.028088
0.052007
-0.027083
-0.056104
-0.054828
-0.035694
0.031596
-0.027721
-0.073325
-0.02517
0.0038513
0.074968
0.081665
-0.058017
-0.096286
0.012781
0.0041702
-0.036331
-0.0012513
-0.091822
-0.072049
-0.0063538
0.028088
0.0003433
0.070822
0.058704
-0.0095429
0.099524
0.1126
0.088362
0.024899
-0.063439
-0.005716
-0.020386
-0.036969
-0.0066727
-0.10298
-0.10745
-0.046218
-0.05419
-0.11893
-0.058655
-0.0015702
-0.026126
0.081665
0.11547
0.082622
0.062531
0.1295
0.091233
0.062531
0.096654
0.05392
0.014375
-0.034737
-0.056104
0.023624
0.026175
0.093465
0.084536
0.12408
0.084854
0.019797
0.016289
0.026494
0.13684
0.11706
0.11579
0.040526
-0.020705
0.026175
0.08613
-0.022299
-0.075238
-0.037288
0.019159
0.031915
0.066677
0.085811
0.06859
0.012781
-0.032186
-0.048131
-0.0098618
-0.026126
-0.06312
-0.062801
-0.064395
-0.0085862
0.060617
-0.0073105
0.022029
0.067952
0.042439
0.092827
0.043396
-0.011137
-0.02804
0.11547
0.059023
0.017564
0.048499
-0.046855
-0.073006
-0.065671
-0.060887
-0.026445
-0.038883
-0.027721
-0.042072
0.0079971
0.014694
-0.036331
-0.06312
-0.11415
-0.027721
-0.04558
-0.11319
-0.12084
-0.17059
-0.16932
-0.059612
-0.030272
-0.092778
-0.05419
-0.019429
-0.020067
0.075606
0.11675
0.096335
0.1228
0.092189
0.071141
0.13939
0.070822
0.008316
-0.009224
-0.048769
0.0016189
0.023624
-0.0864
-0.02804
0.046266
0.016608
0.070185
0.011505
-0.062801
-0.017197
0.11706
0.087087
0.050093
0.082941
0.029683
0.041802
0.069228
0.047542
-0.031229
0.049455
0.091233
-0.021343
0.06859
0.14321
0.11037
0.0016189
-0.034099
0.043077
-0.0025269
-0.031867
-0.052915
-0.11446
-0.093097
-0.0063538
-0.0012513
-0.034737
0.054877
0.010867
-0.041115
0.023624
0.032234
0.020754
0.021072
0.022348
0.022667
0.021391
0.0016189
-0.034418
-0.056104
-0.0982
-0.11064
-0.060887
-0.074282
-0.045261
-0.041753
0.052007
0.076882
0.034467
-0.052915
-0.091503
0.035742
0.033191
0.0044891
0.0054459
-0.11574
-0.05419
0.0057648
-0.009224
-0.11861
0.010548
0.042439
0.013738
0.054877
0.018202
-0.0066727
-0.026445
-0.084806
0.015651
-0.022299
-0.059293
-0.045261
-0.11542
-0.10235
-0.065033
-0.066947
-0.14125
-0.06312
0.019159
0.043396
0.093146
0.062212
0.015332
0.01597
0.052963
0.053601
0.016289
0.067314
0.018202
0.0041702
0.004808
-0.026445
0.0013
-0.031548
0.0073593
0.02777
0.052326
0.11611
0.036061
-0.026445
-0.0060349
0.09187
0.067633
0.031915
0.01023
-0.062163
0.0092728
0.024899
0.030959
-0.042391
0.013738
0.025537
0.032234
0.082622
0.042121
0.046904
0.038294
0.0057648
0.04531
0.017564
0.0057648
-0.0095429
-0.095649
-0.11
-0.014964
0.063169
-0.014008
-0.0069916
0.045629
0.08039
0.16363
0.11037
0.027132
0.037975
0.040845
-0.01624
-0.022618
0.03638
-0.028678
-0.067903
-0.051639
-0.084487
-0.061844
-0.087995
-0.078746
-0.055785
-0.0012513
0.022986
-0.02198
-0.046218
-0.044304
0.055196
0.033829
-0.01624
-0.018472
-0.060569
-0.03665
0.013419
0.026175
-0.010181
0.02458
-0.0079484
-0.080341
0.089319
0.057747
0.10176
0.056471
-0.06312
-0.11893
0.023305
-0.002208
-0.057698
-0.12276
-0.10681
-0.020386
-0.020705
-0.053234
-0.021024
0.028088
0.041164
0.15693
0.066995
0.027132
0.11069
0.14066
0.044034
0.05392
0.05392
-0.0085862
-0.0015702
-0.04845
-0.0085862
-0.012094
0.035423
0.040526
0.050412
0.052963
0.061574
0.047861
-0.0073105
-0.0044404
0.092508
0.049774
-0.053234
-0.0044404
-0.035056
-0.066628
-0.04271
-0.064395
-0.12084
-0.088952
-0.053871
-0.057061
0.028407
-0.0031647
-0.024851
-0.04845
-0.036969
-0.0076295
0.0041702
-0.0031647
-0.016878
-0.026126
-0.052596
-0.044304
-0.010819
-0.046855
-0.0015702
-0.0066727
-0.082892
0.087406
0.075606
-0.026764
-0.043985
0.015332
-0.061844
-0.064395
-0.039839
-0.13009
-0.12148
-0.098838
-0.084168
-0.066947
-0.030591
-0.0095429
-0.020386
0.09793
0.12536
0.089638
0.064125
0.02171
0.10526
0.074012
0.083898
-0.016878
-0.072687
-0.0034836
0.058704
0.03638
-0.091184
-0.064395
0.014056
-0.058974
0.045947
0.02777
0.019478
-0.0015702
-0.059293
-0.022618
-0.002208
-0.0012513
0.0054459
-0.059293
-0.08066
0.010867
0.014694
-0.099157
0.004808
0.027132
0.0041702
0.089
0.033829
-0.02804
-0.0066727
0.073693
0.049137
0.0057648
0.0025757
-0.069817
-0.05132
-0.035056
-0.036012
-0.057061
0.0054459
0.019797
-0.0089051
0.086449
0.075925
0.073055
0.068271
0.029045
0.091233
0.10016
0.050412
0.025218
-0.031229
-0.013689
0.063169
0.044991
-0.030591
-0.027721
0.01023
0.0003433
0.078795
0.049137
-0.0089051
-0.02517
-0.039202
-0.073963
-0.03665
-0.020705
-0.080979
-0.095011
-0.075557
-0.073325
-0.01911
-0.037607
-0.06025
-0.036969
0.0073593
0.069547
0.025218
0.008316
-0.061206
0.0089539
0.013738
-0.023894
-0.036012
-0.11989
-0.045899
0.043077
-0.0044404
-0.037926
0.028407
0.044353
-0.018153
0.048499
0.1059
0.1362
0.1649
0.094103
0.12918
0.10335
0.064444
0.0044891
-0.076195
-0.070455
0.028088
0.054558
-0.04845
0.0073593
0.03351
0.00066221
0.055515
0.038294
0.011505
-0.028678
0.040526
-0.009224
0.0051269
0.096973
0.045947
-0.0085862
-0.064395
-0.058655
-0.0105
-0.022937
-0.033461
-0.0047593
0.040845
0.099205
0.021391
-0.009224
-0.051958
0.027132
-0.01624
-0.044304
-0.041434
-0.091184
-0.069498
-0.022937
-0.021661
-0.062163
0.022986
0.035742
0.0067215
0.068271
0.056153
0.051369
0.056153
-0.039839
0.024262
0.1059
0.052963
-0.0047593
-0.051639
-0.067585
-0.017835
0.008316
-0.085762
-0.035375
0.051688
0.066358
0.15055
0.12791
0.042121
0.063806
0.059979
0.048499
0.046904
0.072417
-0.059612
-0.02517
-0.018791
-0.055147
-0.030272
0.010548
0.0025757
-0.041434
-0.024213
-0.0089051
-0.044942
-0.037607
-0.041753
0.075925
0.050412
-0.015921
-0.039839
-0.10522
-0.058017
-0.025488
-0.021343
-0.05419
-0.0018891
0.039569
-0.022618
0.042439
0.045947
-0.016878
0.051369
0.017883
0.010548
-0.0018891
-0.0060349
-0.044623
-0.041434
-0.049088
-0.026445
-0.0015702
-0.047812
-0.023894
0.01023
0.037337
0.10431
0.067633
0.0073593
-0.0069916
0.047223
0.035742
0.029683
0.061893
-0.031229
-0.031548
-0.034099
-0.01911
-0.014645
-0.00061343
0.022029
0.022986
0.072417
0.078795
0.050731
0.018202
-0.018472
0.039888
0.041164
-0.0063538
-0.025807
-0.10266
-0.058974
-0.0015702
-0.014327
-0.094692
-0.012732
0.00066221
-0.043028
0.091233
0.081028
0.060298
0.055515
-0.017197
-0.029953
0.044353
0.049774
0.0089539
-0.002208
-0.047174
-0.026445
0.032234
-0.033142
-0.023575
0.0035324
0.032234
0.10176
0.086768
-0.0018891
-0.027721
0.066358
0.037656
-0.036012
0.0054459
-0.091503
-0.084168
-0.076195
-0.050682
-0.051001
0.0089539
-0.021024
-0.060569
0.022667
0.012143
-0.0098618
0.034148
0.0022568
0.096973
0.11483
0.050412
0.017883
-0.047812
-0.054509
-0.0053971
0.014056
-0.071093
-0.03378
0.062531
-0.0038025
0.070185
0.039569
-0.0015702
-0.039839
0.015332
-0.013051
0.0016189
0.019159
-0.011775
-0.030591
-0.054509
-0.07779
-0.02517
-0.049088
-0.029315
-0.016559
0.022029
0.075925
0.038294
-0.047812
-0.085443
0.0076782
0.0070404
-0.028996
-0.023575
-0.10553
-0.055147
-0.011456
-0.041434
-0.024851
0.059979
0.08039
0.030959
0.061574
0.020435
0.088362
0.04818
0.020754
0.058066
0.038612
0.0073593
-0.026445
-0.097881
-0.10171
-0.058336
-0.029953
-0.10139
-0.027402
-0.005716
-0.03378
0.046904
0.089319
0.10399
0.10112
0.15438
0.097292
0.11037
0.11164
-0.0025269
-0.091503
-0.026445
0.052645
0.11547
0.068271
0.026494
0.0067215
-0.0060349
-0.0031647
-0.069179
-0.06025
-0.06599
0.010867
-0.0044404
-0.02804
-0.037288
-0.12148
-0.11064
-0.038245
-0.0098618
-0.060569
-0.0038025
0.03638
0.010867
0.066995
0.047223
0.03638
0.01023
-0.021661
0.081346
0.066995
-0.0076295
-0.031548
-0.1033
-0.11223
-0.069817
-0.035694
-0.10298
-0.058655
-0.020067
-0.043985
0.0038513
-0.0034836
-0.045899
-0.048131
0.017246
-0.0089051
-0.032186
0.028088
-0.018153
-0.052277
-0.047812
-0.022618
0.034467
0.032234
0.048818
0.088681
0.10495
0.13939
0.097611
0.033829
0.014694
0.10718
0.032234
0.03064
0.070822
-0.03665
-0.087357
-0.03665
-0.018791
-0.077152
-0.023256
-0.012413
-0.040477
0.087406
0.076882
0.032234
0.023305
0.0016189
0.022667
0.035104
0.075287
0.04818
-0.012413
-0.017835
0.01597
0.0067215
-0.11223
0.0089539
0.052645
0.047223
0.09793
0.069228
-0.017197
-0.034418
0.026813
0.0022568
-0.036331
-0.022937
-0.074919
-0.068541
-0.05419
-0.048769
-0.02198
0.031596
0.028407
0.025856
0.085811
0.10303
0.075925
0.018521
0.0025757
0.085492
0.094422
0.027132
0.00098112
-0.080022
-0.071411
0.027451
0.0041702
-0.072049
0.0032135
0.012781
-0.037926
0.027132
0.026175
0.024899
0.045947
-0.036969
-0.053234
-0.024532
0.022029
-0.009224
-0.081935
-0.1202
-0.082254
-0.061206
-0.084806
-0.041434
0.023305
0.020435
0.053282
0.072736
0.014694
-0.011775
0.074968
0.053282
0.025218
0.055196
-0.051639
0.032234
0.054877
0.045947
0.027132
0.092508
0.085173
0.069547
0.1059
0.11419
0.12153
0.10112
0.058385
0.083579
0.034786
0.05105
0.016927
-0.09533
-0.11415
0.0057648
-0.0060349
-0.13487
-0.087676
-0.064714
-0.062801
0.026813
0.01884
-0.017197
-0.0063538
-0.0053971
-0.036012
-0.0060349
-0.0089051
-0.043985
-0.057698
-0.066947
-0.034099
0.0025757
-0.042072
-0.011137
0.0079971
0.020116
0.085811
0.064444
-0.0047593
-0.072687
0.033191
0.037337
0.057747
0.060936
-0.042391
-0.043985
0.044991
0.03638
-0.0076295
0.089638
0.018202
0.01023
0.11611
0.12727
0.055515
0.040845
-0.005716
0.08039
0.045947
0.0013
-0.045899
-0.10649
-0.11415
-0.033461
-0.035694
-0.11159
-0.050044
0.0022568
-0.014964
0.069228
0.049137
0.0060837
-0.0089051
0.027451
-0.016878
-0.02198
0.035423
-0.033461
-0.06599
-0.063758
-0.073006
-0.062801
-0.027083
-0.012094
-0.0069916
0.023943
0.056471
0.0067215
-0.038883
0.073693
0.15151
0.089638
0.046585
0.047223
-0.026445
-0.015921
0.060936
0.026813
-0.025807
0.061893
0.09506
0.054239
0.10813
0.089
0.061893
0.039569
0.0099106
0.02777
-0.0047593
-0.058336
-0.061206
-0.11032
-0.055466
-0.04845
-0.046536
-0.085443
-0.082573
-0.061525
-0.066947
0.030002
0.0051269
-0.029953
-0.023575
0.030959
0.004808
-0.00061343
0.03925
-0.032186
-0.045899
-0.049407
-0.037607
0.0044891
0.031278
0.030321
0.033829
0.077838
0.096654
0.074649
0.042758
0.0019378
0.096016
0.069866
0.01023
0.027451
-0.060569
-0.04845
0.040526
0.019797
-0.032504
0.028088
0.023624
-0.01337
0.052645
0.066677
0.025537
0.017883
-0.00061343
0.035742
0.050731
0.023305
0.0025757
-0.046536
-0.095968
-0.045261
-0.0095429
-0.084487
-0.029634
0.017564
0.017246
0.086768
0.032553
-0.026126
-0.015283
0.053601
0.021391
-0.0044404
0.026494
-0.062163
-0.048769
-0.066947
-0.034099
-0.032504
0.016289
0.0025757
-0.046536
0.075606
0.064763
0.008635
-0.0041214
-0.024532
0.056153
0.058385
0.0092728
-0.028996
-0.074919
-0.069179
-0.019748
0.0038513
-0.10075
-0.061844
0.01884
0.015651
0.07433
0.023943
-0.0105
0.026175
0.0089539
-0.0044404
0.017883
0.030959
0.0022568
-0.024851
-0.049726
0.010548
0.049774
-0.039202
-0.0082673
0.06285
0.06572
0.11228
0.10271
0.01884
0.026813
0.088362
0.039569
-0.0060349
0.012781
-0.072049
-0.06886
-0.056742
-0.064395
-0.061844
-0.018153
-0.0095429
-0.032504
0.0131
0.039569
0.03925
0.022348
-0.032186
0.063169
0.069547
0.018202
0.021072
2.4388e-05
-0.033142
0.012781
-0.029315
-0.09246
0.012781
-0.0044404
-0.034737
0.070503
0.046266
-0.0038025
-0.01337
-0.02804
-0.081298
-0.015602
-0.020386
-0.098838
-0.082254
-0.056742
-0.04558
0.039569
-0.014964
0.0003433
0.018521
0.034467
0.10622
0.042758
-0.01911
0.0057648
0.11611
0.060298
0.016289
0.031915
-0.061206
-0.06025
-0.060569
-0.079384
-0.094054
-0.015602
-0.018153
-0.061206
0.018521
0.017564
0.0044891
-0.01911
-0.069179
0.0092728
0.012143
-0.025807
-0.028996
-0.062482
-0.028996
0.0019378
0.025537
-0.065352
0.0003433
0.035423
0.027451
0.12217
0.11483
0.10016
0.084217
0.10367
0.06572
0.058385
0.094103
0.018202
-0.018153
-0.043028
0.016289
0.042439
-0.002208
0.029045
0.029364
0.045629
0.060617
-0.044623
-0.0089051
-0.0034836
0.034467
0.020435
-0.002208
-0.015283
-0.10522
-0.088952
-0.032186
-0.0041214
-0.028678
0.017883
-0.0038025
0.00098112
0.065082
0.066677
0.030959
0.020754
-0.022937
0.022986
0.075287
0.00066221
-0.069179
-0.086081
-0.058336
-0.011456
-0.019748
-0.10362
-0.069498
-0.023575
-0.039839
0.031915
0.0022568
-0.019429
-0.027721
0.013738
-0.027083
-0.038245
-0.043347
-0.10139
-0.11
-0.10936
-0.072049
-0.023256
-0.021661
-0.014964
-0.009224
0.028726
0.088044
0.06572
0.060936
0.028407
0.11834
0.074649
0.048818
0.085492
0.020435
-0.00061343
0.0067215
-0.0066727
-0.049088
0.031596
0.023305
-0.031867
0.073055
0.055515
0.051688
0.038294
-0.0076295
0.0054459
0.016289
0.013738
-0.010819
-0.067585
-0.017197
0.030002
0.079433
-0.033142
0.024899
0.066358
0.063806
0.067952
0.044991
-0.028678
-0.0038025
0.085492
0.029045
-0.030591
-0.012413
-0.081298
-0.096605
-0.10841
-0.10043
-0.062163
-0.038245
-0.012094
-0.043347
0.017883
0.037337
-0.020386
-0.044304
-0.015602
0.042758
0.024262
-0.02804
-0.022937
-0.086719
-0.072049
0.0019378
0.012781
-0.047812
0.014375
0.043715
0.015332
0.11675
0.11675
0.12025
0.061255
0.038294
0.072098
0.10239
0.059661
0.034467
-0.02517
-0.051001
-0.026126
0.011824
-0.082892
-0.070455
-0.025807
-0.0095429
0.055515
0.026494
-0.055785
-0.048769
0.0028946
-0.0095429
-0.037288
0.0051269
-0.021343
0.0051269
0.0025757
-0.0031647
-0.0053971
0.064444
0.07146
-0.0015702
0.0067215
0.090595
0.10112
0.058704
0.023624
0.068271
0.043396
-0.016559
-0.032504
-0.083211
-0.10968
-0.025807
-0.026445
-0.11733
-0.043347
0.0067215
-0.019429
0.042758
0.012781
-0.0085862
-0.00093234
-0.0015702
-0.063758
-0.021024
0.018202
-0.055785
-0.094373
-0.091503
-0.067266
-0.0079484
-0.061844
-0.0044404
0.038612
0.034148
0.081984
0.040845
-0.02198
0.008635
0.089957
0.028407
0.053282
0.06285
-0.032504
-0.026445
-0.035056
-0.057379
-0.033461
0.072098
0.048499
0.0057648
0.076563
0.095697
0.040845
0.035423
-0.0012513
0.051688
0.043396
0.0076782
-0.012413
-0.048769
-0.047493
0.0076782
-0.034099
-0.13392
-0.069817
-0.026126
-0.027402
0.03064
-0.010181
0.0099106
-0.010181
-0.012094
-0.012732
-0.023894
-0.033461
-0.068222
-0.067903
-0.088633
-0.069498
-0.015921
-0.046855
0.012143
0.059023
0.084536
0.12057
0.084536
0.028726
0.012143
0.10558
0.11547
0.073055
0.15406
0.069547
0.046585
0.035104
0.042758
0.017564
0.055196
0.037018
0.022029
0.099843
0.1177
0.075925
0.014694
-0.037288
0.0095917
-0.025488
-0.043347
-0.037926
-0.12786
-0.11989
-0.022618
-0.029634
-0.094054
-0.072368
-0.011775
-0.04558
0.0003433
0.0067215
-0.027721
-0.015921
0.047542
0.014056
0.0025757
0.034467
-0.033142
-0.065352
-0.066947
-0.057698
0.021072
0.00066221
-0.0079484
0.024899
0.058385
0.10526
0.061893
-0.015283
-0.025807
0.050093
0.0092728
-0.032504
-0.020067
-0.075238
-0.065671
-0.0047593
-0.02198
-0.065671
0.008635
0.03064
0.028407
0.1059
0.079433
0.055515
0.050412
-0.002208
0.022667
0.027451
0.016608
0.019478
-0.055466
-0.074601
-0.0015702
-0.005716
-0.11
-0.070455
-0.0079484
-0.00061343
0.081665
0.07146
0.032234
0.051369
0.10112
0.084217
0.048499
0.099524
0.057747
0.052326
0.052645
0.031278
0.069866
0.073374
0.092508
0.079433
0.12855
0.18308
0.091552
0.017883
-0.036012
0.12376
0.052007
0.012143
0.03351
-0.070455
-0.085125
-0.045899
-0.036012
-0.0982
-0.017516
0.0095917
-0.05132
0.0019378
-0.012732
-0.017197
0.00098112
-0.024213
-0.039202
-0.027402
-0.070774
-0.099794
-0.15082
-0.14508
-0.12882
-0.083849
-0.14412
-0.084806
-0.042391
-0.024851
0.020754
-0.02517
-0.086719
-0.071411
-0.0089051
-0.023894
-0.028678
-0.0038025
-0.048131
-0.039202
-0.038245
-0.031867
0.012462
0.048818
0.04531
0.0051269
0.07146
0.14034
0.13205
0.081984
0.00098112
0.1008
0.097611
0.06572
0.043396
-0.044304
-0.057379
0.022348
0.034786
-0.051958
-0.002208
0.011186
-0.01337
0.089319
0.06572
0.058385
0.064125
0.06285
0.057747
0.066995
0.067314
0.021391
-0.052915
-0.065033
-0.037926
0.047542
-0.031548
-0.0018891
0.052645
0.036699
0.070503
0.013738
-0.078109
-0.059612
0.022029
-0.011775
-0.029315
-0.041115
-0.15943
-0.075876
-0.068222
-0.093097
-0.086081
-0.059293
-0.06886
-0.085125
-0.0012513
0.046904
-0.017197
-0.020067
-0.070455
0.058385
0.047861
0.0003433
-0.025807
-0.060569
-0.06599
0.0092728
0.021391
-0.055785
-0.0044404
0.03638
0.046585
0.096335
0.061574
0.052326
0.069866
0.043077
0.011824
0.043715
0.063487
0.008635
-0.026445
-0.040158
0.0028946
0.052007
0.0022568
0.012143
0.044353
0.073693
0.12855
0.10813
0.014056
0.015013
0.11388
0.06285
-0.009224
0.021072
-0.066309
-0.072368
-0.033461
-0.02804
-0.043985
0.017883
0.00066221
-0.073963
-0.036969
-0.0060349
0.0092728
-0.010819
-0.084806
-0.023894
-0.012413
-0.063439
-0.040477
-0.093416
-0.10777
-0.077152
-0.051639
-0.12052
-0.04845
0.0060837
-0.0050782
0.06285
0.055196
0.01023
0.032234
0.057109
0.012462
0.01597
0.030959
-0.025488
-0.049726
-0.037288
-0.056104
-0.021024
-0.061844
-0.01911
-0.0105
0.035104
0.090914
0.042439
2.4388e-05
-0.033461
0.081028
0.057428
0.0028946
0.036699
-0.035694
-0.046536
0.0057648
0.011824
-0.020067
0.061574
0.041483
-0.020067
0.036699
0.02777
0.027132
0.0076782
-0.041115
0.0044891
-0.0095429
-0.052915
-0.088952
-0.13966
-0.12307
-0.041434
-0.01624
-0.11765
-0.082573
-0.032186
-0.071093
0.0092728
0.030002
-0.035056
-0.010819
0.015013
0.013419
0.011505
0.012462
-0.054828
-0.056742
-0.03378
-0.025807
0.015013
0.0028946
0.035104
0.057747
0.10399
0.12982
0.072417
0.032872
0.031278
0.13684
0.11132
0.042121
0.047223
-0.048769
0.0051269
0.066039
0.023943
-0.032186
0.0057648
0.037975
0.052963
0.099205
0.031915
0.079752
0.044353
-0.014327
-0.013051
-0.011137
-0.023894
-0.075876
-0.088314
-0.10553
-0.062801
-0.048769
-0.12307
-0.061206
-0.031229
-0.03091
0.026813
-0.0076295
-0.056104
-0.035694
-0.014008
-0.036969
-0.029634
0.0070404
-0.060887
-0.097243
-0.075238
-0.087676
-0.060569
-0.035375
-0.026764
-0.023575
0.029045
0.049774
0.028407
0.019159
0.0013
0.091233
0.04531
0.032234
0.06859
-0.0047593
-0.054509
-0.0098618
0.027132
-0.037288
-0.0044404
0.045629
0.019478
0.087087
0.045629
0.02171
0.028407
-0.031548
0.0067215
0.020435
0.0025757
-0.046218
-0.080979
-0.091822
-0.037288
-0.0044404
-0.077152
-0.027083
0.025218
0.014694
0.07146
0.060617
-0.011456
-0.025488
0.05105
0.03925
0.0099106
0.0032135
-0.086719
-0.087038
-0.060569
-0.094054
-0.039839
0.029364
0.026175
-0.010181
0.063487
0.074968
0.042121
0.016608
-0.0066727
0.065401
0.058066
-0.010181
0.00098112
-0.05132
-0.061525
-0.0089051
-0.015602
-0.036331
-0.019748
-0.0041214
-0.031548
0.034786
0.0035324
0.0067215
0.022667
0.01023
-0.0015702
-0.0076295
0.016927
-0.013689
-0.028996
-0.084806
-0.064395
0.0041702
-0.069179
-0.054828
-0.03378
0.014375
0.079114
0.022986
-0.020386
-0.037926
0.031278
0.015651
-0.012094
0.012143
-0.085443
-0.12276
-0.076195
-0.018153
0.00066221
0.020435
0.017564
-0.032504
0.060936
0.067952
0.068909
0.035423
-0.031867
0.070822
0.070503
0.027132
0.012781
-0.057698
-0.061844
0.021072
0.025218
-0.059612
0.025856
0.068271
0.024262
0.1126
0.093784
0.070822
0.067314
0.05679
0.02458
0.023305
0.028407
-0.0031647
-0.025488
-0.040477
-0.026445
-0.038564
-0.068541
-0.068541
-0.070774
0.012781
0.044353
-0.019429
-0.10043
-0.11351
-0.021024
-0.036331
-0.078746
-0.04271
-0.13647
-0.092778
-0.074282
-0.12244
-0.094373
-0.021343
-0.021343
-0.074282
0.038294
0.065401
0.032234
0.014694
-0.0079484
0.066358
0.052007
0.022348
0.0022568
-0.058017
-0.047174
0.03064
0.024899
-0.10011
-0.031548
0.047861
0.025218
0.092508
0.069228
0.012462
-0.005716
0.026494
-0.017197
0.020116
0.050412
-0.040477
-0.072368
-0.091184
-0.080979
0.0060837
-0.031229
-0.051958
0.012143
0.039888
0.066039
0.080071
0.014694
-0.015283
0.064763
0.046904
0.0073593
0.03064
-0.063758
-0.04845
-0.030272
-0.00029452
0.014694
0.089319
0.044672
-0.018791
0.07433
0.081665
0.044353
0.070185
-0.04845
0.014056
0.049455
0.035104
-0.013051
-0.082573
-0.091822
-0.033142
-0.0069916
-0.089589
-0.053234
-0.002208
-0.025488
0.043077
0.028088
-0.0044404
-0.029315
0.036699
0.016289
0.010867
0.011824
-0.056423
-0.037926
-0.06025
-0.10107
-0.036969
-0.014964
-0.022299
-0.055466
0.0054459
0.045947
0.037337
-0.031867
-0.06312
0.028407
-0.035694
-0.051639
-0.031867
-0.099157
-0.07779
-0.011775
-0.01337
-0.085443
-0.015602
-0.012094
-0.0066727
0.082622
0.062531
0.042121
0.040207
-0.011137
0.00098112
0.053601
0.020754
-0.063758
-0.10394
-0.098838
-0.068222
-0.015602
-0.10458
-0.049088
0.014694
0.035104
0.079752
0.034148
-0.036331
0.0022568
0.074649
0.035423
-0.019429
0.072736
-0.012094
0.0064026
-0.020386
-0.031548
-0.0015702
0.02171
0.012781
-0.015602
0.079114
0.092508
0.046585
-0.010181
-0.044304
0.098886
0.066995
0.018202
0.014056
-0.053871
-0.056423
-0.002208
0.0016189
-0.024532
0.0044891
-0.020386
-0.0044404
0.099205
0.091233
0.042758
0.064444
0.050731
0.032872
0.020754
0.032553
-0.027721
-0.068222
-0.08066
-0.093735
0.014694
-0.058017
-0.065671
-0.033142
-0.035694
0.0079971
-0.01624
-0.071093
-0.065352
0.016927
-0.01911
-0.046536
-0.027721
-0.090865
-0.066628
-0.067585
-0.080979
-0.08066
-0.050044
-0.011137
-0.013051
0.064763
0.064125
0.025218
-0.012094
-0.050044
0.05392
0.041802
-0.014008
0.019797
-0.057379
-0.038564
0.039888
0.022348
-0.081298
0.010867
0.060617
-0.020705
0.077838
0.11164
0.09506
0.089
0.064444
0.042121
0.049774
0.052007
0.0051269
-0.034099
-0.068541
-0.0060349
0.091552
-0.024851
-0.03378
0.027132
0.085811
0.11866
0.093784
0.026175
0.0019378
0.085811
0.022348
-0.020386
-0.00029452
-0.079065
-0.092778
0.0003433
-0.053552
-0.035375
0.0028946
-0.019748
-0.086719
-0.026126
0.0032135
-0.018791
-0.038883
-0.082254
0.016289
0.0099106
-0.047812
-0.05132
-0.089589
-0.097562
-0.014964
-0.013051
-0.11415
-0.027721
0.0073593
0.0035324
0.10335
0.079752
0.025856
0.026494
0.042758
0.022029
0.017246
0.011824
0.0073593
-0.037288
-0.049407
-0.020705
0.021391
-0.03378
-0.005716
0.03064
0.053601
0.1008
0.042439
-0.0031647
0.01023
0.053601
0.010548
0.0028946
0.047223
-0.062163
-0.063439
-0.028996
-0.046536
-0.057698
0.016927
-0.0082673
-0.061525
0.014375
0.083898
0.03638
0.0095917
-0.043985
0.00098112
0.0013
-0.029953
-0.059293
-0.10235
-0.10649
-0.028678
-0.024532
-0.11096
-0.073963
-0.020067
-0.035694
0.034467
0.051688
0.034467
-0.037288
0.0067215
0.010548
0.036699
0.042758
-0.042072
-0.070774
-0.094373
-0.074919
-0.0047593
-0.0015702
0.042758
0.052963
0.094422
0.15246
0.10016
0.068271
0.050412
0.1126
0.071779
0.075925
0.092508
0.043715
0.0028946
0.044991
0.0013
-0.051958
-0.0038025
0.014056
-0.037288
0.025218
0.027132
-0.012732
-0.024851
-0.079703
-0.051639
-0.028359
-0.045899
-0.11191
-0.13966
-0.12626
-0.044304
-0.017516
-0.1202
-0.085443
-0.018791
-0.044623
0.029045
0.026494
-0.028996
-0.023894
0.022348
0.0095917
0.004808
0.0064026
-0.059293
-0.069179
-0.059293
-0.031867
0.0016189
0.017246
0.0022568
0.01597
0.090595
0.10558
0.073055
0.041483
-0.017197
0.096654
0.084854
0.044991
0.043715
-0.060887
-0.063439
-0.010819
-0.014964
-0.087038
0.019478
0.025218
-0.029315
0.033191
0.038931
0.0092728
0.030002
0.05392
0.0032135
-0.012413
0.03351
0.01023
-0.0095429
-0.10904
-0.066309
-0.017197
-0.10171
0.0038513
0.044353
-0.017197
0.043396
0.01884
-0.059612
-0.042072
0.029683
-0.015283
-0.070136
-0.040158
-0.12148
-0.14189
-0.14221
-0.1403
-0.10649
-0.081617
-0.047493
-0.069179
-0.0050782
0.037018
-0.009224
-0.030591
-0.083849
0.025218
0.029683
0.022986
0.048499
-0.033142
-0.03665
0.044991
0.052963
-0.026126
0.028726
0.059661
-0.0028458
0.075287
0.099205
0.064125
0.070503
0.049137
0.032872
0.037975
0.03638
-0.0041214
-0.0079484
-0.017516
0.010867
0.052963
-0.029953
-0.031548
0.053282
0.081665
0.16426
0.11802
0.052645
0.031278
0.10367
0.07752
0.018202
0.013419
-0.02517
-0.00029452
0.0076782
-0.03952
-0.050044
-0.02198
-0.011775
-0.015283
0.05679
0.058066
0.015651
0.013419
-0.041115
0.040845
0.044034
0.015332
0.025218
-0.067903
-0.073325
-0.0044404
-0.020705
-0.09246
-0.046855
0.0092728
-0.034418
0.049774
0.0054459
-0.039839
-0.055466
-0.08353
-0.11223
-0.06599
-0.058974
-0.087357
-0.084806
-0.12116
-0.072687
-0.046855
-0.094373
-0.044623
0.07433
0.072098
0.13588
0.1177
0.032234
0.0054459
0.12025
0.044353
-0.058655
0.040845
-0.020705
-0.0066727
-0.025488
-0.061844
-0.067903
-0.0034836
-0.02198
-0.061525
0.018521
0.047542
0.014694
0.0073593
-0.019429
0.068271
0.077838
0.03351
0.014056
-0.071411
-0.041434
0.025537
0.0092728
-0.069817
0.0057648
0.029045
-0.00029452
0.10367
0.09793
0.048818
0.014694
0.025856
-0.010819
-0.0089051
0.042121
-0.031548
-0.070774
-0.055147
-0.037288
0.00066221
-0.045261
-0.030272
-0.005716
0.030002
0.077201
0.041164
-0.016559
-0.036331
0.066995
0.017883
0.040526
0.067633
-0.056104
-0.061844
-0.00093234
-0.02198
-0.017516
0.039569
0.027132
0.0003433
0.069866
0.037975
0.010867
0.01023
0.0013
0.040526
0.019478
-0.023894
-0.052277
-0.079065
-0.098838
-0.033461
-0.038883
-0.098838
-0.034099
0.0099106
-0.034418
0.026175
0.038294
0.03064
0.0079971
0.049774
0.028726
0.034467
0.055515
-0.0073105
-0.037288
-0.068541
-0.041753
0.037018
0.0095917
0.0057648
0.020754
0.064444
0.069866
0.012462
-0.066628
-0.087357
-0.022618
-0.04558
-0.088952
-0.066947
-0.15911
-0.1521
-0.11159
-0.11096
-0.16804
-0.083211
-0.056423
-0.12307
-0.023256
-0.030591
-0.038883
-0.033461
-0.076514
-0.013689
-0.0018891
-0.067266
-0.11542
-0.13264
-0.11096
-0.068222
-0.053234
-0.11255
-0.027721
0.014694
-0.0038025
0.080071
0.074968
0.028726
0.029364
0.092508
0.090595
0.093146
0.11069
0.058066
0.058385
0.058385
0.064125
0.097292
0.078476
0.061893
0.096654
0.16044
0.18882
0.13939
0.087087
0.050412
0.13397
0.10208
0.048818
0.060617
-0.020386
-0.035375
0.024262
0.010867
-0.060569
0.02777
0.043715
-0.005716
0.045947
0.042121
0.034467
0.021391
-0.028678
-0.009224
-0.0041214
-0.012413
-0.066309
-0.094692
-0.10139
-0.069817
-0.017835
-0.076514
-0.038883
0.0067215
-0.021024
0.033829
-0.0076295
-0.040158
-0.012413
0.074012
0.033829
0.0022568
-0.00093234
-0.072368
-0.069817
-0.05132
-0.023575
0.0067215
0.025856
-0.0038025
-0.01337
0.073693
0.10463
0.067314
-0.0018891
-0.032823
0.059661
0.061255
0.013419
0.0060837
-0.074919
-0.099157
-0.035694
0.012781
-0.06886
-0.03091
-0.041115
-0.080022
0.0057648
0.0067215
-0.022618
-0.014645
-0.037288
-0.047812
0.0019378
0.010867
-0.070136
-0.13264
-0.13009
-0.069498
-0.014008
-0.081298
-0.050044
0.0003433
0.0131
0.071779
0.033191
-0.02198
-0.032504
0.027451
0.0022568
-0.0095429
0.0095917
-0.075557
-0.031229
-0.045261
-0.052915
-0.03091
-0.0034836
0.00098112
-0.03378
0.051688
0.10909
0.093146
0.053282
0.0051269
0.066677
0.087087
0.060617
0.042758
-0.044304
-0.059612
2.4388e-05
-0.0038025
-0.045261
0.043715
0.042121
-0.048131
0.055515
0.05679
0.012781
0.015332
-0.00061343
-0.021024
-0.0012513
0.033191
-0.01911
-0.047812
-0.077471
-0.045261
-0.0050782
-0.048131
-0.043985
-0.0076295
0.0095917
0.075287
0.034148
-0.027402
-0.04271
0.01884
-0.023256
-0.025807
-0.019429
-0.10777
-0.073006
-0.028996
-0.038564
-0.044304
0.0089539
0.0054459
-0.04271
0.035423
0.073374
0.048818
0.041164
-0.026764
0.053601
0.059979
0.020754
-0.03091
-0.11638
-0.12435
-0.013689
0.033829
-0.058336
-0.027083
0.027132
-0.0031647
0.053601
0.052007
-0.0044404
-0.032504
-0.01624
-0.029953
-0.0041214
0.035423
-0.0105
-0.038883
-0.075557
-0.079065
-0.03091
-0.073006
-0.053552
-0.011775
0.024899
0.081984
0.044991
-0.021024
-0.022618
0.11228
0.067952
-0.023575
-0.023256
-0.080341
-0.077152
-0.0050782
-0.002208
-0.020067
-0.009224
-0.0028458
-0.054828
0.019797
0.030959
0.02777
0.026494
-0.048131
0.021072
0.031915
0.0079971
-0.0031647
-0.073325
-0.095011
-0.0018891
0.059979
-0.012094
0.037656
0.054877
-0.0089051
0.13333
0.1362
0.058385
0.046266
0.064125
0.04818
0.035104
0.059023
-0.017835
-0.029634
-0.04271
-0.024532
-0.015283
0.0044891
0.0035324
0.016927
0.042121
0.091233
0.069228
0.0070404
-0.019748
0.07433
0.048499
0.0032135
-0.0044404
-0.11096
-0.10362
-0.041434
-0.070774
-0.10617
-0.034737
-0.035056
-0.11446
-0.01911
0.025218
0.011186
-0.017516
-0.08066
-0.016559
-0.02198
-0.02804
-0.066947
-0.091822
-0.077152
-0.0069916
0.0079971
-0.068541
-0.022937
0.023943
-0.00029452
0.065082
0.0060837
-0.038883
-0.014327
0.048818
-0.0085862
-0.01337
-0.0018891
-0.052915
-0.089589
-0.085762
-0.071411
-0.014008
-0.023575
-0.020067
-0.0041214
0.060298
0.10335
0.062212
0.031278
0.011186
0.11132
0.085811
0.037975
0.057747
-0.010819
0.010548
0.079433
0.059661
-0.03952
0.058385
0.11101
0.04531
0.10718
0.07752
0.038612
0.064125
0.0022568
-0.014964
-0.0079484
-0.025488
-0.069817
-0.10458
-0.12467
-0.10298
-0.082573
-0.13487
-0.094692
-0.039839
-0.073644
0.016289
0.058704
-0.0041214
-0.018153
0.068271
0.045947
0.017246
0.047861
-0.018791
-0.061206
-0.060569
-0.019429
-0.0047593
0.034467
0.030002
0.0025757
0.05679
0.073055
0.016608
-0.0085862
-0.040158
0.058385
0.052645
-0.02198
-0.032823
-0.090227
-0.070136
0.0095917
0.0095917
-0.069817
-0.022937
-0.021661
-0.043985
0.033829
0.01597
0.015013
0.019797
-0.0018891
-0.030272
-0.047174
-0.00093234
2.4388e-05
-0.058017
-0.096605
-0.066947
-0.0031647
-0.041753
-0.0028458
0.030002
0.022986
0.10208
0.090595
0.030002
0.039569
0.084536
0.063806
0.040207
0.049774
-0.076833
-0.039839
-0.03091
-0.043028
-0.027721
0.043715
0.017246
-0.052277
-0.00061343
0.069228
0.037975
-0.017835
-0.050682
0.042121
0.042121
-0.0028458
0.012781
-0.067266
-0.088314
-0.043028
-0.024213
-0.11128
-0.057061
-0.013689
-0.053234
0.050412
0.020754
-0.0063538
-0.018472
0.0060837
0.015651
-0.0053971
0.017883
-0.019429
-0.046855
-0.07779
-0.017197
0.06572
-0.023575
0.014056
0.063487
0.073055
0.10973
0.076244
0.0089539
-0.018153
0.081984
0.04818
-0.00029452
-0.011775
-0.04845
-0.041753
-0.021343
-0.04845
-0.079384
0.013738
0.014375
-0.0038025
0.043396
0.064444
0.015332
0.056471
0.0054459
0.063487
0.035104
-0.01337
-0.013689
-0.088633
-0.081298
-0.014645
-0.013689
-0.093735
-0.023575
-0.010181
-0.061206
0.030959
0.016927
0.011186
-0.00061343
0.022029
-0.0095429
-0.014008
0.016608
-0.028678
-0.061844
-0.074601
-0.04271
-0.014327
-0.066309
-0.064077
-0.020386
0.014694
0.048818
0.027451
-0.021024
-0.045261
0.030959
0.018521
-0.03952
0.0016189
-0.067903
-0.057379
-0.0085862
-0.016878
-0.02517
0.045947
0.030321
-0.0066727
0.073374
0.084217
0.070822
0.06572
0.020116
0.041483
0.057109
0.02458
-0.0073105
-0.091184
-0.11446
-0.030591
0.025537
-0.037607
-0.051958
-0.021343
-0.019429
0.049455
0.06572
0.037975
0.016289
0.075925
0.020754
0.033829
0.034148
-0.027721
-0.03091
-0.031548
-0.018153
0.0028946
-0.016878
-0.011456
0.04531
0.062531
0.055515
0.012462
-0.013051
-0.033142
0.049774
0.027451
0.0028946
0.01597
-0.058655
-0.051639
-0.022937
-0.054828
-0.11383
-0.0047593
-0.017835
-0.064077
0.031278
0.01884
0.0067215
0.031278
-0.03091
-0.01337
-0.0063538
-0.02804
-0.053234
-0.088314
-0.072049
-0.0028458
0.0003433
-0.073963
-0.027083
0.029045
0.022986
0.08613
0.064444
0.0022568
0.0051269
0.053282
-0.00061343
-0.0028458
0.019478
-0.070136
-0.049407
-0.059612
-0.052915
-0.03091
-0.032823
-0.018153
-0.026126
0.019478
0.038931
0.029683
-0.019429
-0.051958
0.054558
0.011505
-0.026126
-0.02804
-0.097243
-0.12148
-0.053871
-0.041434
-0.11032
-0.041115
0.0092728
-0.035056
0.025856
0.0073593
2.4388e-05
0.022348
-0.012732
0.0079971
0.027451
0.0079971
-0.022937
-0.077152
-0.032823
-0.0069916
0.03064
-0.041115
-0.017835
0.048499
0.034467
0.093465
0.092827
0.032872
0.0092728
0.050093
0.024262
0.01597
0.061574
-0.015602
-0.046218
-0.041753
-0.049088
-0.01337
-0.0076295
-0.0044404
0.0060837
0.056471
0.044353
0.012781
0.020754
0.0003433
0.12153
0.10399
0.017564
-0.018153
-0.076833
-0.099476
-0.046536
-0.039839
-0.10362
-0.0034836
0.011186
-0.065352
0.016927
0.0076782
-0.028359
-0.011775
-0.046218
-0.033142
-0.02198
-0.0105
-0.049088
-0.09533
-0.099794
-0.043985
-0.0076295
-0.077471
-0.034099
0.01023
0.0070404
0.060617
0.038612
-0.030591
-0.005716
0.095697
0.055515
0.030002
0.053601
-0.027083
-0.031229
-0.0066727
-0.012732
-0.023894
0.050093
0.04818
0.021072
0.059661
0.090595
0.063487
0.029683
-0.034737
0.026494
0.028726
-0.009224
-0.031229
-0.099794
-0.079065
-0.0031647
-0.0069916
-0.06312
-0.0079484
-0.0034836
-0.041115
0.068271
0.043715
0.023305
0.042121
0.055196
0.04531
0.050412
0.060617
0.0073593
-0.038883
-0.049726
-0.053234
0.004808
-0.043347
-0.035375
0.042121
0.0019378
0.047861
0.0131
-0.043028
-0.078427
0.038294
0.0038513
-0.045899
-0.022618
-0.12084
-0.12882
-0.038245
-0.031229
-0.030591
0.015332
0.0035324
-0.014645
0.066358
0.063169
0.03351
0.037337
-0.011456
0.056471
0.060617
0.0079971
0.0070404
-0.084487
-0.0864
0.010548
0.0067215
-0.089589
-0.012094
0.015651
-0.013689
0.054877
0.053282
0.014056
0.021391
0.027132
-0.0012513
0.0095917
0.015651
-0.062801
-0.087038
-0.094692
-0.059612
-0.019429
-0.072049
-0.041115
-0.012413
0.0099106
0.057747
0.020116
-0.032186
-0.018791
0.085173
0.078157
0.03064
0.022986
-0.052596
-0.056104
0.0095917
-0.022299
-0.018153
0.063487
0.059342
-0.032504
0.088362
0.075606
0.03064
0.0089539
-0.06025
0.04818
0.061574
-0.0031647
-0.029315
-0.066947
-0.074601
0.0025757
0.004808
-0.054828
-0.026764
0.02458
-0.00061343
0.075287
0.067633
0.0076782
-0.0034836
-0.01911
-0.002208
0.025856
0.048818
-0.046855
-0.06599
-0.084806
-0.073325
-0.015921
-0.034418
-0.02517
0.0032135
0.035104
0.057747
-0.01911
-0.025807
-0.029634
0.074649
0.052645
-0.020067
-0.028996
-0.12913
-0.1049
-0.02517
-0.043666
-0.10585
-0.095968
-0.030591
0.043077
0.086449
2.4388e-05
0.012143
0.013419
-0.0085862
0.016289
0.042121
0.02777
0.00098112
-0.040796
-0.058017
0.0067215
0.022986
-0.070774
-0.019429
0.042439
0.021391
0.07752
0.10718
0.060617
0.041483
0.080071
0.030959
0.016608
0.01884
-0.0089051
-0.068222
-0.067903
-0.018791
0.031278
-0.0060349
-0.021343
-0.028678
0.014056
0.046585
0.013738
-0.024213
-0.054509
0.037656
0.016927
-0.026445
0.0079971
-0.068222
-0.077152
-0.011456
-0.022937
-0.076833
-0.036331
-0.0069916
-0.04845
0.039569
0.042121
0.029045
0.028407
-0.041753
-0.0079484
0.018521
0.01597
-0.050363
-0.090546
-0.093097
-0.014964
0.010867
-0.055785
-0.026126
0.019478
0.019797
0.08326
0.047542
-0.019748
-0.0025269
0.059342
0.039569
0.017883
0.026175
-0.057698
-0.10904
-0.090865
-0.08353
-0.018153
0.016608
-0.010819
-0.047493
0.014056
0.031915
0.033191
-0.00029452
-0.044623
0.063169
0.057109
-0.00061343
-0.013051
-0.070455
-0.048769
0.012143
0.015651
-0.0864
-0.014964
0.062212
0.0032135
0.075925
0.065401
0.013419
0.046266
0.01597
-0.00093234
0.0089539
0.019797
-0.019748
-0.038245
-0.056104
-0.018791
0.029364
-0.037607
-0.014008
0.064763
0.07146
0.11356
0.075925
0.01884
0.0025757
0.07752
0.017564
0.028088
0.058066
-0.036012
-0.04845
-0.030272
-0.051639
-0.079384
-0.014645
-0.025488
-0.068541
-0.0079484
0.0092728
0.0051269
0.015651
-0.04558
0.0041702
0.01023
-0.039202
-0.050363
-0.11446
-0.10585
-0.020386
-0.0095429
-0.077152
-0.016559
0.0070404
-0.027083
0.056471
0.076244
0.025218
0.015013
0.042439
0.028726
0.022029
0.011505
-0.028996
-0.034418
-0.061206
-0.030272
0.0076782
-0.015602
-0.024213
-0.00093234
-0.0031647
0.07146
0.044034
-0.021343
-0.034418
0.061574
0.014694
-0.018791
0.0067215
-0.062163
-0.057698
-0.023575
-0.032186
-0.044304
0.029364
0.032553
0.0019378
0.067314
0.08326
0.065082
0.061893
-0.0041214
0.038294
0.057428
0.026494
0.008316
-0.10394
-0.086081
-0.025807
0.0057648
-0.087995
-0.040477
0.010867
-0.017197
0.047861
0.04531
0.014694
0.0025757
0.03351
0.0019378
-0.0034836
0.01023
-0.015921
-0.037607
-0.055466
-0.046218
-0.014008
-0.038883
-0.054828
-0.033461
0.025856
0.069866
0.0067215
-0.044623
-0.06886
0.0089539
0.010867
-0.020705
0.0028946
-0.096924
-0.10617
-0.060887
-0.038245
-0.044304
0.02777
0.018202
-0.03378
0.079433
0.10558
0.072417
0.065082
-0.0063538
0.029045
0.089638
0.06572
0.014056
-0.093097
-0.077471
0.013738
0.027451
-0.082573
-0.055785
-0.011456
-0.02804
0.05105
0.0051269
-0.035375
-0.04558
0.0044891
-0.0038025
-0.027721
-0.0073105
-0.074919
-0.081298
-0.069817
-0.051001
0.018202
0.00098112
0.020435
0.023943
0.023305
0.087406
0.051369
0.01884
-0.0028458
0.08613
0.066995
0.017564
0.021072
-0.051001
-0.087038
0.0013
-0.0034836
-0.056742
0.0060837
0.0057648
-0.017516
0.081665
0.070185
0.037975
0.05105
0.017246
0.025218
0.057109
0.0095917
-0.042072
-0.06599
-0.089589
-0.020067
0.0022568
-0.084168
-0.063439
0.020435
0.0003433
0.063806
0.045629
-0.024851
-0.01624
0.020435
-0.022618
-0.013689
-0.0012513
-0.073006
-0.088633
-0.083849
-0.0864
-0.059931
-0.047493
-0.061206
-0.060887
0.0092728
0.037337
0.023943
-0.0095429
-0.042391
0.054239
0.053282
-0.025488
-0.0105
-0.063758
-0.036012
0.020754
0.020435
-0.054828
0.0022568
0.030959
-0.017197
0.052645
0.084536
0.052326
0.03925
0.0051269
0.011824
0.026494
0.029045
-0.02517
-0.050044
-0.077471
-0.014645
0.0089539
-0.077152
-0.060569
-0.020705
-0.015921
0.057109
0.0041702
-0.081935
-0.057379
0.034786
0.026494
-0.013689
-0.01911
-0.083211
-0.087038
-0.055785
-0.032823
0.0070404
0.050412
0.053282
0.044353
0.10431
0.13939
0.1177
0.097611
0.06285
0.11005
0.038612
0.046585
0.069547
-0.014327
-0.040796
0.011824
-0.0034836
-0.079703
-0.014645
0.0089539
-0.034099
0.054239
0.051369
0.04531
0.067314
0.01597
-0.04271
-0.015921
-0.020705
-0.064714
-0.080979
-0.16485
-0.08927
0.013738
-0.061844
-0.081298
-0.069498
-0.059612
-0.035375
-0.062163
-0.091822
-0.059612
0.024899
-0.014964
-0.09533
-0.04845
-0.091184
-0.090227
-0.048131
-0.053234
-0.09533
-0.055147
-0.040158
-0.050363
0.022348
0.039888
0.0131
-0.0069916
-0.056423
0.020754
0.075287
0.015651
2.4388e-05
-0.038883
-0.044942
0.017564
0.019478
-0.053234
-0.0085862
0.027132
0.0038513
0.087406
0.049137
0.032553
0.013738
0.040845
0.0019378
0.018521
-0.00093234
-0.050044
-0.066309
-0.067266
-0.035694
0.0044891
-0.031229
-0.0041214
0.025218
0.057747
0.10654
0.058704
0.020754
-0.002208
0.08326
0.052007
0.004808
0.044034
-0.055147
-0.061844
0.012462
0.0054459
-0.027402
-0.015283
0.0131
0.0013
0.073693
0.081028
0.04531
0.03351
-0.00061343
0.0076782
0.031596
0.0067215
-0.01337
-0.073325
-0.091184
-0.049407
-0.01624
-0.076833
-0.052277
-0.014964
-0.058974
0.059979
0.062212
0.0089539
-0.0069916
0.034467
-0.033461
-0.01624
0.028407
0.010867
-0.056742
-0.066947
-0.064077
-0.01624
-0.051639
-0.024213
-0.0044404
0.0060837
0.049455
0.030959
-0.022299
-0.056423
0.024899
0.0025757
-0.018472
0.0079971
-0.076195
-0.10968
-0.0041214
-0.0012513
-0.041115
0.0092728
0.01597
-0.033142
0.066995
0.06859
0.053601
0.038294
0.0057648
0.041164
0.051688
0.032553
-0.015283
-0.061206
-0.046536
0.028088
0.04818
-0.061844
-0.022618
0.046904
0.062212
0.096335
0.074012
0.015651
0.013738
0.052963
0.035423
-0.024851
0.012143
-0.056742
-0.047174
-0.076514
-0.095011
-0.029634
-0.011456
-0.023256
-0.034418
0.018202
0.073693
0.066677
0.038294
-0.0069916
0.069547
0.062531
0.004808
0.035104
-0.05419
-0.058336
0.008635
-0.0031647
-0.081935
0.0038513
0.024262
-0.027721
0.0131
0.021072
0.024262
-0.0012513
-0.037288
-0.021343
-0.002208
0.0035324
-0.041434
-0.092141
-0.089589
-0.024851
0.014375
-0.052596
-0.010819
0.028407
0.010548
0.084217
0.084854
0.019159
-0.02804
0.032553
0.02777
0.039888
0.051369
-0.044623
-0.066947
-0.071093
-0.053234
-0.014645
0.0099106
-0.017516
-0.031229
0.028407
0.075925
0.0131
-0.033461
-0.075557
0.038294
-0.0060349
-0.042391
-0.056104
-0.12563
-0.11989
-0.081935
-0.078109
-0.13009
-0.056104
-0.041434
-0.10617
-0.0079484
0.0028946
-0.040158
-0.0089051
-0.014645
-0.009224
0.01023
0.0035324
0.0003433
-0.061844
-0.053552
0.018521
0.078795
0.0060837
0.034786
0.092508
0.070503
0.13333
0.14226
0.06572
0.042439
0.1193
0.064444
-0.0098618
2.4388e-05
-0.044304
-0.026445
-0.010819
-0.028359
-0.024532
0.020116
0.0035324
0.0060837
0.073374
0.081346
0.05392
0.012143
-0.026764
0.038612
0.099524
0.057747
0.021391
-0.070136
-0.096286
-0.028359
-0.013051
-0.094373
-0.0098618
0.020435
-0.034737
0.049137
0.049774
0.01884
0.014375
0.0092728
0.0025757
0.026813
0.017883
-0.01624
-0.035375
-0.066947
-0.079703
-0.00061343
-0.033142
-0.019429
0.0079971
-0.014327
0.066039
0.043396
-0.063758
-0.056423
0.023305
0.019797
-0.028359
-0.009224
-0.11957
-0.12307
-0.099476
-0.071411
-0.053552
-0.00061343
-0.0089051
-0.047812
0.03064
0.05679
0.057428
0.039888
-0.014008
0.056153
0.062531
0.0089539
0.0025757
-0.063439
-0.080022
0.022667
0.050731
-0.078109
-0.040796
-0.0089051
-0.023894
0.05392
0.033191
0.0060837
-0.0034836
0.0022568
-0.031548
0.021391
0.044034
-0.031548
-0.073644
-0.055147
-0.045899
0.034467
0.018521
0.039888
0.061574
0.062212
0.10622
0.098886
0.046585
0.011824
0.078157
0.06285
0.047223
0.055515
-0.029953
-0.058017
-0.010181
-0.024213
-0.034737
0.022667
0.0038513
-0.056742
0.025218
0.057747
0.0041702
0.059342
-0.0095429
0.022029
0.044353
0.015651
-0.0095429
-0.089908
-0.13615
-0.049726
-0.0044404
-0.082254
-0.051958
0.0060837
-0.025488
0.030002
0.008635
-0.050682
-0.051001
-0.014645
-0.03091
-0.030272
-0.0076295
-0.06599
-0.090227
-0.08927
-0.069817
-0.0041214
-0.026764
-0.04558
-0.031548
0.010548
0.040526
0.0032135
-0.034737
-0.059612
0.049774
-0.01337
-0.03091
-0.0082673
-0.10203
-0.10235
-0.041434
-0.030591
-0.047812
0.023943
0.059342
-0.00061343
0.073693
0.081346
0.064125
0.05105
0.0067215
0.086449
0.093784
0.080709
0.03351
-0.030272
-0.045899
0.0054459
0.025856
-0.018791
-0.014327
0.028088
0.050412
0.10558
0.085492
0.0057648
-0.020705
0.018202
0.0054459
-0.0105
0.0064026
-0.058974
-0.068222
-0.069498
-0.048769
0.027132
0.01023
-0.046536
-0.033142
0.032872
0.085811
0.074012
0.047542
-0.022937
0.06285
0.049455
-0.032823
-0.017835
-0.10011
-0.097562
-0.011456
-0.028678
-0.11574
-0.056742
-0.010819
-0.043666
0.014056
0.011186
-0.0012513
0.017564
-0.041115
-0.017835
0.011505
-0.0069916
-0.04558
-0.075876
-0.088314
-0.058974
0.0035324
-0.057379
-0.050044
0.0092728
0.016289
0.066039
0.038294
0.0022568
-0.0073105
0.042439
0.026494
0.016608
0.06285
-0.019748
-0.058655
-0.039839
-0.0025269
0.014694
0.035104
0.028407
0.024899
0.082622
0.089
0.050412
0.035423
-0.01911
0.084217
0.056153
0.012781
0.0092728
-0.055466
-0.07779
0.0064026
-0.0012513
-0.078427
-0.028359
0.018202
-0.0076295
0.065082
0.047861
0.020754
0.022029
0.043396
0.044353
0.052963
0.015332
-0.048769
-0.098838
-0.094054
-0.078427
-0.025807
-0.062482
-0.072687
-0.051639
-0.031548
0.0070404
-0.0076295
-0.074282
-0.093097
-0.027402
-0.050682
-0.050044
-0.017835
-0.084487
-0.094054
-0.058336
-0.078427
-0.080022
-0.012413
-0.020067
-0.012413
0.04818
0.064444
0.034467
0.058704
0.0025757
0.059023
0.062531
0.037018
0.015013
-0.03665
-0.017835
0.051369
0.035104
-0.033142
0.021391
0.035742
0.023943
0.11898
0.073055
0.038612
0.053282
0.048499
0.031915
0.037018
0.051369
-0.061206
-0.071411
-0.044942
-0.014964
0.0057648
-0.049726
-0.032186
0.0095917
0.037975
0.071141
0.035104
-0.031867
-0.044623
0.030959
0.016927
-0.015921
0.014375
-0.06312
-0.064077
-0.0047593
-0.035375
-0.03952
0.022029
0.011824
-0.032504
0.061574
0.056471
0.031596
0.093784
0.0044891
0.0054459
0.020116
0.00098112
-0.023575
-0.093416
-0.093735
-0.01911
-0.022937
-0.099794
-0.03952
0.0070404
-0.011456
0.034786
0.011824
-0.035694
-0.036331
-0.014645
-0.046536
-0.025807
-0.022937
-0.085762
-0.084806
-0.08927
-0.079703
-0.017197
-0.03665
-0.029315
-0.0066727
0.024899
0.10112
0.070185
0.046585
0.028407
0.12025
0.11706
0.08326
0.052326
-0.0095429
0.021391
0.069866
0.026494
-0.025488
0.034786
0.06285
0.014694
0.087406
0.1075
0.058066
0.038931
-0.029953
0.004808
0.023305
-0.0028458
-0.030272
-0.096605
-0.093416
-0.029953
-0.0095429
-0.091184
-0.046855
0.023305
0.021072
0.068271
0.019159
-0.022618
-0.055466
0.020435
0.02458
0.011824
-0.0066727
-0.06312
-0.071093
-0.087995
-0.088314
-0.029315
-0.032504
-0.05132
-0.040477
0.004808
0.057109
0.029364
-0.023256
-0.067266
0.022986
0.037018
0.0038513
-0.0079484
-0.090865
-0.096924
-0.010819
-0.014645
-0.051958
0.0038513
0.019159
-0.0069916
0.090276
0.08326
0.061893
0.070185
0.037656
0.083898
0.063487
0.034467
0.0070404
-0.057698
-0.066947
-0.021024
0.037337
-0.075876
-0.043666
-0.005716
0.00098112
0.055196
-0.010181
-0.10617
-0.063758
0.0073593
-0.020067
-0.037288
-0.017516
-0.085762
-0.084487
-0.064077
-0.056742
-0.027083
-0.017835
0.00098112
0.0032135
0.060617
0.075925
0.0057648
0.040526
-0.0034836
0.082622
0.032234
-0.012094
-0.04271
-0.080341
-0.045261
0.0013
-0.0034836
-0.043985
-0.0079484
0.043715
-0.010819
0.075287
0.083579
0.05392
0.085811
0.067952
0.067314
0.046585
0.04818
0.019159
-0.039202
-0.062482
0.0032135
0.03064
-0.054828
-0.036012
-0.0073105
-0.0018891
0.084854
0.041164
0.011505
0.0054459
0.072098
0.046266
-0.014008
0.0070404
-0.064714
-0.059612
-0.06025
-0.039202
-0.016878
0.03638
0.0016189
-0.028678
0.048818
0.051688
0.012143
0.014694
-0.040158
0.034148
0.06285
0.020116
0.00066221
-0.085762
-0.082254
0.019797
0.020754
-0.078109
-0.066628
-0.011137
-0.019429
0.063806
0.043396
-0.017197
-0.031867
-0.036331
-0.035694
-0.054509
-0.051639
-0.075557
-0.067585
-0.081298
-0.088952
-0.040477
-0.080979
-0.053552
0.015013
0.01023
0.077838
0.042758
0.0013
-0.013689
0.058704
0.052963
0.0035324
0.0067215
-0.059931
-0.059612
-0.034737
-0.065671
-0.080341
-0.01624
0.0044891
-0.022299
0.044991
0.055515
0.032553
0.062212
0.00066221
0.074968
0.064444
0.014694
0.012462
-0.028359
-0.024851
0.028088
0.017246
-0.061525
-0.0060349
0.056153
0.024899
0.080709
0.098568
0.031278
0.031596
0.037656
-0.014964
0.0070404
0.049137
-0.03952
-0.06599
-0.065033
-0.054509
0.014694
-0.0047593
-0.034737
-0.043028
-0.02198
0.041164
0.041802
-0.013051
-0.059931
0.027451
0.02171
-0.012413
0.01884
-0.061844
-0.029634
0.015651
-0.024532
-0.06599
-0.019429
0.014694
-0.0060349
0.037656
0.070185
0.035742
0.030321
-0.022618
0.014056
0.021072
-0.072368
-0.06886
-0.087676
-0.11255
-0.062163
0.004808
-0.084168
-0.065352
-0.012094
-0.014645
0.058704
0.0073593
-0.039839
-0.022618
0.023624
-0.0060349
-0.0082673
0.020116
-0.038883
-0.04845
-0.056104
-0.051001
-0.022299
-0.026445
-0.025807
0.020754
0.02458
0.093784
0.084854
0.03925
0.008316
0.08326
0.065401
0.0079971
0.032553
-0.039202
-0.050682
0.017246
0.011505
-0.038245
0.044991
0.046266
0.033191
0.081346
0.060617
0.022986
0.046904
0.017883
0.030959
0.050093
-0.0038025
-0.02517
-0.064714
-0.066628
-0.053871
-0.03378
-0.15369
-0.09246
-0.050363
-0.038883
0.01597
-0.002208
-0.050363
-0.018472
0.031278
0.0032135
-0.03665
-0.021024
-0.080979
-0.058655
-0.020386
-0.025807
0.027132
0.055515
0.020754
0.019797
0.065401
0.10718
0.065082
0.0025757
-0.034099
0.059979
0.037656
-0.0018891
0.016927
-0.081617
-0.0982
-0.028359
-0.022618
-0.073325
-0.009224
0.0095917
-0.01911
0.052007
0.060936
0.034148
0.04531
-0.01337
0.026813
0.06859
0.048818
-0.01337
-0.042072
-0.050044
-0.048131
0.0057648
-0.061206
-0.035694
0.020435
0.026813
0.079752
0.06859
-0.0098618
-0.0041214
0.041483
-0.0031647
-0.014327
0.022029
-0.026445
-0.084806
-0.094373
-0.10107
-0.0864
-0.06312
-0.04271
-0.046855
-0.056423
-0.025488
0.0064026
0.020754
-0.062801
-0.013689
-0.024213
-0.052277
-0.0060349
-0.055147
-0.044942
0.022348
0.032234
-0.049088
0.016927
0.059342
0.023624
0.093784
0.063169
0.0003433
0.07146
0.081984
0.047542
0.022029
0.029045
-0.00093234
-0.03378
-0.035694
-0.0018891
0.049137
0.039569
0.040845
0.032872
0.0089539
0.090276
0.082941
0.032234
-0.0041214
0.030321
0.034148
-0.027721
-0.00061343
-0.08927
-0.10522
-0.093097
-0.10649
-0.08066
-0.067585
-0.066309
-0.06599
0.016289
0.056153
0.0099106
-0.01624
-0.046218
0.0131
0.0067215
-0.0073105
-0.017516
-0.083211
-0.095649
-0.0031647
0.018521
-0.079384
-0.035694
0.0067215
-0.041434
0.047223
0.032553
0.035742
0.010548
0.010548
0.0070404
0.01884
0.019159
-0.031548
-0.046855
-0.061525
-0.04845
0.018521
-0.028678
-0.028996
0.015332
0.037018
0.085173
0.063169
0.019478
0.0073593
0.087406
0.062531
0.0095917
0.035104
-0.035056
-0.029315
-0.00061343
-0.027083
-0.048131
0.034786
0.044672
-0.014645
0.056153
0.060617
0.042758
0.032234
-0.058974
-0.019748
0.0025757
-0.010819
-0.044304
-0.08066
-0.10458
-0.033461
-0.017835
-0.087676
-0.050044
-0.026445
-0.024851
0.052326
0.058704
0.0016189
0.0051269
0.037337
0.017246
0.0035324
-0.009224
-0.073325
-0.090227
-0.0982
-0.049407
0.0032135
-0.0082673
-0.036012
-0.07779
0.032872
0.074649
0.030321
-0.052277
-0.10235
0.058385
0.078795
0.0032135
-0.012732
-0.087357
-0.10681
-0.037288
-0.021343
-0.04271
-0.005716
-0.005716
-0.027083
0.074649
0.084854
0.063169
0.080709
0.012143
0.028407
0.071779
0.06572
0.050093
-0.0076295
-0.031867
0.012781
0.056153
-0.005716
0.0089539
0.046585
0.013738
0.097611
0.094741
0.042121
0.016289
0.045947
0.0095917
0.012781
0.023305
-0.050044
-0.06025
-0.069498
-0.087676
-0.044304
-0.02517
-0.036969
-0.016878
-0.031548
0.036699
0.017246
-0.012094
-0.082573
-0.021024
-0.029953
-0.078746
-0.048769
-0.10458
-0.082892
-0.0095429
0.015332
-0.088633
-0.072049
-0.029634
-0.063758
0.019478
0.041483
0.023624
0.050093
-0.021661
-0.012094
0.032553
0.0064026
-0.043028
-0.086719
-0.094373
-0.057698
0.012143
-0.051001
-0.020705
0.034786
0.047861
0.096973
0.057109
0.008316
0.01884
0.08326
0.049774
0.014694
0.010548
-0.0034836
-0.032823
-0.023256
-0.034737
-0.012094
0.021391
-0.014645
-0.010819
0.035742
0.081665
0.068271
0.052007
-0.02517
0.03351
0.046585
-0.0018891
0.019159
-0.051001
-0.097243
-0.038245
-0.022618
-0.083211
-0.00029452
-0.005716
-0.074601
0.015651
0.035742
-0.009224
0.0019378
-0.010181
-0.024851
0.032553
0.02458
-0.0073105
-0.06599
-0.068541
-0.035694
0.059661
2.4388e-05
-0.031229
0.0095917
0.053601
0.1177
0.10495
0.023624
0.014375
0.08613
0.05679
0.011186
0.025856
-0.043985
-0.060569
2.4388e-05
-0.031229
-0.036331
0.027451
0.01023
-0.010819
0.022029
0.046585
0.020435
-0.0076295
-0.064077
0.021072
0.03638
-0.00061343
-0.053871
-0.12307
-0.12307
-0.028359
-0.03091
-0.10745
-0.049088
-0.0066727
-0.043666
0.018202
0.017564
0.0054459
0.016289
-0.012094
-0.0082673
0.0060837
-0.0073105
-0.046536
-0.068222
-0.083211
-0.061844
-0.005716
-0.03952
-0.052915
-0.017197
0.0076782
0.071141
0.014694
-0.038883
-0.053552
0.017883
0.018202
-0.029634
0.0041702
-0.075876
-0.061525
-0.022618
-0.04558
-0.061206
-0.013051
-0.0018891
-0.01911
0.050731
0.07752
0.034786
0.028726
-0.050682
-0.0076295
-0.005716
-0.059612
-0.097562
-0.14349
-0.13519
-0.091184
-0.075876
-0.1521
-0.090227
-0.026126
-0.058336
-0.021661
-0.0089051
-0.057379
-0.034737
-0.0079484
0.0016189
0.012462
0.025856
-0.034099
-0.036012
-0.027402
0.0054459
0.070503
0.051369
0.058385
0.10048
0.13971
0.17893
0.13524
0.050093
0.098249
0.19998
0.18276
0.10973
0.093146
0.01597
0.010548
0.057109
0.05392
0.029045
0.066995
0.082622
0.032234
0.090595
0.056471
0.044991
0.082941
0.03925
0.045947
0.025218
-0.017516
0.00098112
-0.056742
-0.078746
-0.052277
-0.026764
-0.11478
-0.061206
-0.041753
-0.050682
0.03064
0.01597
-0.03378
-0.021024
0.040526
-0.030272
-0.038883
-0.017516
-0.064395
-0.067585
-0.14667
-0.096924
-0.01337
-0.036012
-0.065671
-0.03952
-0.0079484
0.019159
2.4388e-05
-0.021661
-0.082573
0.0016189
0.014694
-0.041434
-0.035694
-0.11319
-0.090546
-0.014964
-0.013051
-0.058336
-0.0082673
-0.0105
-0.061844
0.037656
0.030321
0.025856
0.022348
2.4388e-05
-0.020386
-0.00029452
-0.022618
-0.010819
-0.065352
-0.097243
-0.062482
-0.029953
-0.075876
-0.042072
2.4388e-05
-0.0085862
0.047861
0.037018
-0.0050782
-0.0018891
0.051369
0.045629
0.018202
0.015332
-0.040158
-0.033461
-0.0105
-0.012094
0.018202
0.030002
0.0095917
0.026813
0.069866
0.088044
0.034148
0.02458
-0.02517
0.049455
0.06285
-0.0076295
-0.02517
-0.094692
-0.078109
-0.0073105
0.0003433
-0.099794
-0.050363
0.010867
-0.046218
0.034786
0.033829
0.013738
0.012781
-0.0018891
-0.014964
0.0032135
-0.010819
-0.058655
-0.080979
-0.080022
-0.04558
0.011505
-0.055785
-0.046855
0.0057648
0.033191
0.08326
0.050093
-0.0038025
0.024262
0.096654
0.099843
0.03638
0.023624
-0.027402
-0.00093234
0.018521
0.013419
-0.00029452
0.01023
0.01023
0.019478
0.058704
0.064763
0.01023
-0.0034836
-0.094054
0.0003433
0.013419
-0.034099
-0.067266
-0.11478
-0.1202
-0.05419
-0.014008
-0.09246
-0.042391
0.0089539
-0.048131
0.035423
0.046585
0.020116
0.028726
0.017564
-0.012094
0.0032135
0.0099106
-0.045899
-0.080979
-0.084487
-0.049088
0.0051269
-0.031548
-0.024213
0.037975
0.037337
0.050412
0.010548
0.0076782
0.0041702
0.052007
0.032234
-0.0034836
0.034467
-0.059293
-0.079384
-0.028359
-0.034099
-0.027083
0.011505
0.0089539
-0.0095429
0.044353
0.08039
0.070822
0.058704
-0.043666
0.032872
0.052963
-0.0050782
0.0003433
-0.03952
-0.042072
-0.0066727
-0.0031647
-0.083849
-0.056423
0.032553
-0.0044404
0.04531
0.045629
-0.01337
0.0016189
0.0092728
-0.01911
-0.029634
-0.014327
-0.055785
-0.077471
-0.0982
-0.0982
-0.031229
-0.053871
-0.073325
-0.017835
0.030002
0.063806
0.024262
-0.021343
-0.052596
0.04818
0.054558
-0.0041214
-0.014008
-0.086081
-0.073006
-0.0073105
-0.045261
-0.060887
-0.0063538
0.0019378
-0.032823
0.059661
0.058066
0.022029
0.020754
-0.046536
0.0028946
0.073374
0.0131
-0.047174
-0.083849
-0.063439
-0.030591
0.00098112
-0.072687
-0.022618
0.02458
-0.031229
0.058704
0.11005
0.034786
0.012143
0.063487
0.024899
-0.0015702
0.034786
-0.037607
-0.036331
-0.064077
-0.044942
0.021072
-0.010819
-0.028359
0.021391
0.039569
0.062212
0.025856
0.00098112
-0.03665
0.052007
0.059023
-0.0018891
0.014694
-0.067585
-0.075557
-0.020386
-0.019748
-0.070774
-0.021024
-0.0073105
-0.049088
0.023624
0.023624
-0.026126
-0.0025269
-0.06312
-0.047174
-0.0038025
-0.037288
-0.091184
-0.13838
-0.093097
-0.074919
-0.036969
-0.11032
-0.085125
-0.023256
-0.010181
0.058704
0.06572
-0.0012513
0.0016189
0.066358
0.053601
0.016608
0.044991
-0.021661
-0.010819
-0.015921
-0.0095429
0.015013
0.033191
0.012462
0.018202
0.059661
0.11037
0.071141
0.036699
0.022986
0.08326
0.087087
0.05392
0.046266
-0.023894
-0.056423
0.015651
-0.026445
-0.038883
0.0095917
0.016927
-0.033461
0.023943
0.031915
-0.0025269
-0.03665
-0.084168
-0.074919
-0.058974
-0.070136
-0.10298
-0.13328
-0.13456
-0.1167
-0.044304
-0.10426
-0.066947
-0.015283
0.00066221
0.05392
0.026813
-0.013051
0.0064026
0.055515
0.063169
0.055834
0.069866
-0.014645
-0.032823
-0.014327
-0.021024
0.010867
0.038294
-0.0034836
-0.013051
0.057109
0.078795
0.072736
0.060936
-0.027083
0.034467
0.039888
-0.012413
0.0070404
-0.041434
-0.057379
-0.0031647
0.0022568
-0.047812
0.0099106
0.05105
0.014694
0.071779
0.056153
0.061255
0.059661
0.039569
-0.0041214
0.034148
0.0057648
-0.037607
-0.021024
-0.038564
-0.024213
0.034148
-0.045899
-0.015283
0.020435
0.046266
0.068271
0.041164
0.012462
0.016289
0.070185
0.046266
-0.016878
0.012462
-0.065352
-0.086081
-0.066628
-0.099794
-0.10458
-0.044623
-0.040796
-0.0864
-0.012094
0.022986
-0.024532
-0.0034836
-0.078746
-0.037607
0.010867
-0.033461
-0.043666
-0.11638
-0.089589
-0.019748
-0.036331
-0.086719
-0.04271
0.01023
-0.026445
0.043715
0.031278
-0.03091
0.026494
0.0060837
-0.021661
-0.037288
-0.017197
-0.052915
-0.062163
-0.052596
-0.058336
-0.019429
-0.015921
-0.034099
-0.0038025
-0.0015702
0.063169
0.040207
-0.0044404
-0.012732
0.073374
0.060617
0.0016189
0.0076782
-0.059612
-0.038883
-0.010181
-0.015921
-0.012732
-0.002208
0.0057648
-0.010819
0.082303
0.075606
0.057109
0.06572
0.0022568
0.032234
0.079114
0.034148
-0.014008
-0.047493
-0.028996
0.014375
0.011824
-0.084806
-0.028996
0.043715
0.008316
0.061255
0.052326
-0.0098618
-0.0098618
0.014375
-0.010181
-0.0015702
0.023943
-0.052915
-0.081617
-0.066309
-0.06025
-0.0082673
-0.014964
-0.029634
-0.013689
0.013419
0.073374
0.036061
0.012143
-0.059931
0.031596
0.016608
-0.02517
-0.0105
-0.1269
-0.11319
-0.086081
-0.051639
-0.061525
-0.053552
-0.031867
-0.063758
0.030959
0.041164
0.0032135
0.012143
-0.023894
0.015651
0.049455
0.034786
0.0003433
-0.072368
-0.062163
-0.016878
0.032234
-0.034099
-0.009224
0.031915
0.035742
0.096973
0.063806
-0.010819
0.014056
0.053282
0.022667
0.0067215
0.035423
-0.04271
-0.049407
-0.03378
-0.035694
-0.009224
-0.0018891
-0.005716
0.02777
0.066039
0.094103
0.046904
0.01597
-0.046218
0.046904
0.051688
-0.022618
-0.014964
-0.086719
-0.073963
-0.036969
-0.03665
-0.073325
-0.039202
-0.0044404
-0.057061
0.044034
0.050093
0.015013
0.014375
-0.017197
0.020754
0.038294
0.022986
-0.047174
-0.025488
-0.069179
-0.051958
0.020435
-0.056423
-0.064395
-0.016559
-0.0063538
0.10526
0.071779
-0.018153
-0.012094
0.048499
0.035742
-0.03952
-0.050044
-0.14954
-0.10777
0.028726
-0.019429
-0.030591
-0.043666
-0.073325
-0.071411
0.013419
0.048818
0.0070404
0.00098112
-0.045899
0.026494
0.056471
0.015651
0.016608
-0.069179
-0.078746
2.4388e-05
0.018202
-0.060569
-0.014645
0.061574
0.012462
0.079114
0.051688
0.028407
0.034786
0.026175
0.013419
0.026175
0.030321
-0.014645
-0.036012
-0.061206
-0.053234
0.0076782
-0.0085862
0.0054459
0.039888
0.06285
0.15183
0.092508
-0.00061343
-0.011775
0.067314
0.079114
0.013738
0.00066221
-0.13424
-0.065352
0.0003433
-0.01337
-0.044942
-0.039839
-0.052596
-0.061844
0.01597
0.044672
0.0089539
-0.0060349
-0.063758
-0.00061343
2.4388e-05
-0.05419
-0.047493
-0.093735
-0.081617
-0.023575
-0.0047593
-0.11159
-0.088314
-0.0063538
-0.030591
0.037975
0.027451
-0.018153
-0.025488
-0.021343
0.028407
0.056153
0.037018
-0.031229
-0.08066
-0.072368
-0.073006
0.019478
0.013738
-0.0082673
0.031596
0.061574
0.087406
0.11675
0.072417
0.02777
0.084217
0.06285
0.017564
0.03351
-0.045899
-0.049407
0.011505
-0.00061343
-0.076195
0.0092728
0.023624
-0.044623
0.026175
0.052645
0.014375
0.027451
-0.047493
-0.012732
0.018202
0.014375
-0.0098618
-0.093735
-0.079384
-0.014645
0.017883
-0.047174
-0.024851
0.03064
0.037337
0.079752
0.082622
0.024899
-0.009224
0.035423
0.019478
0.037337
0.025218
-0.079703
-0.06599
-0.056104
-0.058336
-0.0105
-0.024851
-0.052915
-0.024851
0.024899
0.072736
0.028726
0.0019378
-0.058336
0.041483
0.079433
-0.0034836
-0.02804
-0.087676
-0.073963
-0.019748
-0.01624
-0.087995
-0.034737
-0.0034836
-0.040477
0.044991
0.066039
0.048818
0.055834
0.012143
0.043715
0.06859
0.029364
-0.010819
-0.04558
-0.043347
0.036061
0.063806
-0.035056
-0.03665
0.036699
0.01597
0.052963
0.0095917
-0.056423
-0.057379
-0.00029452
-0.020705
-0.069179
-0.066628
-0.13487
-0.1285
-0.13615
-0.12499
-0.055466
-0.056742
-0.057698
-0.033142
0.027132
0.067314
0.038612
-0.0012513
-0.04558
0.063169
0.086768
0.010867
0.027451
-0.026445
-0.015921
0.078795
0.027451
-0.052915
0.011824
0.05679
0.031596
0.11738
0.11324
0.09793
0.053601
0.030002
0.012462
0.073055
0.063806
0.035742
-0.030591
-0.037926
-0.0098618
0.013738
-0.055466
-0.023575
0.028407
0.0073593
0.064763
0.047223
-0.051639
-0.020705
0.031596
0.016289
-0.054509
-0.068222
-0.10139
-0.085125
-0.078427
-0.10713
-0.077471
-0.08066
-0.035375
-0.013051
0.051688
0.050731
0.019797
0.047223
-0.0085862
0.043715
0.060298
-0.0085862
-0.0089051
-0.047493
-0.019748
0.030959
0.02171
-0.078746
-0.034418
0.050412
0.028407
0.091233
0.022986
-0.024851
-0.0098618
-0.012413
-0.028996
-0.0038025
-0.0038025
-0.040477
-0.094692
-0.12977
-0.11446
-0.033142
-0.031229
-0.046855
-0.010819
0.017246
0.069866
0.046585
-0.014327
-0.009224
0.075925
0.053282
-0.00093234
0.02777
-0.057379
-0.043347
-0.015283
-0.039202
-0.042072
-0.023894
-0.022299
-0.037926
0.050412
0.066358
0.035423
0.043077
-0.012413
0.058704
0.086768
0.016289
0.0070404
-0.03952
-0.010819
0.0041702
0.049774
-0.028996
-0.037288
-0.016559
0.010867
0.070185
0.02171
-0.036012
-0.02198
-0.028359
-0.016878
-0.026445
-0.032823
-0.074919
-0.085762
-0.092141
-0.090227
-0.023894
-0.040158
-0.020386
0.011824
0.034786
0.087406
0.067952
0.033191
0.020754
0.032872
0.023305
-0.0015702
0.022986
-0.043028
-0.037607
0.027132
-0.014645
-0.027721
0.023943
0.023305
-0.023575
0.015332
0.075925
0.07752
0.028088
-0.028678
0.011505
0.029045
-0.019748
-0.031229
-0.093735
-0.10617
-0.054828
-0.028996
-0.11351
-0.084168
-0.032186
-0.036969
0.0060837
-0.01911
-0.093735
-0.077152
-0.044623
-0.052596
-0.065352
-0.039839
-0.12435
-0.14923
-0.12754
-0.10394
-0.046218
-0.052915
-0.058655
0.015332
0.029683
0.10845
0.054239
0.024899
0.026175
0.12025
0.093784
0.020754
0.069866
0.0131
0.0073593
0.032872
0.01884
-0.0028458
0.077838
0.069547
0.016608
0.12185
0.10016
0.051369
0.064763
0.00098112
0.0028946
0.066358
0.032553
0.011505
-0.039202
-0.075557
-0.014964
0.0076782
-0.07779
-0.058336
-0.0095429
-0.0034836
0.10718
0.087406
-0.014964
-0.028359
0.021391
0.0013
-0.026445
0.0019378
-0.099157
-0.14954
-0.11478
-0.073644
-0.06025
-0.03952
-0.070455
-0.087038
-0.025488
0.014375
-0.0066727
-0.0031647
-0.06312
0.026175
0.01023
-0.032504
-0.027721
-0.093097
-0.090227
0.0095917
-0.01911
-0.090227
-0.031548
0.011824
-0.061206
0.040207
0.059979
-0.011456
0.038612
0.008635
0.013419
0.060298
0.030002
-0.0085862
-0.031229
-0.035694
-0.02517
0.028088
-0.03665
0.0016189
0.051688
0.034467
0.067314
0.069866
0.0073593
-0.025807
0.044353
0.032553
-0.032823
-0.0063538
-0.093416
-0.09533
-0.081617
-0.046855
-0.00029452
0.020116
-0.020386
-0.032186
0.033191
0.091233
0.061893
0.060936
0.0022568
0.089319
0.087725
0.012462
-0.016878
-0.082254
-0.067585
-0.0044404
-0.0063538
-0.057698
0.0044891
0.0022568
-0.031548
0.022029
0.020754
-0.029634
-0.03378
0.0131
0.0089539
0.025537
0.042121
-0.023575
-0.058974
-0.086719
-0.010819
0.071779
-0.017197
-0.0069916
2.4388e-05
0.042439
0.096654
0.058385
-0.011775
-0.0066727
0.059661
0.046585
-0.016559
-0.0066727
-0.086081
-0.074919
-0.0073105
-0.051639
-0.072368
-0.052915
-0.040158
-0.04845
0.025856
0.050093
0.014375
0.0028946
-0.032186
0.016289
0.026494
-0.026126
-0.03378
-0.070774
-0.094054
-0.021661
-0.029315
-0.10809
-0.044942
0.03925
0.010867
0.065082
0.062531
-0.0044404
0.024899
0.035742
0.03064
0.033191
0.05392
0.0089539
-0.014964
-0.039202
-0.025488
0.035742
-0.0038025
-0.043028
0.027132
0.089957
0.1295
0.065401
-0.0082673
-0.023575
0.054877
0.034148
-0.027402
-0.064395
-0.13264
-0.096286
-0.021024
-0.039202
-0.055785
0.0019378
-0.043666
-0.11287
0.0044891
0.029364
-0.018791
-0.040158
-0.14508
-0.02198
0.042758
-0.035694
-0.059612
-0.097881
-0.097562
-0.047174
-0.03378
-0.097243
-0.03091
0.032872
0.015651
0.087725
0.10558
0.0054459
0.02458
0.055515
0.03925
0.043715
0.053282
-0.0034836
-0.020705
-0.023256
0.0013
0.029364
0.0067215
-0.061206
-0.034418
0.073055
0.10303
0.046266
0.068909
0.0076782
0.066995
0.052326
-0.017835
-0.016559
-0.068541
-0.050044
0.0095917
-0.014645
-0.041115
0.03064
0.044034
-0.0069916
0.064763
0.038612
0.0003433
0.031278
-0.0085862
-0.0025269
0.049137
0.016608
-0.0079484
-0.049088
-0.075238
-0.018472
-0.0085862
-0.037288
0.019797
0.062212
0.0079971
0.059661
0.059023
-0.00061343
-0.009224
0.014694
-0.016878
-0.03091
-0.030272
-0.06312
-0.06025
-0.082254
-0.12977
-0.11223
-0.080979
-0.081935
-0.099476
-0.067585
0.034786
0.040526
-0.022937
-0.05132
0.021391
0.015651
-0.04271
-0.01624
-0.089589
-0.047812
0.059023
0.032872
-0.015283
0.031596
0.05392
0.00098112
0.12855
0.093465
0.059979
0.085811
0.065401
0.076244
0.06859
0.02171
-0.044623
-0.050682
-0.052915
-0.012413
0.031915
-0.026126
0.0019378
0.029683
0.0041702
0.045947
0.043715
-0.027402
-0.025488
0.042439
0.0064026
-0.068541
-0.068222
-0.13296
-0.11989
-0.098519
-0.11574
-0.087676
-0.039202
-0.082573
-0.073006
0.0073593
0.050412
0.020435
0.0057648
-0.050044
0.050412
0.083579
0.046904
0.050093
-0.0018891
-0.017835
0.060936
0.10526
0.033829
0.058704
0.090914
0.00098112
0.09506
0.10813
0.044991
0.044991
0.033829
-0.026445
-0.0044404
0.0073593
-0.073963
-0.090227
-0.11446
-0.11415
-0.069817
-0.085443
-0.073006
-0.015921
-0.0079484
0.061574
0.030959
-0.026445
-0.02804
0.10271
0.07146
-0.018791
0.027132
-0.061206
-0.053871
0.0003433
-0.04845
-0.099794
-0.057698
0.034148
0.037975
0.028726
0.022348
-0.014964
-0.0089051
-0.069179
-0.0050782
0.0099106
-0.0082673
-0.020705
-0.077152
-0.053871
0.008635
0.023305
-0.085125
-0.037926
0.046585
0.028088
0.11324
0.093465
0.026494
0.03351
0.012781
0.052963
-0.012094
0.01884
-0.043985
-0.069498
-0.074601
-0.075238
0.0025757
-0.058655
-0.064077
-0.021024
0.027132
0.066995
0.048499
0.0070404
-0.0069916
0.088362
0.09506
0.019159
0.0099106
-0.044942
0.0073593
0.052645
-0.0073105
-0.024532
0.027132
0.038931
0.0099106
0.055196
0.076882
0.046585
0.038612
-0.023256
-0.0060349
0.014694
-0.024213
-0.056423
-0.1049
-0.087038
-0.062482
-0.044942
-0.1202
-0.10522
-0.027083
-0.037926
0.0073593
-0.037607
-0.080022
-0.028359
-0.025807
-0.034737
-0.03952
-0.016878
-0.069179
-0.14157
-0.10649
-0.093735
-0.018791
-0.015921
-0.060887
-0.043985
-0.0073105
0.054877
0.03064
0.0041702
-0.031229
0.058385
0.058066
0.0095917
0.0057648
-0.048131
-0.021343
0.053601
0.046266
0.0044891
0.074012
0.11579
0.063806
0.15055
0.1464
0.092827
0.082303
0.074968
0.09187
0.070503
0.015651
0.029045
-0.034099
-0.070774
-0.066309
-0.036012
-0.10872
-0.079703
-0.016559
-0.017835
0.043715
0.026813
-0.04271
-0.035375
0.022029
-0.010819
-0.048769
-0.072049
-0.11064
-0.057698
-0.039202
-0.074601
-0.032186
-0.059612
-0.08927
-0.06599
0.0073593
0.0099106
-0.026445
-0.012094
-0.05419
0.039888
0.05105
-0.015602
-0.022937
-0.097881
-0.070455
-0.0025269
-0.01624
-0.073644
-0.042072
0.0131
-0.021661
0.074012
0.062531
0.042439
0.03638
0.019159
0.01884
0.04818
0.059023
-0.022299
-0.060887
-0.01337
0.0003433
0.066358
-0.013051
0.017246
0.044353
0.051688
0.13779
0.11866
0.053601
0.038931
0.081665
0.036699
-0.014964
0.011824
-0.053234
-0.062163
-0.026764
-0.084487
-0.049726
0.0073593
0.012143
-0.012094
0.014375
-0.0063538
0.0131
0.051369
-0.02517
0.040845
0.032872
0.0054459
0.026813
-0.036331
-0.023575
0.041802
0.040845
-0.052596
-0.0076295
0.089319
0.031596
0.10112
0.078476
0.050093
0.063487
0.056153
0.026494
0.023943
0.050731
-0.0060349
-0.050044
-0.052915
-0.025807
0.025856
-0.050044
-0.012732
0.036061
0.043396
0.091552
0.069228
-0.014327
-0.027721
0.081028
0.02458
-0.04845
-0.02198
-0.082254
-0.079384
-0.059612
-0.074601
-0.075557
-0.057698
-0.053234
-0.071093
-0.026126
-0.0085862
-0.017197
-0.022299
-0.10394
-0.036969
-0.015283
-0.050044
-0.02517
-0.086719
-0.11128
-0.066309
-0.016878
-0.091822
-0.026126
0.059979
0.015651
0.096654
0.075606
0.022986
0.05105
0.058385
0.01884
0.014694
0.03064
-0.04271
-0.099476
-0.092141
-0.064714
0.0070404
-0.040477
-0.052915
-0.025807
-0.026126
0.042121
0.03925
-0.0079484
-0.0095429
0.081984
0.071779
0.0131
0.03351
-0.028678
-0.021343
0.041483
0.0099106
-0.0095429
0.040526
0.067314
0.043715
0.088362
0.097611
0.085173
0.082941
0.0035324
0.048499
0.085811
0.019159
-0.020705
-0.057061
-0.058974
-0.03665
0.0099106
-0.094054
-0.075876
-0.039839
-0.069179
0.015013
0.0060837
-0.059931
-0.055466
-0.01911
-0.0076295
-0.0069916
-0.017835
-0.096924
-0.14508
-0.1033
-0.080341
-0.020386
-0.062163
-0.088314
-0.067266
-0.03952
-0.0047593
-0.0038025
-0.042391
-0.10777
0.040845
0.037018
-0.03665
-0.023575
-0.10235
-0.077152
0.004808
0.028407
0.013738
0.066995
0.10941
0.060936
0.14034
0.15055
0.13046
0.12918
0.069547
0.070503
0.10399
0.076882
0.052963
-0.0073105
-0.012094
0.015332
0.045947
-0.038245
-0.0018891
0.04818
0.050093
0.093146
0.085173
-0.0069916
2.4388e-05
0.031596
0.052326
0.037337
-0.026764
-0.070455
-0.047174
-0.06599
-0.040158
-0.0028458
0.017564
-0.021343
-0.019429
-0.0028458
0.038294
0.034148
0.0038513
-0.071411
0.0067215
-0.0015702
-0.015602
-0.036012
-0.13105
-0.12052
-0.070455
-0.091184
-0.13902
-0.10171
-0.080341
-0.11223
-0.00093234
0.033191
-0.01624
-0.022618
-0.053234
-0.042072
-0.0012513
0.0032135
-0.019748
-0.051639
-0.041434
-0.038564
-0.012732
-0.073006
-0.041434
0.012143
0.0051269
0.094103
0.030959
-0.05132
0.0032135
0.072098
0.028407
-0.029953
-0.035375
-0.10107
-0.046218
-0.040477
-0.037926
-0.018791
0.0038513
-0.026764
-0.010819
0.033191
0.06572
0.033191
0.0016189
-0.066309
0.025218
0.034467
0.0054459
-0.0041214
-0.081298
-0.06025
0.0067215
0.0044891
-0.055147
-0.025488
0.060617
0.023624
0.087725
0.063806
0.019159
0.044034
0.056153
0.017246
0.063169
0.055515
0.0131
-0.035694
-0.058017
-0.069179
0.045947
0.034148
-0.032823
0.048499
0.088362
0.11611
0.07433
-0.00093234
-0.020705
0.049455
0.030959
-0.026126
-0.017835
-0.079065
-0.11702
-0.073325
-0.071411
-0.093097
-0.066628
-0.055785
-0.092778
-0.026764
0.0064026
-0.015921
-0.011775
-0.079065
-0.048769
0.0131
-0.011775
-0.01911
-0.062801
-0.06599
-0.019429
-0.01624
-0.066628
-0.033142
0.025537
0.027132
0.10367
0.079114
0.036699
0.036699
0.032234
-0.011775
0.014375
0.0019378
-0.0095429
-0.044304
-0.084806
-0.08927
-0.017197
-0.036331
-0.067903
-0.030591
-0.01337
0.023943
-0.022937
-0.065671
-0.091503
-0.0069916
0.00098112
-0.051958
-0.055147
-0.13774
-0.14317
-0.073644
-0.074919
-0.062163
-0.015921
-0.01337
-0.028996
0.048499
0.079114
0.052963
0.055196
-0.047174
0.0070404
0.034786
0.0013
0.031596
-0.058017
-0.081935
-0.033142
-0.043985
-0.096286
0.0079971
0.055196
-0.0060349
0.057109
0.059661
0.022348
0.041164
0.070822
0.063487
0.064125
0.08039
0.020435
0.0076782
0.016608
0.013738
0.087725
0.078795
0.063487
0.092189
0.095697
0.13779
0.11483
0.10239
0.055196
0.1429
0.11515
0.035742
0.088681
-0.005716
-0.011775
0.03925
-0.0012513
-0.029634
0.031915
0.030002
-0.035056
0.023305
0.037337
-0.027083
0.0060837
-0.058017
-0.043666
-0.015921
-0.057698
-0.11191
-0.17442
-0.17378
-0.13392
-0.081298
-0.13966
-0.10617
-0.043347
-0.054828
0.01023
-0.00093234
-0.066628
-0.074282
-0.023575
-0.041753
-0.032823
-0.011775
-0.090865
-0.095968
-0.070774
-0.098519
-0.017197
-0.00093234
-0.039202
-0.037288
-0.002208
0.080071
0.040845
0.0022568
-0.061525
0.049455
0.067314
-0.0015702
-0.024213
-0.056742
-0.069498
0.041802
-0.012094
-0.077471
-0.038883
0.010548
0.01023
0.099843
0.1126
0.061574
0.057428
0.025856
0.043715
0.078476
0.058704
0.024899
-0.043347
-0.065352
0.017246
0.078476
-0.017516
-0.0012513
0.067952
0.064125
0.10144
0.051369
-0.018472
0.0022568
0.036699
0.054877
0.0092728
-0.015283
-0.10968
-0.099476
-0.068541
-0.082892
-0.08353
-0.062163
-0.058336
-0.06599
0.022986
0.045629
0.01884
0.014694
-0.046855
0.019797
0.056471
0.019478
0.012143
-0.066628
-0.053234
0.0079971
-0.019429
-0.060887
-0.02198
0.026813
-0.017835
0.061893
0.052007
0.017246
0.015013
-0.020386
-0.009224
-0.015602
0.0019378
-0.037926
-0.087676
-0.084806
-0.039202
0.016289
0.0019378
-0.017835
0.0057648
0.035104
0.088044
0.052645
0.049455
0.035104
0.095378
0.08326
0.037018
0.059342
-0.0047593
-0.027083
0.0131
0.026175
0.013738
0.067314
0.044672
-0.021343
0.031596
0.093465
0.092827
0.074968
-0.048769
0.012781
0.072417
0.012781
-0.022618
-0.10426
-0.11223
-0.067585
-0.077152
-0.15433
-0.10139
-0.061206
-0.091822
-0.042391
-0.042391
-0.075557
-0.050044
-0.042072
-0.047493
-0.045261
-0.04271
-0.093416
-0.1049
-0.092778
-0.096924
0.025856
-0.009224
0.012781
0.055196
0.045629
0.094422
0.077838
0.03925
0.030002
0.094741
0.1059
0.042121
0.081665
0.011186
0.018521
0.061893
0.032234
0.036699
0.032553
0.065401
0.04531
0.071141
0.089638
0.067952
0.046904
-0.045899
0.004808
0.038612
-0.029953
-0.03091
-0.13519
-0.13583
-0.063439
-0.055785
-0.14699
-0.10553
-0.03952
-0.053234
0.030002
0.028726
-0.022937
-0.009224
0.029683
0.0019378
-0.012094
0.014694
-0.038245
-0.043347
-0.040477
-0.046218
-0.0034836
0.015651
0.0032135
0.024262
0.030959
0.091233
0.063487
0.021391
-0.019429
0.049137
0.034467
-0.027721
-0.024851
-0.087357
-0.061844
-0.0044404
-0.041434
-0.073644
0.0099106
0.046585
-0.034099
0.034786
0.04531
0.020116
0.057747
0.022348
0.039569
0.077201
0.052963
0.035104
-0.0053971
-0.050363
-0.036012
0.022986
-0.066309
-0.021343
0.01597
-0.032504
0.067633
0.052007
-0.031229
-0.0012513
0.02171
-0.0063538
-0.022937
-0.026126
-0.063758
-0.059931
-0.073644
-0.061844
0.0025757
0.014694
-0.005716
0.013419
0.050093
0.063487
0.030002
0.042758
-0.051639
0.041483
0.054558
0.0013
0.0060837
-0.056742
-0.087038
-0.033461
-0.016559
-0.06025
-0.02198
0.026494
-0.040158
0.00098112
0.044353
0.057428
0.037018
-0.040796
-0.036331
0.015332
0.0019378
-0.052915
-0.10968
-0.097243
-0.074601
0.0032135
-0.055147
-0.045261
0.019159
0.021072
0.065401
0.059023
0.014375
0.013419
0.057747
0.065401
0.033829
0.04818
-0.031548
-0.034737
-0.0031647
-0.0079484
0.011824
0.034467
0.0016189
-0.013689
0.032553
0.044353
0.0038513
-0.0031647
-0.087357
0.01597
0.035104
-0.024851
-0.061844
-0.14349
-0.11223
-0.061206
-0.081935
-0.14349
-0.094054
-0.037288
-0.034099
0.055515
0.019478
-0.011775
-0.011456
-0.01337
-0.0015702
0.041802
0.017883
0.004808
-0.065033
-0.070136
-0.01911
0.049137
-0.015921
-0.031867
0.01884
0.047542
0.10016
0.073693
0.011824
0.0003433
0.080709
0.054877
2.4388e-05
0.044991
-0.043347
-0.057379
-0.0012513
-0.024213
-0.019429
0.0038513
-0.014327
-0.036331
0.015332
0.049137
0.016289
0.023624
-0.057379
0.025537
0.05392
0.014375
-0.023575
-0.072368
-0.053552
0.042758
0.07752
0.020435
0.052326
0.078476
0.043715
0.12855
0.13014
0.084536
0.091233
0.039569
0.011505
0.039888
0.034786
-0.027721
-0.057379
-0.092778
-0.11765
-0.087357
-0.13424
-0.10203
-0.038564
-0.046855
-0.026126
-0.037607
-0.1049
-0.074601
-0.00061343
-0.025807
-0.06025
-0.032504
-0.11638
-0.10011
-0.0098618
-0.01337
-0.022618
0.037018
0.02458
0.01597
0.1059
0.11643
0.096973
0.11643
0.031596
0.047542
0.10176
0.057747
0.012462
-0.057379
-0.061844
-0.030272
0.028088
-0.10809
-0.084806
-0.0069916
-0.0050782
0.088044
0.042121
-0.077471
-0.045261
-0.015921
0.011824
0.043077
0.052645
-0.028996
-0.022937
-0.029315
-0.044304
0.016608
0.0064026
-0.012094
-0.0089051
0.022348
0.057747
0.047542
0.0003433
-0.027721
0.040207
0.075287
-0.005716
-0.0076295
-0.085762
-0.057061
0.03064
0.025537
0.023305
0.063169
0.1126
0.08326
0.15884
0.16139
0.098249
0.10877
0.052326
0.057109
0.097292
0.042439
0.0099106
-0.06312
-0.08927
-0.043347
-0.017516
-0.08927
-0.081298
-0.034099
-0.026764
0.030321
-0.0076295
-0.060569
-0.050044
0.0038513
-0.011137
-0.014327
0.0013
-0.06312
-0.08353
-0.060887
-0.059293
-0.0069916
-0.017197
-0.049088
-0.034099
-0.01624
0.044353
0.021391
-0.013689
-0.081617
0.0054459
0.0051269
-0.064077
-0.046855
-0.11446
-0.11957
-0.051639
-0.061206
-0.11096
-0.054509
-0.015921
-0.050044
0.040526
0.03638
-0.036012
0.0079971
-0.013051
-0.014008
0.010548
0.033829
-0.0098618
-0.046218
-0.087038
-0.049407
-0.00029452
-0.065671
-0.050363
0.049455
0.067314
0.080071
0.034467
0.01597
0.02777
0.059023
0.03064
-0.00093234
0.043077
-0.01624
-0.046855
-0.031229
-0.032186
-0.016878
-0.0018891
-0.011137
-0.026764
0.029683
0.067314
0.031915
-0.005716
-0.069817
0.0070404
0.04818
-0.0044404
-0.0038025
-0.097243
-0.11765
-0.040158
-0.028996
-0.067585
-0.019748
0.017883
-0.0098618
0.064125
0.051369
0.0089539
0.044991
0.026175
0.0032135
0.016289
0.012462
-0.029634
-0.057698
-0.067585
-0.058655
0.02171
-0.031867
-0.0095429
0.049137
0.029045
0.085492
0.061255
0.03351
0.02777
0.099524
0.088044
0.034467
0.064125
-0.002208
-0.021661
0.02777
0.042439
0.062212
0.094741
0.031596
0.015651
0.08326
0.10271
0.07146
0.047223
-0.062801
0.016289
0.028088
-0.035694
-0.046536
-0.085762
-0.13456
-0.085762
-0.075876
-0.12913
-0.067585
-0.0073105
-0.050363
0.015651
0.023943
-0.047174
-0.017835
0.074968
0.044353
0.069866
0.055515
-0.016878
-0.072368
-0.065352
-0.053234
0.019797
-0.012413
-0.020067
-0.050044
-0.0031647
0.094741
0.046904
-0.038883
-0.064395
0.008635
0.0025757
-0.048769
-0.041753
-0.082892
-0.086719
-0.069817
-0.06312
-0.053234
-0.029634
-0.016878
-0.043985
0.027132
0.023305
-0.0095429
0.016289
-0.042391
-0.0063538
-0.00029452
-0.026764
-0.030591
-0.087357
-0.10713
-0.067903
-0.034418
-0.093416
-0.03665
0.03064
-0.032504
0.022986
0.072417
0.030321
0.047542
0.081028
0.084536
0.12217
0.13237
0.064763
0.064763
0.081984
0.062531
0.13843
0.081665
0.049137
0.16809
0.20987
0.24399
0.18467
0.13684
0.11292
0.16937
0.15438
0.07752
0.10144
0.0064026
-0.014645
0.080071
-0.00093234
-0.04271
0.061574
0.025218
-0.02517
0.019159
0.013419
-0.020386
-0.0031647
-0.050363
0.0038513
0.011505
-0.045899
-0.07173
-0.10968
-0.12371
-0.086081
-0.036331
-0.17729
-0.098519
0.018521
-0.028359
0.015332
-0.037607
-0.13456
-0.10617
-0.059612
-0.076195
-0.10043
-0.075876
-0.15911
-0.15624
-0.1403
-0.15305
-0.098838
-0.12626
-0.14412
-0.12148
-0.085762
-0.035056
-0.068541
-0.08927
-0.13264
-0.057379
-0.029953
-0.070774
-0.078746
-0.12244
-0.094692
-0.035694
-0.047493
-0.081617
-0.020386
0.037656
0.0032135
0.082622
0.084217
0.044991
0.062531
0.024262
0.037337
0.074012
0.046585
0.0131
-0.031229
-0.04845
-0.0085862
0.052326
-0.0044404
0.014694
0.064444
0.068909
0.12536
0.10845
0.057747
0.081665
0.19934
0.17798
0.11579
0.096016
0.022348
0.015013
0.028407
-0.029634
0.0057648
0.0067215
-0.012732
0.0076782
0.025537
0.032553
0.0044891
-0.022618
-0.12977
-0.033461
0.013419
-0.023894
-0.039202
-0.096924
-0.056742
0.049137
0.047223
-0.022937
-0.029634
0.052007
0.043396
0.11451
0.10048
0.028726
0.05392
0.032553
0.015332
0.023624
0.0044891
-0.05132
-0.11032
-0.095649
-0.080341
-0.0085862
-0.065352
-0.078427
-0.041434
0.012462
0.062531
-0.0085862
-0.050682
-0.059293
0.031278
0.037018
-0.028996
-0.02804
-0.093735
-0.071411
-0.022937
-0.04845
-0.043985
-0.011456
-0.0038025
-0.023575
0.030959
0.059023
0.035742
-0.0031647
-0.083849
0.044672
0.055196
0.0025757
-0.04271
-0.092778
-0.084806
-0.029953
-0.039202
-0.1033
-0.046218
0.039888
0.004808
0.064763
0.048499
-0.027083
0.0025757
0.0044891
0.03638
0.031278
0.0089539
-0.022618
-0.081935
-0.086081
-0.025488
0.047542
-0.00093234
-0.026126
0.023624
0.04531
0.10463
0.079752
0.0131
0.0028946
0.062531
0.029364
-0.012413
-0.0015702
-0.096286
-0.091503
-0.04271
-0.077471
-0.055147
-0.03378
0.0060837
-0.026764
0.03064
0.079114
0.071779
0.04531
-0.021343
0.047223
0.058385
0.015013
0.030002
-0.08066
-0.10171
-0.03091
0.038294
-0.037288
-0.042072
-0.014327
-0.042391
0.030002
0.019797
-0.024851
0.012781
0.052963
0.03638
0.043077
0.059023
0.0095917
-0.020705
-0.032823
-0.026764
0.040207
0.023624
0.021072
0.023624
0.080071
0.092508
0.046904
0.042439
-0.031548
0.055196
0.053601
-0.032186
0.017883
-0.062801
-0.044623
-0.0028458
-0.018153
-0.055466
-0.0015702
0.0013
-0.067903
0.034467
0.059979
0.031915
-0.012732
-0.072687
-0.05132
-0.031867
-0.032504
-0.058655
-0.13583
-0.18239
-0.13232
-0.095649
-0.16039
-0.14476
-0.0012513
-0.023575
0.041164
0.03351
-0.040158
-0.024532
0.011824
0.027451
0.020754
0.041164
-0.051639
-0.048769
-0.04558
-0.0098618
0.035742
0.040526
0.0060837
0.022029
0.045947
0.066995
0.020435
0.046585
0.012781
0.08326
0.086768
0.026494
0.050412
-0.026764
-0.023575
0.050412
0.015651
-0.056423
0.030959
0.087087
0.052963
0.11993
0.10208
0.05679
0.051369
0.03638
0.023943
0.034467
0.0038513
-0.06886
-0.078746
-0.094692
-0.058655
-0.0060349
-0.084487
-0.088314
-0.031229
-0.044623
0.0079971
-0.011456
-0.052277
-0.029953
0.038931
0.010548
-0.022937
-0.016559
-0.1033
-0.10362
-0.049088
-0.074601
-0.043347
-0.043985
-0.060887
-0.031229
0.020754
0.063487
0.044991
0.014056
-0.060887
0.023305
0.075287
0.03638
0.047861
-0.021024
-0.059931
0.03638
0.049137
-0.041115
0.012143
0.054558
0.030002
0.082622
0.053601
0.0095917
0.0044891
-0.01337
0.00098112
0.0032135
-0.026126
-0.052277
-0.093735
-0.099794
-0.094692
-0.052596
-0.018153
-0.045899
0.024899
0.0032135
0.027132
0.047223
0.011824
-0.0050782
0.070185
0.05679
0.0067215
0.047542
-0.039839
-0.048131
-0.0079484
-0.012732
0.0051269
0.034467
0.024899
0.0089539
0.078476
0.06285
0.030321
0.060298
-0.023575
0.013738
0.024262
-0.0018891
-0.027083
-0.097243
-0.10522
-0.034099
-0.017516
-0.13487
-0.062482
-0.014327
-0.018153
0.087725
0.077838
-0.010819
0.053282
0.07146
0.047223
0.072098
0.066677
0.032553
-0.0073105
-0.029634
-0.024213
0.048818
0.0067215
-0.01337
0.011505
0.016927
0.075606
0.039888
-0.023575
-0.065352
-0.0105
-0.0066727
-0.064395
-0.053234
-0.12435
-0.14731
-0.097881
-0.069179
-0.10426
-0.050682
-0.011775
-0.052277
0.01597
0.019159
-0.00029452
0.028088
-0.026445
-0.0015702
0.049137
0.044034
-0.015921
-0.087357
-0.010181
0.045629
0.034467
-0.058974
-0.039839
0.037975
0.052645
0.12153
0.099524
0.034467
0.036061
0.07433
0.08613
0.091233
0.096016
-0.0015702
-0.0044404
0.016927
0.015332
0.069547
0.031915
-0.00061343
0.008316
0.065401
0.072098
0.090914
0.07146
0.0003433
0.066995
0.017246
-0.035056
-0.057379
-0.12658
-0.10075
-0.088633
-0.10171
-0.13328
-0.076195
-0.019748
-0.079384
-0.016559
-0.026764
-0.061206
-0.038564
-0.074282
-0.028996
0.0013
2.4388e-05
-0.043028
-0.10203
-0.10171
-0.020067
0.022348
-0.043347
-0.01624
0.072417
0.049455
0.10909
0.078476
0.0076782
0.030959
0.095697
0.048818
0.049137
0.032234
-0.059293
-0.035375
-0.039839
-0.021343
0.0099106
-0.027721
-0.052915
-0.06599
0.0016189
0.029683
-0.0044404
-0.028359
-0.069817
0.014375
0.037656
-0.026764
-0.046218
-0.089589
-0.094692
-0.051639
-0.036969
-0.085762
-0.056423
-0.0069916
-0.029953
0.053601
0.037975
-0.022937
-0.0089051
-0.018791
0.017246
0.055196
0.027451
-0.020705
-0.033142
-0.062482
-0.041115
0.024899
-0.0038025
0.014375
0.080071
0.064125
0.098886
0.067314
0.012143
0.06859
0.11132
0.057747
0.020754
0.046904
-0.031548
-0.047174
-0.014327
-0.033142
-0.033142
-0.012413
-0.01624
-0.049088
0.022348
0.074968
0.051369
0.0057648
-0.074919
0.030002
0.03925
-0.03091
-0.036969
-0.11191
-0.078746
-0.0018891
-0.028359
-0.068222
-0.0069916
0.062212
0.027451
0.092508
0.075925
0.024899
0.043077
0.052326
0.021072
0.080709
0.057747
0.026494
0.030002
-0.012094
-0.0095429
0.041164
-0.054828
-0.076833
0.034786
0.065082
0.090276
0.029364
-0.058017
-0.073963
-0.0098618
-0.031548
-0.079065
-0.069817
-0.14572
-0.14189
-0.11255
-0.14349
-0.11096
-0.091184
-0.067266
-0.082573
-0.016559
-0.01337
-0.051001
-0.010819
-0.065671
0.0022568
0.022029
-0.013689
-0.012094
-0.07779
-0.084806
-0.0095429
-0.016878
-0.06312
-0.012732
0.059342
0.026813
0.12121
0.10941
0.055834
0.03064
0.066995
0.060617
0.022348
0.024899
0.035104
-0.010181
-0.035694
-0.022299
0.017883
0.010548
-0.034737
-0.027721
-0.0041214
0.10526
0.03925
0.0019378
-0.0025269
0.057109
0.059342
-0.0082673
0.024899
-0.07779
-0.079065
0.019159
0.0035324
-0.041115
-0.02517
-0.011775
-0.051958
0.044353
0.040526
0.012143
0.021391
-0.010819
0.026175
0.030002
0.03064
0.0070404
-0.051001
-0.044623
-0.017835
0.056153
-0.063439
-0.027083
0.080709
0.05679
0.094103
0.076244
0.0016189
0.00098112
0.040207
0.015332
0.0064026
0.0016189
-0.075238
-0.10011
-0.080341
-0.07779
-0.022618
-0.032823
-0.041753
-0.031548
0.030002
0.057109
-0.0063538
-0.038245
-0.051001
0.030002
0.023943
-0.021661
-0.035694
-0.087038
-0.088633
-0.032504
-0.055466
-0.064714
-0.043985
-0.017835
-0.018472
0.078157
0.064444
0.0089539
0.011824
-0.044304
0.0038513
0.052007
0.034148
-0.0079484
-0.077471
-0.070774
-0.026764
0.0064026
-0.050044
-0.0015702
0.046904
0.022986
0.090595
0.05392
-0.016559
-0.028678
0.022667
0.033829
-0.017197
-0.0028458
-0.087038
-0.10203
-0.084806
-0.084168
-0.043666
-0.049088
-0.068222
-0.075557
-0.00061343
0.034148
0.022348
0.011824
-0.016878
0.061574
0.073374
0.042758
0.058066
-0.037926
-0.016878
0.012781
-0.012732
-0.018791
0.061574
0.13333
0.026494
0.10208
0.087087
0.022348
0.044672
0.0022568
-0.0063538
0.041164
0.035742
-0.035056
-0.058017
-0.069817
-0.059612
-0.011137
-0.092141
-0.065352
0.004808
0.020435
0.051369
0.018521
-0.038564
-0.066309
0.022348
0.040526
-0.034418
-0.0079484
-0.082573
-0.066628
-0.029315
-0.066309
-0.055466
-0.023256
-0.035375
-0.074919
-0.023256
0.021391
0.019159
0.0016189
-0.061844
-0.0038025
0.0079971
-0.041115
-0.040158
-0.093097
-0.10171
-0.04558
-0.037926
-0.086081
-0.017835
0.031278
0.0013
0.067952
0.049137
0.0032135
0.044034
0.016608
0.010548
0.044672
0.012462
-0.018791
-0.038564
-0.049407
-0.03665
0.042439
-0.0012513
0.0099106
0.073374
0.079752
0.11866
0.098886
0.055196
0.036699
0.10558
0.094103
0.048818
0.031278
0.00098112
-0.017835
0.017883
-0.0098618
-0.024851
0.044034
0.039569
-0.016559
0.011824
0.0092728
-0.0089051
-0.032823
-0.095011
-0.0044404
0.01884
-0.020705
-0.053552
-0.10266
-0.11989
-0.044623
-0.014327
-0.10936
-0.090865
0.0054459
0.048499
0.10399
0.061574
-0.0076295
-0.040158
-0.0066727
0.0038513
0.029045
0.0089539
-0.083211
-0.11096
-0.098838
-0.10522
-0.035694
-0.080341
-0.0982
-0.031229
-0.0076295
0.058066
0.029364
0.0044891
-0.032823
0.019159
0.019478
-0.01911
0.016289
-0.058017
-0.023575
0.041164
0.0038513
-0.021343
0.012143
0.032553
0.019159
0.082622
0.063806
0.02777
0.074012
0.010548
0.046904
0.061255
0.020435
-0.0095429
-0.067585
-0.073325
-0.017197
0.024899
-0.041115
-0.024213
0.048818
0.028407
0.094422
0.070185
0.014694
0.031915
0.067952
0.057109
0.05392
0.072098
-0.012732
-0.02804
-0.044304
-0.04271
0.067952
0.060617
-0.0050782
0.02171
0.12249
0.16012
0.10208
0.054239
-0.030591
-0.0018891
0.061574
0.021391
0.0013
-0.093735
-0.1151
-0.009224
-0.077471
-0.12148
-0.1151
-0.088633
-0.14125
-0.055785
-0.040796
-0.08353
-0.076833
-0.12339
-0.053871
-0.0025269
-0.028359
-0.062163
-0.094692
-0.1033
-0.053234
-0.0060349
-0.051958
0.0079971
0.031596
0.023624
0.12536
0.12089
0.037018
0.029045
0.061893
0.06285
0.03638
0.025856
-0.036331
-0.042072
0.00098112
-0.020067
0.010548
0.017564
-0.0015702
-0.014964
0.073055
0.10973
0.07146
0.037018
-0.010819
0.03925
0.05105
0.016608
0.028088
-0.03665
-0.052915
0.040526
0.040845
-0.016878
0.019478
0.056153
0.027451
0.099843
0.11419
0.08039
0.084854
-0.00093234
0.060936
0.081028
0.0070404
-0.027083
-0.058655
-0.11319
-0.088314
-0.018153
-0.075876
-0.050363
-0.0085862
-0.0079484
0.027132
-0.021343
-0.082254
-0.076195
-0.018791
-0.031548
-0.062163
-0.034099
-0.11159
-0.099794
-0.11096
-0.11351
-0.08927
-0.048769
-0.080979
-0.10458
-0.0028458
0.02458
-0.00029452
-0.00029452
-0.070136
0.0051269
0.061893
-0.0050782
0.013738
-0.035375
-0.053234
0.0028946
0.036699
-0.022937
0.019159
0.05679
0.01884
0.11515
0.076882
0.046585
0.069547
0.070822
0.074968
0.078476
0.069866
0.01597
-0.014964
-0.03665
0.0051269
0.08326
0.046266
0.059342
0.065082
0.078476
0.093146
0.081346
-0.0069916
0.022348
0.098568
0.057109
-0.012413
0.0131
-0.064395
-0.082892
-0.026764
-0.034737
-0.057698
-0.028996
-0.032823
-0.053234
0.020754
0.07433
0.063806
0.024262
-0.068541
-0.0066727
-0.012413
-0.034737
-0.058655
-0.1049
-0.11861
-0.061206
-0.036331
-0.11223
-0.084168
-0.04271
-0.078746
0.0003433
-0.029953
-0.03091
-0.011775
-0.0031647
-0.020386
-0.019748
0.0067215
-0.062163
-0.074282
-0.087038
-0.11415
0.010867
0.016608
0.0060837
0.022348
0.044034
0.097611
0.072417
0.023305
-0.03378
0.064444
0.082941
0.014056
0.019478
-0.04845
-0.053871
0.0057648
-0.011775
-0.031867
0.0038513
0.043396
0.018202
0.081346
0.081028
0.055834
0.063487
0.02777
0.048499
0.078157
0.055196
0.047223
0.026813
0.0041702
0.014375
0.052007
-0.00029452
0.01884
0.038612
0.059661
0.099843
0.054558
0.018202
0.026494
0.042121
0.0016189
-0.037288
-0.035694
-0.14476
-0.10043
-0.064077
-0.12499
-0.12626
-0.12435
-0.12435
-0.064077
-0.020705
0.0028946
-0.0028458
2.4388e-05
-0.058017
0.023624
0.020754
-0.016559
0.015013
-0.041115
-0.041115
-0.01337
0.0067215
-0.0038025
0.012143
0.01597
0.016289
0.067952
0.073055
0.021072
0.020116
-0.034099
-0.014964
0.015332
-0.0098618
-0.04271
-0.098519
-0.11989
-0.081935
-0.028996
-0.070455
-0.053871
-0.026126
-0.026445
0.056153
0.015332
-0.045899
-0.019429
0.04818
0.017246
-0.024851
0.024262
-0.033142
-0.06312
-0.011775
-0.051001
-0.0047593
-0.0018891
-0.018791
-0.0060349
0.03351
0.082303
0.052007
0.055834
-0.0073105
0.039569
0.049137
-0.0034836
0.00066221
-0.070455
-0.057698
0.030959
0.038294
-0.065033
-0.012413
0.064763
0.042439
0.10463
0.090276
0.034467
0.046266
0.06572
0.074968
0.10176
0.081984
0.015651
-0.038883
-0.0085862
-0.0050782
0.056153
-0.010819
0.022986
0.08039
0.046266
0.073374
0.043077
-0.005716
-0.029953
0.028407
0.035742
-0.01337
-0.0089051
-0.10649
-0.1218
-0.092141
-0.12276
-0.13806
-0.057698
-0.057061
-0.10649
-0.050044
-0.030591
-0.022299
-0.026126
-0.069817
-0.049088
-0.012413
-0.02517
-0.056742
-0.10107
-0.10203
-0.035056
-0.033461
-0.095968
-0.01911
0.042121
0.0032135
0.041802
0.042758
0.011186
0.045629
0.037656
0.027132
0.045947
0.058066
2.4388e-05
-0.0031647
-0.01337
2.4388e-05
0.07433
0.044034
0.028407
0.050731
0.072417
0.11132
0.13875
0.06859
0.075925
0.1244
0.090276
0.0092728
0.032872
-0.036969
-0.036331
0.025856
-0.011775
-0.056104
-0.029953
0.0073593
-0.0066727
0.034148
