-0.090227
-0.089589
-0.012413
-0.0098618
-0.08927
-0.023256
0.008635
-0.020067
0.064125
0.057747
0.021391
0.0038513
0.015013
0.0019378
0.019159
0.023943
-0.040477
-0.070774
-0.075557
-0.040158
0.0044891
-0.051958
-0.027721
0.0019378
0.034148
0.08613
0.054558
-0.0089051
-0.010181
0.080709
0.042758
0.0099106
0.023943
-0.055785
-0.061206
-0.032823
-0.031229
-0.047174
0.013419
-0.0034836
-0.034737
0.042121
0.057109
0.027132
0.0054459
-0.038883
0.03351
0.034148
-0.0060349
-0.023894
-0.083849
-0.074919
0.0051269
0.0073593
-0.078746
-0.011456
0.018521
-0.0044404
0.084217
0.065082
0.034786
0.030959
0.03638
0.012462
0.01597
0.027132
-0.028678
-0.050363
-0.058974
-0.029953
0.0013
-0.041115
-0.033142
0.013738
0.024262
0.077201
0.035742
-0.020705
-0.023256
0.059979
0.023305
-0.0082673
0.0076782
-0.069817
-0.068222
-0.039839
-0.038883
-0.044304
0.020116
0.011186
-0.014008
0.058704
0.070822
0.05105
0.031278
-0.011775
0.064763
0.051688
0.014375
0.0003433
-0.066309
-0.061206
0.012462
0.0038513
-0.076514
-0.0063538
0.02171
2.4388e-05
0.083579
0.066677
0.044353
0.041802
0.049455
0.013738
0.023305
0.033829
-0.012732
-0.043347
-0.064714
-0.044942
-0.014008
-0.043985
-0.02517
0.017246
0.0070404
0.067952
0.027451
-0.031229
-0.034737
0.043715
0.013738
-0.010819
0.0060837
-0.073006
-0.072368
-0.050363
-0.046218
-0.047812
0.0079971
2.4388e-05
-0.028359
0.040526
0.060298
0.035104
0.004808
-0.034099
0.049455
0.042758
-0.0044404
-0.018153
-0.082892
-0.070774
0.0041702
-0.0018891
-0.083211
-0.0063538
0.01884
-0.018153
0.072736
0.057109
0.030002
0.023305
0.026813
0.0038513
0.0095917
0.010867
-0.03378
-0.067266
-0.080979
-0.051001
-0.012094
-0.076195
-0.044304
-0.012094
0.0073593
0.066039
0.023943
-0.038883
-0.037926
0.046904
0.011824
-0.014327
0.0054459
-0.065033
-0.060569
-0.047493
-0.043985
-0.02804
0.025856
0.015651
-0.0098618
0.063806
0.089319
0.064444
0.035423
-0.0069916
0.075925
0.07146
0.02171
0.011824
-0.059293
-0.048131
0.028407
0.016608
-0.072049
0.0022568
0.028088
-0.010181
0.066039
0.054239
0.021072
0.012143
0.0022568
-0.015283
-0.0012513
-0.0038025
-0.059293
-0.090227
-0.088314
-0.059612
-0.035375
-0.090865
-0.058655
-0.019748
-0.0041214
0.057109
0.022667
-0.043985
-0.039839
0.042121
0.0032135
-0.012094
0.015332
-0.064714
-0.066628
-0.053234
-0.043347
-0.028996
0.024899
0.015332
-0.0028458
0.066995
0.087406
0.06572
0.034467
-0.0015702
0.078476
0.067314
0.021072
0.015651
-0.073006
-0.057379
0.015332
0.0060837
-0.064077
0.0060837
0.026494
-0.015283
0.066677
0.052963
0.030959
0.027451
0.016927
0.0041702
0.015651
0.014375
-0.033142
-0.06312
-0.074282
-0.037926
-0.0025269
-0.069498
-0.036012
0.0070404
0.015651
0.071141
0.03925
-0.023256
-0.021024
0.05679
0.017564
-0.0089051
0.0051269
-0.072687
-0.065352
-0.056742
-0.058974
-0.044304
-0.0012513
-0.012413
-0.031548
0.037337
0.050093
0.024262
0.004808
-0.02517
0.057109
0.043077
-0.011775
-0.014645
-0.078427
-0.066947
0.0076782
0.0028946
-0.075876
0.0035324
0.017564
-0.01911
0.066677
0.062212
0.035423
0.02777
0.0079971
0.00098112
0.018521
0.016289
-0.038564
-0.073644
-0.083211
-0.030272
-0.0015702
-0.06886
-0.029634
0.017246
0.020116
0.060617
0.042758
-0.021024
-0.014645
0.052007
0.018202
-0.00093234
0.008635
-0.073325
-0.073963
-0.066628
-0.056423
-0.039839
-0.0034836
-0.014008
-0.027721
0.036061
0.060617
0.031596
0.008316
-0.02198
0.059661
0.057428
0.0073593
0.0013
-0.071093
-0.064714
0.0076782
0.0051269
-0.059293
0.0028946
0.020435
-0.014645
0.068271
0.063487
0.042758
0.040526
0.025856
0.013738
0.029683
0.027132
-0.019429
-0.056423
-0.071093
-0.026126
0.00066221
-0.073325
-0.032186
0.015332
0.017246
0.067952
0.042758
-0.016559
-0.011456
0.05392
0.013419
0.0032135
0.019478
-0.05419
-0.046218
-0.036969
-0.032823
-0.0082673
0.017246
0.0032135
0.012462
0.067952
0.084217
0.051369
0.022029
-0.032823
0.065401
0.048818
0.0038513
-0.0034836
-0.081935
-0.076514
-0.0073105
-0.014645
-0.088314
-0.024851
-0.0025269
-0.035375
0.048499
0.041164
0.012462
0.0131
-0.014327
-0.0050782
0.008316
0.008635
-0.034737
-0.073006
-0.074919
-0.032186
0.0003433
-0.07779
-0.033461
0.011824
0.015013
0.081346
0.054877
-0.005716
-0.0044404
0.064444
0.01597
0.0028946
0.016289
-0.049088
-0.052596
-0.048131
-0.043985
-0.013689
0.01597
0.004808
-0.012094
0.048818
0.075287
0.043396
0.0131
-0.01911
0.067633
0.049137
-0.0031647
-0.0025269
-0.078427
-0.072368
-0.00061343
0.0019378
-0.069498
0.0057648
0.019797
-0.017197
0.071779
0.069866
0.049137
0.053282
0.023624
0.027451
0.037337
0.033829
-0.0018891
-0.043985
-0.050044
-0.0031647
0.013419
-0.067903
-0.018472
0.021391
0.019797
0.080709
0.052007
-0.0095429
-0.012413
0.044991
0.0064026
-0.0073105
0.008635
-0.069817
-0.076195
-0.071093
-0.054828
-0.01911
-0.010819
-0.012094
-0.033142
0.032553
0.066358
0.038612
0.0003433
-0.029315
0.061255
0.044353
-0.0047593
-0.0098618
-0.078427
-0.07173
-0.0018891
-0.01337
-0.072368
-0.010181
0.0070404
-0.03665
0.043396
0.039569
0.020754
0.018202
-0.014645
-0.0041214
0.0038513
-0.0069916
-0.051958
-0.082254
-0.08066
-0.028359
-0.0050782
-0.081617
-0.040796
-0.0031647
0.011186
0.077838
0.047542
-0.011137
0.0054459
0.061255
0.025218
0.0060837
0.030959
-0.039839
-0.047493
-0.04845
-0.041115
-0.0025269
0.017883
0.010548
0.0057648
0.060936
0.087406
0.046266
0.0016189
-0.022299
0.078157
0.056153
0.0025757
0.004808
-0.071411
-0.067585
-0.005716
-0.0089051
-0.067266
0.0057648
0.019797
-0.020386
0.060617
0.05392
0.041483
0.035742
0.0041702
0.014694
0.022986
0.012781
-0.037288
-0.080341
-0.085762
-0.021343
0.00098112
-0.087038
-0.046218
-0.0050782
-0.011775
0.054239
0.028726
-0.015283
-0.017835
0.020116
-0.015283
-0.018472
-0.0038025
-0.084487
-0.084806
-0.085125
-0.078109
-0.041753
-0.03091
-0.035375
-0.033142
0.028088
0.05679
0.024262
-0.014008
-0.034418
0.062212
0.041802
-0.0028458
0.0079971
-0.067266
-0.063758
-0.0031647
-0.0066727
-0.055466
0.026494
0.040526
-0.0069916
0.076563
0.073374
0.058704
0.052326
0.016608
0.036061
0.044034
0.032553
-0.0095429
-0.065033
-0.076195
-0.0041214
0.01597
-0.081617
-0.035694
0.01023
0.014694
0.075606
0.053601
-0.010181
0.004808
0.042758
0.0064026
0.0070404
0.01884
-0.053234
-0.057061
-0.060569
-0.053552
-0.013689
-0.012413
-0.014008
-0.017516
0.029683
0.069547
0.033829
-0.011775
-0.02804
0.066995
0.044991
-0.0028458
0.0044891
-0.071411
-0.074282
-0.016878
-0.016878
-0.058336
0.014694
0.020116
-0.015283
0.069866
0.058385
0.035742
0.014056
-0.018472
0.014694
0.027451
0.0035324
-0.034418
-0.090227
-0.094054
-0.03378
-0.014964
-0.09246
-0.046536
-0.0069916
-0.018153
0.057109
0.04531
-0.011137
-0.0105
0.034467
0.0057648
0.0054459
0.022348
-0.041115
-0.049088
-0.057379
-0.048769
-0.0015702
-0.01337
-0.011775
0.0003433
0.05392
0.089319
0.050412
0.0035324
-0.013689
0.082622
0.058066
0.011505
0.019159
-0.062482
-0.057379
-0.009224
-0.011456
-0.052277
0.018521
0.01597
-0.033142
0.054877
0.059023
0.042121
0.026813
-0.017835
0.023624
0.028726
0.00098112
-0.025488
-0.063439
-0.069179
-0.0098618
0.0099106
-0.068541
-0.016559
0.026813
0.019478
0.090914
0.065401
0.021391
0.012143
0.03351
0.011824
0.029364
0.042121
-0.04558
-0.062163
-0.058336
-0.043666
-0.0060349
-0.013051
-0.0060349
-0.0018891
0.043396
0.087406
0.05392
0.0003433
-0.010181
0.088362
0.055515
-0.0066727
0.0076782
-0.058655
-0.058974
-0.017835
-0.017516
-0.047174
0.010867
-0.0018891
-0.034737
0.048818
0.05105
0.030321
0.024899
-0.018791
0.015013
0.023624
0.0092728
-0.022299
-0.075238
-0.070774
-0.0073105
0.012143
-0.072368
-0.018791
0.019797
0.0095917
0.08326
0.061255
0.0057648
0.01023
0.034786
-0.0018891
0.0016189
0.022348
-0.044623
-0.069817
-0.071093
-0.062163
-0.02517
-0.039202
-0.026764
-0.012732
0.031915
0.074649
0.039888
-0.014008
-0.02804
0.062531
0.033191
-0.0034836
0.012143
-0.066947
-0.062482
-0.015921
-0.027402
-0.068541
0.00066221
0.015332
-0.018472
0.060936
0.055834
0.035423
0.024899
-0.012413
0.035742
0.036699
0.0099106
-0.011456
-0.071093
-0.075557
-0.00029452
0.008635
-0.075238
-0.030591
0.0079971
-0.0034836
0.064125
0.047223
0.008635
0.0016189
0.0051269
-0.024213
-0.014964
0.0054459
-0.056104
-0.079065
-0.098519
-0.075557
-0.030272
-0.058017
-0.03091
-0.0044404
0.015651
0.071779
0.035423
-0.016559
-0.027721
0.068909
0.044353
0.0025757
0.017564
-0.059612
-0.056423
-0.0066727
-0.012094
-0.044623
0.017246
0.011824
-0.031548
0.049137
0.04818
0.043077
0.036061
-0.013689
0.031596
0.031278
0.004808
-0.017197
-0.067903
-0.067266
0.0089539
0.022029
-0.061525
-0.014964
0.026494
0.0076782
0.099524
0.072417
0.025218
0.018521
0.054877
0.01597
0.013738
0.021391
-0.033461
-0.057698
-0.074919
-0.055466
-0.0082673
-0.036012
-0.022618
-0.012413
0.035104
0.083898
0.039888
-0.019748
-0.026126
0.063487
0.030321
-0.0066727
0.0060837
-0.070136
-0.059293
-0.016878
-0.025488
-0.063439
0.017883
0.0025757
-0.028996
0.050412
0.059023
0.041164
0.01023
-0.029953
0.029683
0.035104
-0.0089051
-0.038245
-0.086719
-0.095968
-0.022618
-0.011137
-0.097881
-0.044623
-0.010819
-0.014008
0.064125
0.034467
-0.0031647
-0.0015702
0.025218
0.0025757
0.014694
0.022986
-0.035056
-0.050363
-0.064714
-0.044304
0.0089539
-0.013689
-0.002208
0.027451
0.055834
0.08613
0.044034
-0.010819
-0.0044404
0.087087
0.050412
0.008316
0.017246
-0.06025
-0.060887
-0.022299
-0.020386
-0.043985
0.019478
0.019478
-0.014964
0.062212
0.070822
0.052963
0.040845
-0.0044404
0.059979
0.050412
0.012781
-0.00061343
-0.058974
-0.063439
0.014375
0.013419
-0.076833
-0.015283
0.01023
-0.00093234
0.063806
0.054239
0.010548
-0.0018891
0.0070404
-0.02517
-0.0038025
0.0051269
-0.058655
-0.082892
-0.080341
-0.053552
-0.01624
-0.06312
-0.038564
-0.005716
0.028726
0.081028
0.046585
-0.024851
-0.029953
0.066358
0.031278
0.0067215
0.0051269
-0.073006
-0.06312
-0.034418
-0.036969
-0.051001
0.0054459
0.0064026
-0.013689
0.047861
0.057428
0.05105
0.037018
-0.012413
0.060617
0.056153
0.017883
-0.0034836
-0.055147
-0.053871
0.021391
0.02171
-0.063758
0.0038513
0.028726
2.4388e-05
0.084217
0.067314
0.031915
0.022348
0.034148
0.010548
0.014694
0.01884
-0.035375
-0.051639
-0.070774
-0.048131
-0.0041214
-0.043028
-0.034418
-0.011137
0.018521
0.066358
0.027132
-0.039202
-0.038883
0.041483
0.017883
-0.015283
-0.0095429
-0.078427
-0.075557
-0.048769
-0.052915
-0.046536
0.023624
0.0099106
-0.023575
0.059342
0.075606
0.054877
0.03638
-0.0044404
0.067633
0.06285
0.02458
0.008316
-0.067585
-0.063758
0.010548
0.0076782
-0.073325
-0.012094
0.026494
-0.0073105
0.061255
0.046266
0.013419
0.011505
0.022986
-0.0066727
-0.0085862
-0.0066727
-0.050682
-0.073006
-0.084487
-0.058655
-0.019429
-0.076514
-0.051001
-0.015283
0.0131
0.065401
0.037656
-0.026126
-0.021343
0.070822
0.031278
-0.014964
0.0057648
-0.051958
-0.052915
-0.035056
-0.033461
-0.030591
0.024262
0.0099106
-0.014964
0.060298
0.058066
0.030959
0.0035324
-0.029315
0.043077
0.027132
-0.0047593
-0.025488
-0.094373
-0.082573
-0.0095429
-0.011137
-0.086719
-0.022299
0.016927
-0.014964
0.074968
0.061574
0.028407
0.027132
0.035423
0.0089539
0.026494
0.026494
-0.028359
-0.055147
-0.059931
-0.033461
-0.0050782
-0.051639
-0.030591
0.0016189
0.012462
0.058385
0.027451
-0.035375
-0.036969
0.052963
0.01023
-0.020067
-0.0015702
-0.083211
-0.082254
-0.053234
-0.047493
-0.046855
0.008316
-0.0069916
-0.034099
0.040526
0.068271
0.043396
0.013419
-0.017835
0.055196
0.05105
0.0079971
-0.0018891
-0.064714
-0.051958
0.01597
-0.0018891
-0.065671
-0.0012513
0.025856
-0.0044404
0.08326
0.058385
0.027132
0.025218
0.024899
-0.0015702
0.0131
0.019159
-0.033142
-0.062482
-0.072687
-0.038883
0.0054459
-0.059293
-0.027721
0.01597
0.02777
0.081346
0.047542
-0.01624
-0.012732
0.061893
0.020116
0.0016189
0.021072
-0.060887
-0.067266
-0.049407
-0.044304
-0.043666
0.00098112
2.4388e-05
-0.026126
0.042439
0.061893
0.038612
0.016289
-0.022937
0.061574
0.052645
0.0035324
-0.0050782
-0.064714
-0.058336
0.01597
0.01597
-0.066628
0.004808
0.031596
-0.0079484
0.086449
0.068271
0.022029
0.023305
0.016608
0.0025757
0.012462
0.010548
-0.040158
-0.065671
-0.06886
-0.023256
0.0028946
-0.059293
-0.020705
0.012462
0.029364
0.082622
0.049774
-0.013689
-0.0066727
0.068909
0.029683
0.0013
0.012781
-0.062163
-0.062801
-0.058017
-0.06025
-0.051639
-0.0076295
-0.019748
-0.032823
0.044353
0.052963
0.02777
-0.002208
-0.037288
0.055515
0.035423
-0.00061343
-0.010181
-0.077152
-0.065352
-0.010819
-0.019429
-0.086719
0.0064026
0.022348
-0.012413
0.072736
0.054877
0.019159
0.027451
0.013738
0.0016189
0.0057648
0.0054459
-0.042072
-0.068541
-0.072368
-0.035056
-0.010819
-0.087676
-0.058336
-0.005716
0.017246
0.064444
0.032872
-0.022618
-0.026764
0.046585
2.4388e-05
-0.0063538
0.016927
-0.058655
-0.060887
-0.05132
-0.036969
-0.018472
0.01884
0.010548
-0.0073105
0.054239
0.074968
0.032872
0.0089539
-0.0098618
0.063169
0.03638
-0.0047593
-0.0069916
-0.078109
-0.083849
-0.0044404
-0.0098618
-0.084487
-0.0069916
0.0076782
-0.03091
0.062212
0.052963
0.02777
0.017564
0.0076782
-0.00029452
0.017883
0.016927
-0.032504
-0.066628
-0.072049
-0.02517
0.0070404
-0.060887
-0.018153
0.014056
0.026813
0.098249
0.061893
-0.0025269
0.0051269
0.083898
0.022667
0.0054459
0.037975
-0.029315
-0.045261
-0.040477
-0.038564
-0.026445
0.012143
0.018202
-0.0041214
0.054239
0.066995
0.030321
0.0051269
-0.020067
0.059979
0.041483
-0.0018891
-0.012094
-0.089908
-0.080979
-0.002208
-0.0079484
-0.0864
-0.0095429
0.0089539
-0.024532
0.063169
0.050093
0.034148
0.025218
0.010867
0.0057648
0.020435
0.022986
-0.029315
-0.06599
-0.071411
-0.022618
0.0016189
-0.074282
-0.026126
0.018521
0.022029
0.083579
0.048818
-0.0076295
-0.0076295
0.061255
0.017564
0.008635
0.028407
-0.053552
-0.064077
-0.053234
-0.047174
-0.028678
0.0003433
-0.0018891
-0.017197
0.041164
0.063169
0.035742
-0.011775
-0.030272
0.06285
0.034786
-0.0089051
-0.0034836
-0.086081
-0.088952
-0.015921
-0.00061343
-0.078109
-0.0034836
0.008316
-0.022937
0.059979
0.050093
0.032234
0.023305
0.0035324
0.008316
0.021391
0.023624
-0.018153
-0.06025
-0.068541
-0.017835
0.010867
-0.060569
-0.020386
0.023943
0.029045
0.096335
0.060617
0.0022568
0.0073593
0.076882
0.035423
0.022029
0.031915
-0.028996
-0.036969
-0.043985
-0.04558
-0.012094
0.020754
0.011824
-0.0015702
0.060298
0.081346
0.049455
0.0079971
-0.022299
0.074012
0.05105
0.0057648
0.0044891
-0.075557
-0.075557
-0.00093234
-0.00061343
-0.073006
0.0022568
0.011186
-0.014008
0.052963
0.047223
0.035104
0.022348
0.004808
0.016289
0.025537
0.015651
-0.040158
-0.079065
-0.070455
-0.021024
-0.0047593
-0.086719
-0.030272
0.0035324
0.0013
0.061893
0.035423
-0.024532
-0.023894
0.04531
-0.0015702
-0.010819
0.012781
-0.057379
-0.064395
-0.070136
-0.04845
-0.015283
0.0032135
-0.002208
-0.020386
0.037018
0.082303
0.055515
0.0067215
-0.020067
0.067952
0.044353
-0.00061343
0.00066221
-0.074601
-0.068541
-0.0038025
-0.010181
-0.058336
0.022667
0.010867
-0.014964
0.068271
0.04818
0.041483
0.041483
0.0073593
0.022986
0.028726
0.020116
-0.035056
-0.067266
-0.07173
-0.010181
-0.0038025
-0.082892
-0.032504
0.0070404
0.0060837
0.074012
0.044034
-0.012094
-0.005716
0.059023
0.012462
0.0022568
0.019797
-0.053234
-0.053871
-0.054828
-0.052596
-0.022937
-0.0098618
-0.0085862
-0.022618
0.042758
0.065082
0.037337
-0.014008
-0.033461
0.060298
0.033829
-0.017835
-0.015283
-0.081298
-0.070774
-0.018153
-0.012413
-0.070774
0.011505
0.013419
-0.019429
0.063806
0.062212
0.040526
0.036061
0.012143
0.028088
0.037018
0.026494
-0.01624
-0.059293
-0.065352
-0.0050782
0.0057648
-0.073006
-0.014327
0.018202
0.01023
0.075606
0.052963
0.0022568
-0.0095429
0.040845
-0.0012513
-0.0069916
0.0089539
-0.069179
-0.067585
-0.067903
-0.061525
-0.041115
-0.023894
-0.017197
-0.023575
0.034786
0.063169
0.03064
-0.016878
-0.038245
0.060617
0.035742
0.0025757
0.0070404
-0.073325
-0.062801
-0.0073105
-0.0069916
-0.057698
0.016608
0.030321
-0.0095429
0.079433
0.071779
0.054558
0.047223
0.010548
0.02777
0.041164
0.032553
-0.012413
-0.070774
-0.073963
-0.014964
-0.01337
-0.0864
-0.028359
0.011824
-0.002208
0.059661
0.032553
-0.0066727
-0.014645
0.038294
-0.005716
-0.0066727
0.013738
-0.050363
-0.061525
-0.064714
-0.050363
-0.017835
-0.028359
-0.0098618
-0.0073105
0.042439
0.076244
0.042439
-0.012732
-0.023575
0.073055
0.047542
0.011186
0.015013
-0.065671
-0.055147
2.4388e-05
-0.00061343
-0.048769
0.033829
0.029683
-0.012413
0.079114
0.063487
0.04531
0.043077
0.0013
0.0067215
-0.0076295
-0.020067
-0.056423
-0.09533
-0.10585
-0.043028
-0.032186
-0.11478
-0.078109
-0.022618
-0.027721
0.048499
0.025218
-0.021024
-0.016878
0.031278
-0.015283
-0.0069916
0.028407
-0.037288
-0.048131
-0.056104
-0.057698
-0.023256
-0.026445
-0.013689
-0.0085862
0.045629
0.076244
0.038931
-0.011456
-0.017197
0.074012
0.04818
0.0073593
0.013419
-0.07779
-0.072368
-0.011137
-0.0073105
-0.052915
0.01884
0.028726
-0.017197
0.053282
0.052645
0.053601
0.037975
0.0003433
0.036699
0.033829
0.015013
-0.024851
-0.069179
-0.067585
0.0041702
0.011186
-0.071093
-0.013689
0.016289
0.004808
0.081665
0.059023
0.00098112
-0.0028458
0.044034
0.0073593
0.0099106
0.030959
-0.039839
-0.061844
-0.07173
-0.058974
-0.020067
-0.028996
-0.017516
-0.015921
0.018521
0.054558
0.017246
-0.040158
-0.046855
0.04818
0.021072
-0.0095429
-0.0085862
-0.080341
-0.077471
-0.029953
-0.021343
-0.058017
0.020754
0.024262
-0.0060349
0.069547
0.062531
0.056471
0.033829
0.0073593
0.041164
0.03638
0.012462
-0.027721
-0.08066
-0.078427
-0.0015702
0.0092728
-0.084487
-0.029315
-0.0012513
-0.0082673
0.069228
0.044353
-0.002208
-0.0034836
0.041164
-0.0073105
-0.005716
0.021391
-0.04845
-0.051639
-0.064395
-0.050044
-0.015921
-0.023575
-0.0095429
2.4388e-05
0.04818
0.090914
0.052963
-0.0053971
-0.0066727
0.089319
0.051688
0.011824
0.021391
-0.063758
-0.052277
-0.0073105
-0.011456
-0.051958
0.025856
0.023624
-0.026445
0.05392
0.06572
0.043715
0.018521
-0.0034836
0.044672
0.025856
-0.0050782
-0.038245
-0.082892
-0.077471
0.0057648
0.0054459
-0.083849
-0.031229
0.0016189
-0.010819
0.062531
0.042439
-0.00093234
-0.0015702
0.035742
-0.0089051
-0.009224
0.0076782
-0.055466
-0.070455
-0.078746
-0.050363
-0.023256
-0.039839
-0.026764
-0.019748
0.019159
0.061893
0.026175
-0.041753
-0.050363
0.052963
0.021072
-0.021661
-0.0098618
-0.096605
-0.078109
-0.03952
-0.036331
-0.06599
0.02171
0.0089539
-0.02198
0.061255
0.061255
0.044991
0.047223
0.0092728
0.063806
0.050412
0.023943
-0.0098618
-0.070455
-0.066947
0.01884
0.026175
-0.072368
-0.011775
0.020116
-0.0098618
0.065082
0.061255
0.0131
0.0019378
0.041802
-0.0031647
0.0003433
0.022029
-0.040796
-0.047812
-0.071411
-0.043985
-0.0015702
-0.034418
-0.021343
-0.0073105
0.032234
0.084536
0.04818
-0.026764
-0.047174
0.044991
0.017883
-0.01337
0.0054459
-0.082573
-0.081617
-0.043985
-0.047493
-0.073006
0.0054459
0.0041702
-0.03091
0.057747
0.062212
0.038931
0.019478
-0.0098618
0.05105
0.037018
0.0095917
-0.013689
-0.070136
-0.074919
0.0038513
0.011824
-0.082573
-0.019748
0.015651
-0.00093234
0.074012
0.046266
0.0079971
0.0060837
0.03638
-0.0066727
-0.00029452
0.017246
-0.042391
-0.060887
-0.08066
-0.05419
-0.01337
-0.052277
-0.031229
-0.013689
0.028726
0.071141
0.012781
-0.036969
-0.039839
0.058385
0.025856
-0.013689
-0.0018891
-0.075557
-0.065352
-0.024532
-0.030272
-0.065671
0.021391
0.01023
-0.021024
0.051688
0.05679
0.044672
0.018202
-0.018153
0.036699
0.019478
-0.01624
-0.040477
-0.098838
-0.096286
-0.009224
-0.0063538
-0.091503
-0.021661
0.012462
-0.0063538
0.078476
0.06572
0.017883
0.019797
0.044991
0.01597
0.012781
0.041483
-0.012094
-0.038245
-0.052915
-0.031548
-0.0050782
-0.064077
-0.010819
2.4388e-05
0.022348
0.061574
0.030002
-0.03091
-0.038245
0.055834
0.0099106
-0.012732
-0.002208
-0.079384
-0.070774
-0.046855
-0.059293
-0.068222
0.01023
0.0070404
-0.025807
0.041483
0.046585
0.011824
0.015651
-0.021661
0.041483
0.02171
-0.0105
-0.036969
-0.10298
-0.09246
-0.010181
-0.022299
-0.11606
-0.047174
-0.0089051
-0.034737
0.03925
0.027451
-0.0044404
-0.015283
0.011505
-0.012413
-0.015283
0.011824
-0.052277
-0.08353
-0.069179
-0.039839
0.00098112
-0.043347
-0.011137
0.0041702
0.044353
0.092508
0.051369
-0.010181
-0.009224
0.079114
0.042121
0.018202
0.034148
-0.063758
-0.054509
-0.027083
-0.026445
-0.04271
0.014375
-0.0105
-0.032186
0.034148
0.03925
0.034786
-0.0069916
-0.030272
0.037975
0.0079971
-0.024532
-0.038245
-0.088633
-0.081935
-0.0034836
-0.009224
-0.10043
-0.015283
0.021072
-0.021343
0.052645
0.047542
0.025218
0.013419
0.01023
2.4388e-05
0.014694
0.026494
-0.057379
-0.0864
-0.087357
-0.048769
0.0003433
-0.049088
-0.015921
0.0025757
0.017246
0.071141
0.040207
-0.023894
-0.023894
0.070822
0.025537
0.013419
0.01884
-0.056104
-0.05132
-0.025807
-0.036331
-0.046218
0.029683
-0.0034836
-0.05132
0.050731
0.050412
0.013419
-0.033142
-0.053552
-0.002208
-0.014327
-0.042072
-0.058017
-0.11702
-0.12212
-0.032823
-0.024213
-0.11191
-0.032823
-0.0031647
-0.031229
0.07433
0.049455
0.020754
0.026175
0.04531
0.023943
0.021391
0.025856
-0.040158
-0.058974
-0.061844
-0.023894
0.0038513
-0.051958
-0.035375
0.00066221
0.019159
0.075287
0.058704
-0.017197
-0.031229
0.047223
0.0057648
-0.012094
0.0003433
-0.070455
-0.057061
-0.034099
-0.039202
-0.052596
0.0025757
0.0057648
-0.012413
0.05679
0.068909
0.055196
0.0079971
-0.028996
0.048818
0.021391
-0.0076295
-0.03378
-0.10394
-0.095968
-0.014008
-0.026126
-0.11542
-0.021024
-0.011775
-0.044623
0.062531
0.040207
0.0038513
0.038294
0.041802
0.020754
0.032872
0.038931
-0.031867
-0.054509
-0.074919
-0.02198
0.0073593
-0.07173
-0.03665
-0.0028458
0.018202
0.055515
0.034148
-0.022937
-0.03091
0.069228
0.039569
0.024899
0.030002
-0.029953
-0.027721
-0.0044404
-0.024213
-0.0076295
0.03925
0.022667
0.0044891
0.098568
0.059979
0.062212
0.020116
-0.0089051
0.082941
0.049137
0.0064026
-0.0069916
-0.091503
-0.092778
0.020435
0.023943
-0.084487
-0.0041214
0.018202
-0.022618
0.042758
0.035423
0.0076782
0.011505
0.019797
-0.037607
-0.0066727
-0.00061343
-0.045261
-0.072049
-0.083849
-0.027721
0.013738
-0.051001
-0.027402
0.0099106
0.027451
0.076563
0.020116
-0.064077
-0.066309
0.024899
-0.039202
-0.056104
-0.032504
-0.10936
-0.12052
-0.12435
-0.098519
-0.078427
0.0095917
0.0054459
-0.039839
0.051688
0.096335
0.079114
0.063806
0.043396
0.13269
0.089957
0.052963
0.0028946
-0.070136
-0.08066
-0.0076295
-0.032823
-0.12786
-0.037288
-0.049088
-0.084487
0.01597
0.016289
-0.02804
-0.048769
-0.039839
-0.043028
-0.015921
0.024262
-0.009224
-0.026445
-0.0028458
0.057747
0.024899
-0.059612
-0.0089051
0.028407
0.071779
0.14927
0.072736
-0.0076295
-0.016878
0.09793
0.043396
0.039569
0.053601
-0.061206
-0.072368
-0.032186
-0.0105
0.025218
0.074012
0.067633
0.069866
0.10718
0.1244
0.08039
0.059342
0.070822
0.16012
0.1008
0.014375
-0.009224
-0.075238
-0.051639
0.031596
0.033829
-0.05419
-0.0073105
-0.082892
-0.055785
0.020435
0.022986
0.008635
-0.011456
-0.024851
-0.049726
-0.059612
-0.043028
-0.097562
-0.15592
-0.16103
-0.11446
-0.083211
-0.14157
-0.10649
-0.064395
-0.058336
0.0079971
-0.03091
-0.069498
-0.034418
0.035104
-0.0085862
-0.010819
0.028726
-0.043028
-0.024851
-0.0044404
-0.0041214
0.015013
0.060617
0.057747
0.03351
0.11228
0.13205
0.070822
0.0003433
-0.020705
0.055515
0.044034
0.010867
-0.015921
-0.12116
-0.12913
-0.017197
0.0019378
-0.12339
-0.057698
-0.04845
-0.11574
-0.033461
-0.052915
-0.066628
-0.06312
-0.04845
-0.061525
-0.050044
-0.056742
-0.1218
-0.10841
-0.099794
-0.067266
-0.0089051
-0.092141
-0.036012
0.021391
0.057109
0.11643
0.11738
0.09793
0.076244
0.10271
0.091233
0.081028
0.1177
0.026175
0.0073593
0.027132
0.05679
0.069547
0.072736
0.049137
0.048499
0.11419
0.11292
0.073693
0.040526
0.01023
0.073693
0.058704
0.0076782
-0.032186
-0.049088
-0.061206
-0.002208
0.016289
-0.049407
0.0089539
0.0076782
-0.012732
0.082303
0.068909
0.032553
0.02458
0.022986
0.0089539
0.0013
-0.002208
-0.058655
-0.093416
-0.10203
-0.038245
-0.043985
-0.10681
-0.075876
-0.027721
-0.01624
0.020435
-0.0044404
-0.044304
-0.022937
0.060298
0.023305
0.0057648
0.018202
-0.063439
-0.057698
-0.049407
-0.0105
0.012143
0.004808
-0.023894
-0.051958
0.069228
0.094103
0.040845
-0.019748
-0.043347
-0.0085862
-0.0050782
-0.0025269
-0.0031647
-0.088633
-0.069817
-0.0044404
-0.035694
-0.063439
0.044672
0.038931
-0.034737
0.086768
0.099843
0.043715
-0.02517
-0.071411
0.0032135
0.020435
0.0070404
-0.053552
-0.10298
-0.13169
-0.085443
-0.0073105
-0.032823
0.0054459
0.014694
0.023943
0.11898
0.13811
0.092508
0.08326
0.14927
0.075925
0.050731
0.076244
-0.0050782
-0.002208
-0.024851
0.0051269
0.013419
-0.0079484
-0.012732
-0.034418
0.035742
0.039569
-0.0063538
-0.051639
-0.018153
0.028088
0.004808
0.023624
0.026813
-0.057379
-0.078427
-0.0044404
-0.023894
-0.066947
0.026813
0.062212
0.036699
0.11675
0.10367
0.094741
0.042439
0.016927
0.058066
0.078157
0.065401
-0.018153
-0.046536
-0.022937
0.03638
0.035423
-0.029634
0.031596
0.069547
0.036699
0.078157
0.047861
-0.020386
-0.045899
-0.014008
-0.062801
-0.098838
-0.10585
-0.16485
-0.22034
-0.16166
-0.15624
-0.097562
-0.14699
-0.18335
-0.12563
-0.058336
0.042121
0.0099106
-0.0050782
-0.010819
0.13971
0.13237
0.10048
0.044672
0.017246
0.054877
0.10495
0.09793
0.029045
0.11324
0.13524
0.089638
0.19584
0.17096
0.10845
0.083579
0.1193
0.10048
0.11675
0.14162
0.044034
-0.040477
-0.064077
-0.0044404
-0.019748
-0.13264
-0.036969
-0.032186
-0.013051
0.026813
-0.0053971
-0.099794
-0.13679
-0.068222
-0.10585
-0.10968
-0.06599
-0.12116
-0.14954
-0.13041
-0.095011
-0.065352
-0.087676
-0.16836
-0.11415
0.00098112
0.040207
0.0092728
-0.059293
-0.088952
0.063806
0.028726
0.051369
0.086449
-0.025807
0.0025757
0.03064
0.086449
0.084217
0.17893
0.15183
0.1059
0.1885
0.15501
0.14417
0.074649
0.0016189
0.008316
0.015013
0.045629
-0.013689
-0.090865
-0.11383
-0.041115
0.0092728
-0.059612
-0.024851
-0.0060349
0.021072
0.11834
0.085811
0.020435
0.067633
0.10048
0.059979
0.074968
0.090914
-0.0060349
-0.015602
0.0070404
0.02171
0.022348
0.012781
0.07433
0.055834
0.15597
0.20827
0.11132
0.040207
0.03351
0.15087
0.11005
0.072417
0.048818
-0.044304
-0.083849
-0.081935
-0.060569
-0.1521
-0.075238
-0.088314
-0.1403
-0.014964
-0.055466
-0.058336
-0.019429
-0.028678
-0.049407
-0.044623
-0.083849
-0.1033
-0.17346
-0.15401
0.016608
0.044034
-0.084168
-0.039839
-0.028996
-0.031867
0.069228
0.05392
0.020435
0.049137
0.081665
0.04531
0.070822
0.10239
0.034148
0.057747
0.090276
0.11802
0.094741
0.07752
0.048499
-0.033142
0.057109
0.11005
0.06859
0.010867
-0.048131
0.008316
0.0016189
-0.022618
-0.053552
-0.15146
-0.13615
-0.10394
-0.066309
-0.1269
0.028407
0.059342
-0.0098618
0.059979
0.06572
0.072736
0.058066
0.056153
0.055196
0.064763
0.094422
-0.0015702
-0.024851
-0.0053971
0.067952
0.011824
-0.046855
-0.032504
0.0070404
-0.047812
0.026813
-0.0085862
-0.093735
-0.067585
0.047542
0.0051269
-0.034737
-0.012413
-0.080341
-0.095968
-0.078746
0.00098112
0.049774
0.05105
0.085173
0.055834
0.11834
0.12918
0.066995
0.0019378
-0.040477
0.11515
0.056153
-0.011137
-0.0053971
-0.080341
-0.083849
-0.01911
-0.049088
-0.10841
0.0025757
-0.009224
-0.014008
0.066358
0.062531
0.047861
0.048818
-0.0012513
-0.0038025
0.03064
0.045629
-0.030591
-0.04845
-0.021024
0.059023
0.059661
-0.052596
0.023624
0.11802
0.11675
0.18978
0.10271
0.049137
0.10909
0.14385
0.13429
0.1177
0.09506
-0.0079484
-0.019748
-0.014964
0.0095917
-0.022618
-0.023256
0.029045
0.028088
0.087087
0.10367
0.066995
-0.0038025
0.041164
0.11228
-0.0073105
-0.043028
0.035742
-0.056423
-0.070774
-0.02804
0.0044891
-0.066628
0.011824
0.041164
-0.026445
0.026175
-0.014645
-0.026126
-0.0105
-0.018153
0.02171
-0.024851
-0.030591
-0.054509
-0.12818
-0.1167
-0.057698
-0.0069916
-0.082254
-0.048131
-0.090865
-0.058655
0.064125
0.039888
-0.036012
-0.043347
0.058066
0.012143
0.0064026
0.060298
2.4388e-05
-0.023894
0.0013
0.0016189
0.029364
0.096973
0.085811
0.080071
0.18372
0.21369
0.19584
0.058385
0.069547
0.17957
0.097292
0.075925
0.08326
-0.011137
0.008635
0.046904
0.011824
-0.041434
0.032872
0.053282
-0.0047593
0.030002
0.049455
0.059661
0.011824
-0.014964
0.028407
0.025218
-0.058655
-0.12882
-0.10107
-0.11032
-0.07779
-0.084806
-0.16868
-0.047812
-0.032823
-0.053234
0.037018
0.027451
0.011505
-0.0095429
0.064125
0.038294
0.045947
0.078157
-0.02804
0.030959
0.045629
0.052963
0.072736
0.01884
0.0028946
0.061255
0.12695
0.13716
0.06285
0.017564
0.031915
0.060936
0.040207
0.012781
0.015651
-0.052596
-0.031548
0.032553
0.046904
-0.017516
0.066358
-0.0095429
-0.14317
-0.027402
0.044034
0.038612
-0.038245
-0.056104
0.015013
0.027132
-0.046855
-0.077152
-0.14189
-0.10522
-0.011456
0.032234
-0.026126
0.025537
0.056471
0.059661
0.17192
0.17
0.098886
0.11675
0.16681
0.069547
0.047542
0.054558
0.0051269
0.0051269
-0.019748
-0.017197
0.030002
0.021391
0.13684
0.053282
-0.024532
0.055196
0.026175
-0.043028
-0.038883
0.093465
0.02777
-0.043666
0.041164
-0.075876
-0.060887
-0.027721
-0.034737
-0.091503
0.0099106
-0.023894
-0.062482
0.079433
0.069228
0.046585
-0.032186
-0.044942
0.034148
-0.017516
-0.017516
-0.037288
-0.095968
-0.099157
-0.0089051
0.022986
-0.035056
0.029364
0.092508
0.11005
0.18053
0.17798
0.15725
0.14545
0.16426
0.13492
0.17734
0.14258
0.051369
0.15087
0.054558
0.042439
0.098249
0.029683
0.030321
0.056471
0.088362
0.079433
0.078476
0.0028946
-0.005716
0.11164
0.022029
0.00098112
0.0032135
-0.09246
-0.078427
-0.037607
-0.050363
-0.11287
2.4388e-05
-0.03665
-0.089908
-0.0018891
0.0095917
-0.029634
-0.080979
-0.069498
0.017883
-0.019748
-0.048131
-0.094054
-0.10713
-0.11606
-0.0038025
0.01597
-0.049407
-0.017516
0.035742
0.0038513
0.091552
0.11515
0.077838
0.026175
0.13397
0.097611
0.055834
-0.020386
-0.14891
-0.13392
-0.055466
0.0032135
-0.047812
-0.093097
-0.11733
-0.056742
-0.042391
0.019478
-0.0079484
-0.086081
-0.094054
0.087406
0.056471
0.032553
0.060298
-0.019748
0.01023
0.11898
0.099524
0.036699
0.14991
0.14545
0.059661
0.17383
0.15151
0.14385
0.077201
0.037018
0.10239
0.10495
0.030959
-0.022937
-0.058017
-0.062801
0.048499
0.074649
-0.017516
0.11292
0.13301
0.11132
0.21338
0.13843
0.041164
0.038294
0.11866
0.057109
0.054239
0.026494
-0.021024
-0.052596
-0.066947
-0.11702
-0.12052
-0.14349
-0.1285
-0.11415
-0.057698
-0.0044404
-0.055147
-0.12882
-0.10968
-0.0034836
-0.068541
-0.11159
-0.055785
-0.11957
-0.10968
-0.089589
-0.073006
-0.12563
0.053601
-0.010181
-0.061844
0.05105
0.023305
0.019478
0.063806
0.043077
0.095378
0.053601
0.059023
0.022986
-0.13902
-0.11733
0.0057648
-0.029953
-0.082573
-0.018472
-0.049726
-0.038245
0.06859
0.033829
-0.024213
-0.032186
0.014375
0.0003433
0.028088
0.023624
-0.011775
-0.0082673
-0.020067
-0.0041214
0.047223
0.028407
0.058066
0.049455
0.13397
0.21019
0.19839
0.10239
0.095697
0.18914
0.1362
0.15087
0.14353
0.049137
-0.0034836
0.024899
0.03925
0.05392
0.12057
0.15119
0.040207
0.048818
0.0099106
0.011186
-0.00029452
-0.030272
-0.048131
0.0041702
-0.0069916
-0.017835
-0.13456
-0.13105
-0.087038
-0.11319
-0.19419
-0.088633
-0.065033
-0.061844
-0.00061343
0.0003433
0.0035324
0.022029
0.06285
0.015332
0.055515
-0.015602
-0.00093234
-0.0105
-0.031867
-0.019748
0.022029
-0.065033
-0.0015702
0.079433
0.070185
0.052007
0.01884
-0.076195
-0.09246
0.052007
0.0016189
-0.028359
-0.023256
-0.084487
-0.065352
-0.051001
-0.036331
-0.055147
-0.019429
-0.031229
-0.09533
0.0038513
0.05105
0.094103
0.03925
-0.052596
0.0079971
0.072736
0.02458
-0.046855
-0.082892
-0.031229
0.059979
0.12408
0.075606
0.17064
0.17734
0.17128
0.21369
0.10654
0.044034
0.054558
0.13046
0.047542
0.11356
0.098249
-0.0073105
-0.067903
-0.11702
-0.080341
-0.091822
-0.15369
-0.11893
-0.075557
0.032234
0.10271
0.012143
-0.11925
-0.14253
-0.009224
-0.087038
-0.15369
-0.023256
-0.10107
-0.018153
-0.061844
-0.14221
-0.18941
-0.08066
-0.06599
-0.056742
0.040207
0.031596
0.03925
0.093465
0.13173
0.23474
0.19233
0.1311
0.096335
-0.021024
-0.11064
-0.030591
0.12886
0.073374
0.12727
0.091233
-0.031548
0.0095917
0.0025757
-0.046536
-0.061525
-0.028359
-0.04845
-0.031867
0.027451
0.03925
0.059342
0.013419
0.02777
0.059342
-0.0076295
-0.10107
-0.035056
0.039569
0.1346
0.1008
-0.022299
-0.037926
0.057747
-0.055147
-0.12052
-0.10362
-0.1387
-0.12212
-0.09246
-0.026445
0.047542
0.1008
0.079752
0.016608
0.16235
0.11515
0.048499
0.043715
0.044034
0.17638
0.1228
0.021391
0.014056
-0.093735
-0.10809
-0.067585
-0.056742
-0.11351
-0.045261
-0.029634
-0.020386
0.037975
0.025218
-0.033142
-0.019748
0.025218
-0.040158
-0.062482
2.4388e-05
-0.02198
-0.015283
-0.077152
-0.072687
-0.028996
-0.079703
-0.0098618
0.046904
0.049455
0.090914
0.061574
0.030002
0.0057648
0.097611
0.022986
0.074649
0.11356
0.064444
0.023305
0.02777
0.022348
-0.056423
0.06859
0.027451
-0.02804
0.038294
0.030959
0.040526
0.050093
-0.024851
-0.037607
-0.075557
-0.04558
-0.023256
-0.099476
-0.083211
-0.014327
-0.052915
-0.11765
-0.041753
0.008635
-0.015921
0.054877
0.026813
0.057109
0.027132
0.047223
-0.039202
-0.019748
-0.011456
-0.06599
-0.06025
-0.074919
-0.025807
0.015332
-0.031548
-0.019748
0.066039
0.18117
0.17798
0.1818
0.12631
0.073055
0.12886
0.047542
0.034786
0.064763
-0.033142
0.0003433
0.048818
-0.014645
-0.059612
-0.021024
-0.072049
-0.12084
-0.041434
-0.020386
-0.016559
-0.02198
-0.0038025
0.096973
0.16235
0.19424
0.18244
0.049137
0.0092728
0.010867
0.043715
-0.013689
0.13269
0.16012
0.050731
0.14577
0.078157
-0.019429
-0.06025
-0.06886
-0.12818
-0.10617
-0.062482
-0.11606
-0.1403
-0.12882
-0.087676
-0.051639
-0.019748
0.048499
0.1464
0.12504
0.079433
-0.0041214
-0.041753
-0.073325
0.066358
0.043715
0.041483
0.087406
-0.062801
-0.12052
-0.12499
-0.13328
-0.14508
-0.061206
-0.045899
-0.067266
-0.00093234
-0.0085862
0.071779
0.066358
0.036699
0.12918
0.11419
0.017883
-0.042072
-0.061525
0.035742
0.075606
0.049137
-0.043347
0.091233
0.078795
-0.0069916
0.069547
0.05392
0.004808
0.008316
0.050731
0.059023
0.051688
0.0079971
-0.055147
-0.03665
-0.037288
-0.026764
0.046266
0.0057648
0.0051269
-0.012413
0.038294
0.10303
0.052326
0.036699
0.03638
0.075606
-0.0034836
0.029364
0.014694
-0.059293
-0.041434
-0.036969
-0.064714
-0.035694
0.03925
0.020754
-0.053552
0.061574
0.14098
0.09506
-0.0028458
-0.03665
0.014694
-0.024213
-0.086081
-0.093097
-0.067903
-0.041434
-0.021024
-0.012732
-0.13711
-0.083849
-0.045899
-0.055785
0.047861
0.067952
0.1008
0.056471
0.081028
0.045629
0.018521
0.1059
0.049137
0.067952
0.11132
0.09793
0.064125
0.025537
0.028407
0.08613
0.11037
0.21943
0.12025
0.053282
0.054877
0.11164
0.038931
0.014694
0.081984
-0.012732
-0.014964
0.020435
0.016608
-0.0050782
0.038294
0.025856
-0.039202
0.013738
0.08039
0.10144
0.030002
-0.0095429
0.054877
-0.020705
-0.067266
-0.043028
-0.12435
-0.13806
0.0025757
0.026813
-0.07779
0.0060837
-0.01337
-0.029953
0.16044
0.13779
0.099843
0.054877
0.10909
0.071779
0.065082
0.044672
0.024899
0.044991
0.082941
0.059661
0.062212
-0.0066727
0.023943
-0.005716
0.020754
0.089319
0.016289
-0.015283
-0.010181
0.081665
0.008635
-0.046218
-0.011137
-0.12212
-0.15082
-0.070774
-0.044304
-0.068222
-0.019748
-0.02198
-0.03952
0.058066
0.096654
0.087087
0.057428
0.033829
0.10303
0.046585
-0.038564
-0.012094
0.04531
0.055834
0.085811
0.033829
-0.040796
0.031278
0.0070404
-0.011775
0.073693
0.062212
0.069228
0.06572
0.027132
0.037975
0.037018
0.050412
-0.014008
-0.052915
-0.059931
-0.051001
0.018202
-0.016559
-0.037926
0.017246
0.095697
0.12408
0.092827
0.028726
-0.012094
0.075925
0.019159
0.018521
0.059342
-0.027083
-0.016878
0.0095917
0.043077
0.027132
0.057747
0.062531
0.011824
0.096335
0.08039
0.079114
0.072098
0.067952
0.13971
0.064125
0.018202
0.02171
-0.002208
0.034786
0.032553
0.075287
-0.021343
0.070822
0.033829
0.052645
0.14927
0.085811
0.038294
0.03351
0.031596
0.039888
0.0003433
0.0032135
-0.047812
-0.10649
-0.079384
-0.010819
-0.0050782
-0.087357
-0.017835
0.008635
0.018202
0.059979
0.055196
-0.013051
-0.0053971
0.10686
0.05392
0.028088
0.02171
-0.10011
-0.084168
-0.09533
-0.057698
-0.050682
-0.0034836
-0.017835
-0.079065
-0.035375
-0.017835
0.0032135
-0.026126
-0.015921
0.08326
0.042121
-0.00093234
-0.024213
-0.0864
-0.087676
0.0032135
0.015013
-0.097243
0.016927
0.076882
0.044353
0.097611
0.074649
0.043715
0.013738
0.034467
0.059342
0.037975
0.037337
0.012143
-0.020067
-0.0085862
0.0095917
0.069228
0.015013
0.037337
0.1193
0.27524
0.26472
0.17479
0.059023
0.071779
0.14545
0.064125
0.11324
0.11324
0.076244
0.067952
0.028088
0.010867
2.4388e-05
0.031278
-0.0079484
-0.043347
0.019478
-0.025807
0.056471
0.014375
-0.014964
0.024899
0.0131
-0.0063538
2.4388e-05
-0.088633
-0.12499
-0.018153
-0.050682
-0.11861
-0.021024
0.016608
0.030321
0.10526
0.06285
-0.010181
0.02171
-0.03952
-0.085443
-0.074919
0.0016189
0.00066221
-0.059612
-0.10266
-0.073963
-0.069179
-0.11574
-0.066628
-0.050044
-0.0073105
0.075287
0.056153
0.019478
0.068271
0.11037
0.02171
0.024262
0.057747
-0.036012
-0.069817
-0.029315
0.04818
0.04818
0.082622
0.049137
-0.0073105
0.07433
0.093784
0.07146
0.038612
0.021391
0.10399
0.091552
0.088681
0.056471
-0.028996
0.011186
0.089
0.076244
0.012143
0.085492
0.084217
0.099524
0.15533
0.11388
0.09793
0.11706
0.11993
0.097292
0.11228
0.10686
0.010548
-0.091184
-0.052915
0.031596
0.032553
-0.048131
-0.005716
0.044353
0.081346
0.18085
0.12408
0.058066
0.042758
0.066995
0.028726
-0.0105
0.053601
0.073374
0.09506
0.016608
-0.012413
-0.010819
-0.0073105
-0.026445
-0.0038025
0.061574
0.063487
0.025218
-0.012094
-0.040158
0.070822
0.028726
0.019478
0.03064
-0.071411
-0.064714
0.02777
0.053601
-0.03378
0.043077
-0.016559
-0.014008
0.1362
0.12153
0.07752
0.050412
0.050093
0.01597
0.025218
0.029045
-0.016878
-0.032504
-0.041115
0.0028946
0.026813
-0.027721
0.012462
0.098568
0.10909
0.17479
0.12599
0.054239
0.038294
0.070185
0.044991
0.12249
0.14577
0.032872
0.03064
-0.018791
-0.029953
0.022029
0.051369
0.066039
0.022029
0.06859
0.06572
0.062212
0.059342
0.049774
0.16777
0.21401
0.13684
0.10495
-0.023256
-0.056423
0.10654
0.057109
-0.0038025
0.092189
0.082303
0.042121
0.10941
0.058704
0.050731
0.019797
-0.014645
-0.045261
-0.039202
-0.026764
-0.082892
-0.0982
-0.10681
-0.045261
-0.01624
-0.087038
-0.041753
-0.0050782
0.013738
0.079433
0.061574
-0.0018891
0.0051269
0.064444
0.011186
-0.00093234
0.023943
-0.058974
-0.027083
-0.024851
0.0019378
0.0025757
0.015332
-0.016878
-0.0031647
0.07433
0.1075
0.085173
0.034148
0.023624
0.1429
0.1783
0.16044
0.11802
0.030002
0.059342
0.148
0.098568
-0.022937
0.087406
0.13843
0.11037
0.19647
0.13046
0.068909
0.056153
0.014694
-0.019748
-0.02517
-0.013689
-0.083849
-0.078746
-0.067903
0.032234
0.061893
0.004808
0.087087
0.10941
0.084217
0.099843
0.059979
0.068271
0.010867
0.13046
0.13078
0.073374
0.06859
-0.057379
-0.074601
-0.089908
-0.079065
-0.058017
-0.031548
-0.018791
-0.0095429
0.068271
0.057747
0.061574
0.01597
0.0131
0.063806
0.023624
0.026494
0.025218
-0.071093
-0.061525
0.014056
-0.026764
-0.13774
-0.011775
-0.013689
-0.080979
0.030002
0.023624
-0.0085862
0.0003433
0.012462
0.0099106
0.010548
0.017564
-0.025807
-0.038245
-0.046855
0.0003433
0.048818
-0.041115
-0.060887
0.04531
0.060936
0.13237
0.06285
-0.014327
0.0060837
0.065082
0.0044891
0.0051269
0.018202
-0.047493
0.021391
0.029364
-0.010181
0.03638
0.073693
0.054558
0.01597
0.059661
0.15151
0.16107
0.092508
0.011186
0.1177
0.05105
0.011186
-0.070455
-0.072049
-0.011137
0.11132
0.070185
-0.065352
0.067633
0.11643
0.049137
0.10431
0.06285
0.13779
0.17542
0.098568
0.10271
0.11005
0.0035324
0.043077
0.0019378
-0.056104
-0.044623
-0.06886
-0.1572
-0.087676
-0.046218
-0.06886
0.0028946
-0.017835
-0.10904
-0.12276
-0.039202
-0.085762
-0.080341
-0.038883
-0.10809
-0.091184
-0.088633
-0.079065
-0.065352
-0.012094
0.0099106
0.008635
0.096335
0.092189
0.052007
0.023943
0.011505
0.079114
0.070822
0.032553
0.026494
-0.024851
-0.044304
0.017246
-0.0076295
-0.10681
0.031915
0.04531
0.05392
0.14704
0.11483
0.10431
0.13811
0.10813
0.071779
0.096335
0.12918
0.047542
0.026813
-0.012413
0.045947
0.047223
-0.013689
-0.021661
-0.0076295
-0.018153
0.058066
0.013419
-0.065033
-0.020067
0.076244
0.017883
-0.01911
0.040845
-0.044942
-0.031229
-0.036969
-0.083849
-0.01911
0.065082
0.033191
0.012781
0.05392
0.034148
-0.0073105
-0.026764
-0.066947
0.018521
-0.0089051
-0.048131
-0.041434
-0.10649
-0.11542
-0.052596
-0.040158
-0.091503
0.017883
0.034148
0.0038513
0.10208
0.12886
0.11005
0.076244
0.073374
0.064125
0.1228
0.15087
0.046585
-0.00093234
0.016289
0.068909
0.091233
-0.038245
-0.031229
0.10208
0.078476
0.10176
0.053282
-0.0015702
-0.0025269
0.061893
0.0038513
0.023305
0.058066
-0.019429
0.016289
0.0028946
0.0032135
0.059023
0.044991
0.04531
0.041483
0.075606
0.073693
0.12057
0.047542
0.018521
0.097611
0.084854
-0.014645
-0.022618
-0.047812
-0.11478
-0.035694
-0.02198
-0.028996
0.01023
-0.027083
-0.11925
0.069866
0.063169
0.10303
0.046904
0.008316
0.028088
0.047223
0.013738
-0.066947
-0.15305
-0.093735
-0.0066727
-0.0012513
-0.0864
-0.030272
-0.0025269
-0.0069916
0.074649
0.0025757
-0.083211
-0.043347
0.050093
0.0067215
0.0028946
-0.020705
-0.023894
0.0057648
-0.0076295
-0.039202
-0.020386
0.019797
0.013419
0.01023
0.046266
0.088362
0.055515
0.0070404
-0.0031647
0.087406
0.040207
-0.012094
0.0032135
-0.065352
-0.054509
0.022029
0.021391
-0.033461
0.027132
0.078476
0.074012
0.15693
0.12408
0.10112
0.11738
0.083579
0.019478
0.040207
0.071779
0.069547
-0.002208
-0.011456
0.034786
0.03638
-0.014008
0.017246
0.062212
0.028407
0.11611
0.11643
0.030002
0.016289
0.098568
0.028726
-0.031548
0.028088
-0.04271
-0.066309
-0.10394
-0.084168
-0.035375
-0.044942
-0.050363
-0.085443
-0.053552
-0.010819
-0.035375
-0.049726
-0.10936
-0.009224
0.012462
-0.037607
-0.12818
-0.1639
-0.17027
-0.075238
-0.082254
-0.16007
-0.065352
-0.066628
-0.11415
-0.014327
-0.024532
-0.02517
-0.028996
-0.037607
0.01023
0.0054459
0.047861
-0.005716
-0.071411
-0.064077
-0.029634
0.040845
-0.0044404
-0.010819
0.059979
0.053282
0.12344
0.052326
-0.015283
0.0019378
0.060936
0.0013
0.015332
0.028407
-0.04271
-0.065671
-0.050682
-0.023575
0.023305
0.013738
0.044991
0.030002
0.098568
0.069228
0.073055
0.025856
-0.049088
0.030959
0.031278
0.0076782
0.072098
-0.045261
-0.10394
-0.030591
-0.043666
-0.072687
0.029045
-0.095968
-0.10745
0.047542
0.069228
0.044353
-0.044304
-0.015921
-0.012094
-0.01911
-0.035694
-0.090227
-0.093416
-0.090546
-0.053552
-0.046218
-0.14061
-0.061525
0.0022568
-0.0060349
0.043715
-0.019429
-0.087038
-0.063758
0.031915
-0.038883
-0.06312
-0.088314
-0.13934
-0.13902
-0.14667
-0.12435
-0.080341
-0.065671
-0.058336
-0.036331
0.041483
0.046904
0.016608
-0.029953
-0.03091
0.098568
0.083579
0.033829
0.0099106
-0.0050782
0.0041702
0.071141
0.07146
0.0041702
0.071141
0.076563
0.091552
0.21625
0.13843
0.089638
0.046904
0.061893
0.067952
0.081665
0.036699
-0.049088
-0.11446
-0.10235
-0.014645
-0.0095429
-0.16103
-0.10139
-0.055785
-0.11957
-0.041434
-0.024851
-0.050044
-0.037288
0.021072
-0.046536
-0.068541
-0.0095429
-0.094054
-0.071411
-0.097562
-0.0982
-0.06886
-0.063439
-0.023894
0.022667
0.056471
0.038612
-0.0041214
-0.042391
-0.094373
0.036699
0.01597
-0.0038025
0.0022568
-0.081298
-0.11829
-0.040796
0.0013
-0.040158
0.034148
0.10303
0.028088
0.11962
0.12855
0.042758
-0.005716
0.084536
0.10463
0.10845
0.061255
-0.010819
-0.04845
-0.066628
0.012143
0.037656
-0.087357
-0.058017
-0.035056
0.0076782
0.083898
0.023305
-0.051958
-0.041434
0.048499
0.019478
-0.002208
-0.017835
-0.085443
-0.035375
-0.057379
-0.061844
-0.03378
-0.031548
-0.017516
-0.014964
0.066039
0.089638
0.05105
-0.0012513
-0.02517
0.044034
0.045947
0.0089539
0.008316
-0.047174
-0.072368
-0.056104
0.011824
-0.06599
0.019478
0.017564
-0.022299
0.080071
0.055515
0.042758
0.057428
0.023624
0.033829
0.055196
0.033829
-0.037288
-0.080341
-0.065033
-0.029634
-0.056104
-0.10043
-0.0028458
0.02171
-0.022618
0.036061
0.015651
-0.059293
-0.026126
0.047542
0.017564
0.058385
0.079114
-0.015921
-0.06312
-0.063439
-0.023575
0.073055
0.072417
0.052645
0.020435
0.01884
0.052326
0.10909
0.0057648
-0.0066727
0.082303
0.032234
-0.0047593
0.016608
-0.082573
-0.040158
0.0057648
-0.030272
-0.081935
-0.0034836
-0.00029452
-0.03091
0.061893
0.079752
0.032872
0.013738
0.042439
0.090914
0.056471
0.017564
-0.091503
-0.080022
-0.023894
0.060298
0.032872
-0.10266
0.0070404
0.083898
0.040207
0.091233
0.004808
-0.057698
-0.021343
0.053282
-0.0079484
-0.021661
0.022029
-0.068222
-0.081935
-0.11064
-0.0982
-0.054828
-0.044304
-0.017197
-0.026126
0.028088
0.080071
-0.026445
-0.046536
0.008635
0.059661
0.022029
-0.011137
0.0073593
-0.076514
-0.081935
-0.017835
0.012143
0.028407
0.061255
0.0057648
0.004808
0.06572
0.042758
0.03925
0.042121
-0.075876
-0.084487
-0.037607
0.02777
0.0099106
-0.13838
-0.10681
-0.040796
-0.079065
-0.17378
-0.09533
-0.038883
-0.044942
0.034467
0.0025757
-0.15433
-0.099794
0.01597
-0.019748
2.4388e-05
-0.021024
-0.074919
-0.13041
-0.13966
-0.070455
-0.0060349
-0.023894
-0.019429
0.022029
0.095378
0.13333
0.097611
0.050093
0.041802
0.12599
0.069547
0.03925
0.029683
-0.032504
-0.0041214
0.039888
-0.0028458
-0.0864
0.08326
0.05392
-0.0031647
0.079752
0.078795
0.057109
0.055834
0.073374
0.10941
0.078476
0.045947
0.0035324
0.010548
-0.03091
0.03925
0.11069
-0.047812
0.031915
0.076882
0.029045
0.079752
-0.097881
-0.094692
-0.043985
0.016289
-0.066309
-0.099157
-0.11733
-0.15018
-0.13551
-0.13998
-0.14891
-0.11159
-0.081935
-0.12116
-0.1438
-0.021661
0.02777
0.008316
-0.057061
-0.090546
0.039569
-0.13169
-0.11765
-0.070136
-0.132
-0.14699
-0.1151
-0.15369
-0.20567
-0.076514
-0.038564
-0.10298
-0.0105
0.027132
0.029364
-0.03378
-0.014964
0.058066
0.062531
0.046266
-0.0041214
-0.047493
-0.032186
0.034148
0.042758
-0.033142
0.029364
0.080709
0.082941
0.14577
0.081984
0.044034
0.042439
0.087087
0.069547
0.076563
0.086449
0.024262
-0.0063538
-0.0082673
0.024899
0.065401
0.03638
0.047861
0.05679
0.089319
0.078157
0.084217
-0.010181
-0.043347
0.081346
0.070185
0.021072
0.016608
-0.071411
-0.081935
-0.060569
-0.017835
-0.03378
0.022029
0.013419
0.030959
0.074968
0.040526
0.082622
0.039888
-0.014964
-0.014964
0.0016189
-0.0041214
-0.0041214
-0.083849
-0.11542
-0.033461
-0.050044
-0.098519
-0.090546
-0.047812
-0.034418
0.037337
0.011824
-0.056742
-0.055785
-0.0044404
-0.093735
-0.077152
-0.012094
-0.084168
-0.1151
-0.132
-0.081298
-0.053552
-0.040158
-0.051958
-0.10458
-0.027402
0.051688
0.048818
0.028407
-0.11383
-0.06312
-0.031548
-0.062482
-0.041434
-0.098838
-0.11797
-0.12212
-0.12052
-0.11606
0.043715
-0.019748
-0.050682
0.031915
0.024262
0.042121
0.070185
0.059023
0.10877
0.1193
0.10463
0.068909
-0.0053971
-0.0018891
0.10813
0.098249
-0.0031647
0.07752
0.12312
0.10367
0.20508
0.16618
0.088362
-0.0038025
0.095697
0.066995
0.057747
0.075287
-0.041434
-0.034737
-0.0095429
-0.012413
-0.015921
-0.025488
-0.019429
-0.021661
0.032872
0.056153
-0.0079484
-0.076514
-0.076833
0.051688
0.038294
-0.016559
-0.11574
-0.20727
-0.1403
-0.065352
-0.098838
-0.14954
-0.049726
-0.055466
-0.082254
-0.017516
-0.021343
-0.009224
0.019478
-0.03952
-0.012732
-0.023575
-0.0050782
-0.038883
-0.10936
-0.11606
-0.033142
-0.022937
-0.12084
-0.041434
-0.0089051
-0.036969
0.031915
-0.022618
-0.060569
-0.015283
0.02171
-0.024213
-0.027721
0.049137
-0.038883
-0.034737
-0.049407
-0.028678
-0.0063538
-0.0073105
0.008635
0.016608
0.10303
0.12599
0.10016
0.029045
0.016289
0.12121
0.075925
0.04818
0.029683
-0.065671
-0.067266
0.039569
0.061574
-0.03091
0.07433
0.060936
0.010867
0.10909
0.10877
0.073055
0.02458
-0.010819
0.03351
0.065082
0.025218
-0.036012
-0.049407
-0.077471
-0.059612
-0.0089051
-0.10777
-0.071093
-0.023894
-0.03952
0.039888
0.020754
-0.027721
-0.073963
-0.023894
-0.029315
-0.014964
-0.0060349
-0.076833
-0.090546
-0.082892
-0.078427
-0.00029452
-0.025488
-0.052915
-0.0073105
0.044353
0.074968
0.046585
0.0035324
-0.013689
0.096335
0.052645
0.01023
0.016289
-0.064714
-0.095968
-0.016878
-0.0044404
-0.061844
0.011505
0.0041702
-0.037607
0.042439
0.035104
0.022986
0.00098112
-0.022937
0.01597
0.00066221
-0.02198
-0.044623
-0.10362
-0.092778
-0.012732
-0.011775
-0.0982
-0.038883
0.004808
-0.0095429
0.055196
0.035742
-0.0047593
-0.010819
0.039888
-0.0076295
-0.023575
0.01023
-0.011775
-0.044623
-0.094373
-0.045261
-0.011775
-0.028996
-0.0041214
0.012143
0.069228
0.080709
0.028407
0.016608
-0.017197
0.03638
0.0028946
-0.025488
-0.06312
-0.11351
-0.10649
-0.078427
-0.10841
-0.17601
-0.085762
-0.073325
-0.090227
0.008316
0.0051269
-0.028678
-0.060887
-0.06025
0.0067215
0.01884
0.010548
-0.013689
-0.056104
-0.046855
0.03925
0.049774
-0.042391
0.01884
0.050093
0.025856
0.10271
0.099524
0.049137
0.037975
0.055834
0.01597
0.0070404
0.026494
-0.026445
-0.048131
-0.054509
-0.045261
-0.010819
-0.033142
-0.017197
-0.014008
0.042758
0.080071
0.044672
-0.014645
-0.026126
0.073055
0.041802
0.0022568
0.010867
-0.076833
-0.07173
-0.014008
-0.01337
-0.064395
0.008316
0.0028946
-0.031229
0.052645
0.041483
0.019159
0.00098112
-0.028996
0.012462
0.0038513
-0.010181
-0.028678
-0.089589
-0.09246
-0.010819
-0.012094
-0.11638
-0.051001
0.010548
-0.034099
0.024899
0.0073593
-0.00093234
-0.0069916
0.0016189
-0.03952
-0.0076295
0.0076782
-0.070136
-0.14795
-0.10553
-0.063439
-0.019429
-0.052596
-0.053552
-0.043666
0.037018
0.059342
0.019478
-0.044304
-0.049088
0.047542
0.0057648
-0.029634
-0.030591
-0.12945
-0.11542
-0.039839
-0.055466
-0.10203
-0.033142
-0.029634
-0.0864
0.0076782
-0.005716
-0.020067
-0.020705
-0.056742
-0.024851
-0.029953
-0.032186
-0.060887
-0.11574
-0.12052
-0.038564
-0.032504
-0.11415
-0.043347
-0.0095429
-0.026445
0.051369
0.03351
-0.0047593
-0.0085862
0.032553
-0.016878
-0.0063538
0.013419
-0.048769
-0.058974
-0.074282
-0.050363
-0.0082673
-0.030272
-0.0076295
0.012781
0.069866
0.11483
0.059023
0.0038513
-0.00029452
0.10112
0.050731
0.0095917
-0.021343
-0.070455
-0.079703
-0.036331
-0.050682
-0.075876
0.0067215
0.014375
-0.031229
0.052963
-0.0066727
-0.0076295
0.00098112
-0.00093234
0.040526
0.031915
0.028088
0.0073593
-0.097562
-0.069498
0.0035324
0.025537
-0.10235
-0.049726
-0.023256
-0.033461
0.051369
0.016608
-0.022618
-0.032504
-0.0031647
-0.052915
-0.039202
-0.021024
-0.0864
-0.093735
-0.10011
-0.086719
-0.044304
-0.060569
-0.038245
-0.028678
0.02171
0.062212
0.02458
-0.032823
-0.037288
0.064125
0.025537
-0.014008
-0.0079484
-0.079703
-0.075557
-0.027721
-0.026764
-0.073006
0.016608
0.0076782
-0.03378
0.054558
0.051369
0.050412
0.030002
0.0022568
0.051688
0.058704
0.008635
-0.014327
-0.071093
-0.070774
-0.0034836
0.0003433
-0.086719
-0.020386
0.013419
-0.009224
0.03638
-0.0063538
0.029045
-0.026764
0.021072
-0.036331
-0.038564
-0.0060349
-0.063439
-0.071093
-0.076195
-0.055785
-0.02804
-0.031867
-0.036331
-0.021661
0.024899
0.082941
0.015332
-0.037926
-0.011456
0.10654
0.029683
-0.0105
0.041483
-0.044942
-0.036012
-0.053552
-0.04845
-0.058974
0.096654
0.026175
-0.037607
0.067633
0.065401
0.040526
-0.00093234
-0.026764
0.025218
-0.010819
-0.028996
-0.039839
-0.080979
-0.10075
-0.040796
-0.034099
-0.099794
-0.037607
-0.032823
-0.047812
0.050093
0.020435
-0.015283
-0.0082673
0.028407
-0.029315
-0.035694
-0.00093234
-0.074919
-0.09246
-0.10203
-0.075557
-0.047812
-0.069817
-0.058336
-0.043347
-0.00093234
0.043077
0.012462
-0.061844
-0.062482
0.034467
-0.0034836
-0.017835
0.0073593
-0.070455
-0.058017
-0.016559
-0.03378
-0.055147
0.036061
0.01023
0.0019378
0.11324
0.076244
0.010867
-0.039202
-0.0012513
0.094422
0.053601
0.022029
-0.035694
-0.13232
-0.12276
-0.012094
-0.014964
-0.097562
-0.02804
-0.020705
-0.047493
0.03925
-0.0082673
-0.044623
-0.026126
-0.0012513
-0.052277
-0.055785
-0.029315
-0.093735
-0.098838
-0.1151
-0.096924
-0.056742
-0.075876
-0.057379
-0.049088
0.0076782
0.084854
0.042439
-0.058336
-0.048131
0.032234
0.0019378
0.013738
0.026813
-0.071093
-0.063439
-0.047493
-0.054509
0.0057648
0.10271
0.055515
-0.023894
0.057747
0.11834
0.1177
0.052007
0.01884
0.10048
0.075606
0.043715
-0.047812
-0.023256
-0.02517
-0.0015702
-0.03091
-0.11765
-0.034099
-0.00093234
-0.028996
0.023943
0.014694
0.012781
-0.012413
0.025537
-0.019429
-0.019748
0.0060837
-0.076514
-0.086081
-0.070455
-0.080979
-0.030591
-0.044942
-0.041115
-0.038245
0.011824
0.044034
-0.0073105
-0.079065
-0.0864
0.026494
-0.0066727
-0.054828
-0.033142
-0.094692
-0.081935
-0.052277
-0.06886
-0.086081
-0.0038025
0.027132
0.0057648
0.070503
0.025537
0.034786
0.043715
0.02777
0.055515
0.011505
-0.0028458
-0.02804
-0.088952
-0.082892
-0.005716
-0.014645
-0.10872
-0.049407
-0.018791
-0.045261
0.037337
0.02171
-0.0069916
-0.00093234
0.061255
0.008316
0.023624
0.047223
0.0076782
-0.0063538
0.0057648
0.035423
0.080071
-0.0060349
-0.005716
0.038612
0.15278
0.15183
0.068271
0.008635
-0.033142
0.066358
0.0099106
-0.012732
0.004808
-0.096924
-0.090865
-0.045899
-0.03952
-0.070774
0.022348
-0.019429
-0.073325
0.047542
0.035742
0.022029
0.027132
0.015651
0.096973
0.045629
0.037018
-0.038883
-0.075876
-0.060887
0.030002
0.064125
-0.028359
-0.020067
0.012781
0.013738
0.10654
0.067633
-0.010181
0.0035324
0.016927
-0.02804
-0.038245
-0.025807
-0.099476
-0.093416
-0.089908
-0.070774
-0.023575
-0.074601
-0.063439
-0.01911
0.05105
0.077838
0.034786
-0.022618
-0.0089051
0.1075
0.028088
-0.014008
0.034148
-0.020705
-0.022299
-0.029953
-0.048769
-0.060887
0.022986
0.020435
-0.017835
0.062212
0.042121
0.05392
0.018521
-0.005716
0.051369
0.044034
0.015013
0.00098112
-0.069498
-0.070774
0.030002
0.044991
-0.11989
-0.013689
0.075925
0.034148
0.086449
0.070185
0.059342
0.045947
0.054558
0.049137
0.045629
0.035104
-0.028678
-0.047174
-0.014645
0.0019378
-0.012732
-0.045899
-0.0044404
-0.018153
0.029683
0.07752
0.042121
-0.037288
-0.055785
0.036061
-0.011775
0.017883
0.0035324
-0.073644
-0.04558
0.023624
-0.0050782
-0.021343
0.077201
0.080071
0.011824
0.11005
0.16139
0.12185
0.11069
0.047542
0.095378
0.081665
0.092827
0.028088
-0.097881
-0.064077
0.03064
-0.011456
-0.080341
-0.036969
-0.0105
-0.039839
0.043077
0.062212
0.040845
-0.0041214
0.026813
-0.022618
0.0060837
0.027451
-0.047493
-0.091184
-0.085443
-0.084806
-0.04845
-0.041434
-0.039839
-0.034737
-0.0012513
0.051369
0.044034
-0.023256
-0.025488
0.069228
0.0028946
-0.028359
0.0016189
-0.10235
-0.079065
-0.047174
-0.038245
-0.080341
0.0035324
-0.0041214
-0.10553
-0.010181
0.022986
0.072098
-0.049088
-0.078746
-0.0041214
0.0131
-0.017197
-0.034737
-0.16804
-0.17027
-0.030272
0.037337
-0.10522
-0.086719
-0.05132
-0.10266
-0.036331
-0.036969
-0.051958
-0.06599
0.0044891
-0.06599
-0.050682
0.051369
-0.043347
-0.074601
-0.088952
-0.035375
0.054877
-0.005716
0.027451
0.035104
0.05392
0.10367
0.089319
0.0095917
0.032553
0.081346
0.0044891
-0.039202
-0.0044404
-0.11255
-0.11478
-0.13679
-0.057061
-0.12626
-0.084487
-0.10011
-0.087357
0.048818
-0.021024
-0.048131
-0.041753
-0.055785
0.018202
0.019159
0.015013
0.0044891
-0.03665
-0.0050782
0.072736
-0.0098618
-0.020386
0.0131
0.048499
0.020435
0.14896
0.073055
0.016289
0.088681
0.085173
0.044991
0.059342
0.025537
-0.02517
-0.023575
-0.00093234
-0.03665
0.014694
-0.018153
0.017883
0.064444
0.096016
0.054239
0.0073593
-0.0034836
-0.0073105
0.10112
-0.034418
-0.058974
-0.099794
-0.21939
-0.1757
-0.13328
-0.12052
-0.17952
-0.13487
-0.12084
-0.15305
-0.034737
-0.010819
-0.047493
-0.13902
-0.21492
-0.13806
-0.11797
-0.061206
-0.071411
-0.19738
-0.28444
-0.088952
-0.049726
-0.18973
-0.094692
-0.091503
-0.19228
-0.086081
-0.081298
-0.14731
-0.10362
-0.0041214
-0.063439
-0.046536
-0.031548
-0.038883
-0.049726
-0.10809
-0.073963
-0.0018891
-0.041753
0.036699
0.083579
0.13142
0.16713
0.12408
0.065401
0.076563
0.18148
0.10016
0.088044
0.12663
0.030959
0.042758
0.13014
0.1295
0.044353
0.086449
0.017564
-0.054509
0.13078
0.19296
0.19615
0.05679
0.032234
0.01884
0.074649
0.060298
-0.0098618
-0.19355
-0.1151
0.056471
-0.052277
-0.18016
-0.027083
0.06285
0.039569
-0.060887
-0.082254
-0.0063538
-0.027721
-0.011775
-0.053552
-0.019429
-0.012732
-0.13551
-0.11096
-0.12371
-0.044942
-0.020067
-0.093097
-0.056742
-0.012413
0.037656
0.040845
0.041483
-0.005716
-0.038245
0.031596
-0.00093234
-0.033461
-0.047812
-0.09246
-0.052596
-0.014645
-0.069817
-0.088952
0.012781
0.01023
-0.042391
0.027451
0.019478
0.030002
0.058066
0.016608
0.037656
-0.041115
-0.0041214
0.0092728
-0.062801
-0.08066
-0.016559
0.0044891
-0.10904
-0.038564
-0.024213
-0.037607
0.046904
-0.065671
-0.096605
-0.034099
0.0044891
-0.045899
-0.049726
-0.021024
-0.071411
-0.14859
-0.1218
-0.017516
0.014056
-0.059612
-0.026126
0.052963
0.062212
0.18914
0.17925
0.099205
0.031915
0.14864
0.12536
0.060617
0.066358
0.053282
0.055515
0.095378
0.12153
0.020116
0.055515
0.03064
0.011824
0.060617
0.14226
0.10718
0.060617
-0.00093234
0.03064
0.035742
0.040207
0.0089539
-0.042391
-0.034418
-0.050363
-0.085762
-0.079065
0.044672
0.027451
-0.0098618
0.0099106
-0.037926
-0.018153
-0.045261
-0.0079484
-0.10617
-0.11096
-0.070455
-0.10075
-0.078109
-0.093416
-0.10936
-0.10043
-0.082892
-0.047812
0.0025757
0.04818
0.10877
0.052007
-0.017835
-0.03378
0.06859
-0.01624
-0.10585
-0.019429
-0.10809
-0.11032
-0.065352
-0.079065
-0.20408
-0.10458
-0.1033
-0.094692
0.0025757
0.037018
0.01597
-0.042072
-0.040477
0.064763
0.042439
0.075287
0.044353
-0.023256
-0.039839
0.014056
0.017564
0.0089539
0.14864
0.081346
-0.011775
0.1598
0.086449
0.040207
0.11292
0.14385
0.11037
0.070503
0.04818
0.038612
0.064763
0.042439
0.049137
0.15087
0.11132
0.13237
0.044353
0.11547
0.13875
0.076244
0.015013
-0.0089051
0.094422
-0.0073105
2.4388e-05
0.031596
-0.073325
-0.11957
-0.11032
-0.12339
-0.085443
0.052645
-0.069817
-0.14157
0.015013
0.044353
0.014694
-0.035694
-0.11638
-0.029634
0.030002
-0.14349
-0.11638
-0.15018
-0.18781
-0.064395
-0.080022
-0.10107
-0.024851
0.048818
-0.031229
0.094103
0.087725
0.01597
0.04818
0.098568
0.099524
0.068271
0.093784
0.013738
-0.026126
-0.0044404
-0.041115
-0.043666
-0.14221
-0.093735
-0.064714
-0.035375
0.018521
-0.031548
-0.10298
-0.096286
0.020116
0.052963
-0.03091
-0.01624
-0.017835
-0.01337
0.040526
0.06859
0.038612
0.18308
0.18627
0.12312
0.25324
0.20923
0.16299
0.13173
0.060298
0.1531
0.16777
0.12121
0.043077
0.017883
-0.041753
-0.0031647
-0.0038025
-0.092141
-0.028678
0.015013
-0.038245
0.023305
0.017246
0.027132
-0.016559
-0.0063538
-0.08066
-0.11255
-0.14731
-0.10362
-0.061844
-0.091184
-0.10553
-0.036012
-0.072049
0.029364
0.029045
-0.073006
0.066039
0.093146
0.0051269
0.013738
0.10941
0.076244
0.058704
0.096016
-0.0105
-0.047493
-0.059931
-0.089908
-0.089908
-0.027721
-0.0105
-0.046218
0.1008
0.10495
0.042758
0.0013
-0.022299
0.074649
0.078157
0.040845
0.046585
-0.025488
0.0041702
0.13843
0.14832
-0.016878
-0.0069916
-0.032504
-0.085443
0.038931
0.057109
-0.035694
-0.039839
-0.011456
-0.063758
-0.084806
-0.042391
-0.12977
-0.1336
-0.13934
-0.039839
-0.026126
-0.026126
0.059661
0.096973
0.1413
0.11898
0.054877
0.035104
-0.044623
0.008635
0.012143
-0.025488
-0.01337
-0.1269
-0.11383
-0.088952
-0.16294
-0.18686
-0.067903
-0.066947
-0.069817
0.014694
0.025218
0.059342
0.095697
0.14832
0.09793
0.11515
0.065401
0.038294
-0.00061343
0.035742
0.080709
0.062212
-0.097243
0.0038513
0.025537
0.019159
0.018521
-0.040477
-0.058655
0.0044891
-0.016878
-0.07779
-0.047812
-0.020705
-0.073644
-0.084487
-0.064395
0.0019378
0.015332
-0.005716
0.020435
0.0057648
0.047861
0.05679
-0.030591
0.064444
0.037975
0.13684
0.03925
-0.0073105
0.019159
-0.071093
-0.013051
0.025218
0.014375
-0.03665
0.07146
0.052963
-0.026445
0.065401
0.11069
0.026813
-0.0012513
0.01023
0.010548
-0.018791
-0.095011
-0.16326
-0.17282
-0.14636
-0.012732
-0.091184
-0.1454
-0.077152
-0.094373
-0.10139
0.02458
0.023305
-0.01624
0.044991
0.09793
0.070185
0.1059
0.12408
0.073055
0.030002
-0.095649
-0.051958
0.10335
0.074649
0.037018
0.05392
0.06285
0.073055
0.055515
-0.017835
0.0003433
0.10239
0.017564
-0.058017
-0.03091
-0.075876
-0.086081
-0.063439
0.031915
-0.0060349
0.042121
-0.032823
-0.064714
0.04531
0.077201
0.10782
0.052963
0.045629
0.030321
-0.0047593
-0.039202
-0.091822
-0.10139
-0.079703
0.010548
-0.055785
-0.12467
-0.034737
-0.014964
-0.031548
0.11388
0.11579
0.11292
0.08326
0.072417
0.0022568
-0.029953
-0.011137
0.084536
0.016927
-0.16485
-0.014327
0.13333
-0.014964
-0.056423
-0.086081
-0.087357
-0.0047593
-0.039202
-0.058974
-0.039839
0.050412
0.027132
-0.03091
-0.029315
-0.081298
-0.050044
-0.024213
-0.0038025
-0.037926
0.049455
0.02171
-0.013689
0.05105
0.033829
0.058385
0.076882
-0.079384
0.069228
0.15055
0.11388
0.008635
-0.062163
-0.034099
0.0022568
0.044353
-0.17155
0.11037
-0.00061343
-0.038245
0.10526
0.086768
-0.0018891
-0.050044
0.0032135
-0.055466
-0.061844
-0.073644
-0.16677
-0.132
-0.12403
-0.087038
-0.045261
-0.012413
0.068271
0.025856
0.019159
0.068271
0.030959
-0.06312
-0.1202
0.075606
0.10016
0.075287
0.057109
-0.052596
-0.12084
-0.080979
-0.018472
-0.021661
0.075287
0.032234
-0.089589
0.0041702
0.034467
0.11292
0.034786
0.01597
0.12536
0.089957
0.042121
-0.005716
-0.12754
-0.090546
0.077838
0.090595
0.029364
0.066995
0.044353
0.043715
0.16905
0.054239
0.035423
0.13078
0.11483
0.066039
0.10303
0.054239
-0.048131
-0.11223
-0.17219
-0.11096
-0.052596
-0.0864
-0.12754
-0.14636
-0.12371
-0.047174
-0.07173
-0.16581
-0.16007
-0.051639
-0.057698
-0.04845
-0.014645
-0.041753
-0.12371
-0.11415
-0.033461
-0.10107
-0.017835
0.017883
-0.09533
0.046585
0.094422
0.045629
-0.070455
-0.1151
-0.048769
-0.055785
-0.071411
-0.087676
-0.13137
-0.12467
-0.038245
-0.021024
-0.0982
0.024262
0.058066
0.035423
0.12217
0.057428
0.023943
-0.0089051
0.017246
-0.010181
0.048818
-0.005716
-0.027721
-0.044623
-0.11925
-0.097881
-0.072368
-0.11606
-0.055466
0.11802
0.15023
0.11834
0.11515
0.014375
-0.065352
0.10048
0.033829
0.065082
0.16076
0.03638
0.0022568
-0.025488
-0.0095429
-0.084806
-0.023575
0.033191
-0.074601
-0.0053971
0.042121
0.034786
0.058385
0.036061
0.16968
0.094741
0.029683
0.026175
-0.092141
-0.072049
-0.0089051
-0.016878
-0.046536
0.058704
0.076882
-0.043347
-0.01337
0.03925
-0.002208
-0.023256
0.043715
0.0060837
-0.057379
-0.076195
-0.11861
-0.053234
-0.065033
-0.10458
-0.089908
-0.10426
-0.10266
-0.065033
-0.070774
-0.030272
-0.066947
-0.14476
-0.1387
-0.039202
-0.068222
-0.091184
-0.078746
-0.14827
-0.10585
-0.076833
-0.085762
-0.059293
0.034467
-0.0044404
-0.077152
0.032234
0.07433
0.01597
-0.043347
-0.044623
0.026175
0.016289
0.042439
0.012462
-0.067266
-0.088633
-0.017197
-0.028996
-0.053552
0.058704
0.067952
0.097292
0.19201
0.14449
0.059023
0.11451
0.17638
0.079433
0.089319
0.13811
0.0095917
0.0044891
0.020754
-0.030591
-0.077152
-0.016878
-0.099794
-0.094054
0.041802
0.068271
-0.033142
-0.13679
-0.10585
-0.024213
-0.11064
-0.073963
0.04531
-0.063439
-0.081298
-0.11287
-0.13105
-0.058974
-0.016559
0.0073593
0.06285
0.059342
0.00098112
-0.023256
0.0054459
0.0019378
0.044991
-0.0063538
-0.015921
-0.046855
-0.13073
-0.13232
-0.015602
-0.01337
-0.087038
0.0060837
-0.0085862
-0.084487
-0.026126
0.036699
-0.005716
-0.034099
0.008316
-0.043985
0.0041702
-0.020386
-0.093416
-0.097562
-0.11446
-0.059293
-0.0041214
-0.065033
-0.066309
-0.032504
0.021391
0.072417
0.03351
-0.032186
0.0054459
0.070185
0.014694
-0.0073105
0.022667
-0.050682
-0.032504
0.045947
0.028726
0.041483
0.10367
0.078795
-0.00029452
0.11196
0.14226
0.10526
0.040207
-0.0018891
0.11451
0.061574
0.059023
-0.0073105
-0.097243
-0.11
2.4388e-05
0.028407
-0.020067
0.037337
0.039888
-0.005716
0.069547
0.04531
0.089638
0.083898
0.066677
-0.045899
-0.027083
0.011824
-0.051639
-0.075876
-0.14827
-0.11064
-0.10107
-0.14317
-0.13774
-0.10394
-0.05419
0.008316
-0.0089051
-0.070455
-0.028996
0.079114
0.054558
0.10303
0.09506
-0.012732
-0.012413
0.075925
0.020435
-0.0073105
0.033829
0.061574
0.02458
0.11866
0.096016
0.0095917
-0.034737
-0.075557
-0.047812
-0.069498
-0.099157
-0.12882
-0.20025
-0.16932
-0.065671
-0.079703
-0.16262
-0.072687
-0.056423
-0.068222
0.041483
0.057428
0.018521
-0.022618
0.025856
-0.0098618
0.0099106
0.060298
0.00098112
-0.014008
0.020435
0.036699
0.034467
-0.026445
0.028407
0.025218
0.018521
0.11579
0.10399
-0.035056
-0.041434
0.086768
0.035423
0.022986
0.0032135
-0.077152
-0.037607
-0.077152
-0.036969
-0.044623
0.0038513
-0.039839
-0.053234
0.11643
0.092189
0.04818
-0.0053971
-0.013689
0.076244
0.059661
0.015651
-0.011137
-0.072049
-0.091822
0.13205
0.10622
-0.052596
0.085173
0.086768
-0.02517
0.07752
0.057428
0.080071
0.10813
0.081346
0.031596
0.16458
0.14034
0.031278
-0.047174
-0.055466
-0.058017
-0.0012513
-0.041115
-0.022618
-0.026126
0.061574
0.058066
-0.027402
-0.12563
-0.16581
-0.080022
-0.096924
-0.14986
-0.12116
-0.20185
-0.19898
-0.15784
-0.14189
-0.17442
-0.060887
-0.049407
-0.071411
0.0079971
-0.01624
-0.02198
-0.021024
-0.044304
0.06285
0.062531
0.0022568
-0.017835
-0.084168
-0.033142
0.017564
-0.027721
-0.074919
-0.0031647
0.070822
-0.0038025
0.073374
0.068271
0.032872
0.004808
0.0035324
-0.014327
0.023305
0.0092728
-0.078109
-0.03665
-0.0069916
0.056471
0.03638
-0.063758
-0.0034836
0.06572
0.070503
0.14864
0.11802
0.015013
0.040845
0.15119
0.049774
0.042439
0.099524
-0.0044404
0.011505
-0.010819
0.031596
0.016927
0.061574
0.054239
0.011824
0.02458
0.061255
0.061893
0.050412
-0.028359
-0.023894
-0.034737
-0.055147
-0.081617
-0.15879
-0.16485
-0.074919
-0.081935
-0.17825
-0.11319
-0.1049
-0.095011
0.01884
-0.032823
-0.04558
-0.066947
-0.027402
-0.072368
-0.037926
-0.0050782
-0.080022
-0.0982
-0.10043
-0.09533
-0.034737
-0.072368
-0.023256
-0.005716
0.035104
0.10112
0.026813
-0.0076295
-0.014645
0.050093
-0.037288
0.03064
0.06572
-0.034418
-0.081935
-0.0095429
-0.039202
-0.078746
-0.0018891
-0.022937
-0.034099
0.022348
0.066358
0.040207
-0.030272
-0.073006
0.0032135
-0.0012513
-0.01624
-0.045899
-0.10936
-0.12212
-0.0089051
0.0038513
-0.081935
0.00066221
0.025218
-0.010819
0.08039
0.052007
0.016608
0.038294
0.085173
0.015651
0.02458
0.082941
0.026494
0.018521
0.023943
0.066358
0.067314
0.040207
0.075287
0.064763
0.1193
0.11866
0.054877
0.018202
-0.024532
0.1177
0.03638
-0.010181
-0.047174
-0.13328
-0.11096
-0.093097
-0.10235
-0.11765
-0.025488
-0.061844
-0.063758
0.039569
0.10813
0.059023
0.04818
0.037656
0.12057
0.038612
-0.017516
-0.026764
-0.014008
-0.099476
-0.019748
0.0016189
-0.08066
-0.01911
-0.012413
-0.03378
0.0022568
-0.097243
-0.09533
-0.051639
0.022029
-0.048131
-0.078746
-0.061525
-0.11702
-0.11574
-0.11893
-0.067903
-0.059612
-0.10522
-0.047174
-0.011775
0.046585
0.092189
0.035423
0.047223
0.04818
0.14258
0.11675
0.066677
0.075606
-0.0069916
-0.034737
0.051688
0.08613
-0.024213
0.066358
0.050731
-0.0060349
0.041164
0.022348
0.008316
-0.012094
-0.02198
0.026175
0.00098112
0.0022568
-0.022618
-0.10266
-0.081935
-0.017197
0.0025757
-0.071411
-0.031229
0.046904
0.0099106
0.075925
0.033191
-0.042391
-0.030272
0.0041702
0.01597
-0.0018891
0.0013
-0.050363
-0.061844
-0.049407
0.044353
0.076882
-0.0098618
0.008316
-0.045899
0.12759
0.27269
0.14704
-0.011775
0.028088
0.17702
0.066039
0.004808
0.029045
-0.063758
-0.088952
-0.088952
-0.056423
-0.059293
-0.0095429
-0.045899
-0.079703
0.03638
0.026175
-0.022299
-0.044623
-0.045899
0.10112
0.07752
-0.060887
-0.062482
-0.090227
-0.11255
-0.043028
-0.080979
-0.15241
-0.040158
0.0038513
-0.053234
0.004808
-0.036331
-0.069179
-0.058017
-0.027083
-0.055785
-0.021024
0.022667
-0.027402
-0.046855
-0.028678
0.063169
0.08613
0.0044891
0.12089
0.099843
0.09187
0.08326
0.093784
0.038931
0.062212
0.11802
0.030321
0.021072
0.019159
-0.11829
-0.1403
-0.10458
-0.11096
-0.12116
-0.01624
-0.024213
-0.058017
0.072098
0.11547
0.05679
0.052326
0.0073593
0.089
0.050093
0.07433
0.041483
-0.022618
-0.063439
-0.010819
-0.068541
-0.15847
0.017883
0.030959
-0.075557
-0.017197
-0.052915
-0.069498
-0.075238
-0.019748
-0.072049
-0.037607
-0.035375
-0.014327
0.026813
-0.047812
0.034786
0.11292
0.032872
0.064125
0.0013
0.008635
0.059661
0.14098
0.037656
-0.0031647
0.090595
0.029683
-0.072049
-0.070774
-0.13838
-0.14093
-0.13073
-0.12052
-0.1454
-0.050682
-0.050682
-0.075557
0.022029
0.032553
0.0038513
-0.036012
-0.046855
-0.022618
-0.0034836
0.0076782
-0.0105
-0.06312
-0.11191
0.034148
0.033829
-0.11255
-0.061844
0.0035324
-0.0060349
0.060617
0.044991
0.024899
0.040526
0.031278
2.4388e-05
0.077838
0.10335
0.057747
0.02171
-0.016878
-0.014645
0.054877
-0.043347
-0.034737
0.014694
0.071141
0.1126
0.074649
-0.064714
-0.064714
-0.00093234
-0.079384
-0.12977
-0.082573
-0.16007
-0.15018
-0.12403
-0.10203
-0.12754
-0.038245
-0.019748
-0.042072
0.03925
0.046585
0.072736
0.096973
0.053282
0.066358
0.071779
0.012781
0.055196
0.0044891
-0.031229
0.052645
-0.017516
-0.02517
0.057428
0.015332
-0.0060349
0.05679
0.018202
0.011505
0.0032135
0.010548
-0.071411
-0.029953
0.0092728
-0.073644
-0.096924
-0.10298
-0.099794
-0.054509
-0.092141
-0.058336
-0.058336
-0.012094
0.027132
0.0051269
-0.010819
0.015651
0.092827
0.027132
0.025856
0.042758
-0.12882
-0.034099
-0.00029452
0.012143
0.01023
0.024899
-0.036331
0.004808
0.11419
0.070503
-0.022618
-0.0028458
-0.041115
0.072098
0.03351
0.0054459
0.011824
-0.052596
-0.060887
-0.01337
0.041164
-0.027402
0.0070404
0.057109
0.047223
0.15087
0.090914
0.018202
0.010548
0.074968
0.019159
-0.0105
0.042439
-0.005716
0.0016189
-0.038245
-0.077471
-0.03378
-0.048769
0.014375
-0.0063538
-0.0031647
-0.00093234
0.031278
-0.0012513
-0.015283
0.057109
0.0038513
-0.024532
-0.0105
-0.093416
-0.059931
-0.017835
-0.018153
-0.018153
0.073055
0.099843
0.031915
0.11451
0.13971
0.079114
0.025537
-0.009224
0.041802
0.099524
0.11834
0.073693
0.016927
-0.0028458
0.050731
0.031278
-0.038245
-0.022299
0.0025757
-0.03091
0.048818
0.042758
-0.018472
0.029364
0.058704
-0.018791
-0.025488
-0.068222
-0.17761
-0.16836
-0.17697
-0.12882
-0.07173
-0.13456
-0.047493
0.03064
0.14385
0.17351
0.11037
0.052963
0.066039
0.17606
0.15406
0.065082
0.097611
0.069547
0.10654
0.10845
0.0022568
0.018521
0.056153
0.0054459
-0.061844
0.076882
0.069547
0.032234
-0.032186
-0.1151
-0.06886
-0.04271
-0.0095429
-0.040158
-0.10235
-0.10617
-0.019429
0.0025757
-0.14253
-0.056104
-0.0031647
-0.010819
0.05105
0.056471
0.037018
0.0041702
-0.021024
-0.035056
0.052326
0.075287
0.023943
0.021391
0.043396
0.058704
0.079752
0.043715
0.031278
0.03351
0.061574
0.088681
0.082941
-0.0069916
0.0028946
0.064444
0.031596
-0.029953
-0.046218
-0.13519
-0.132
-0.057698
-0.0089051
-0.069179
-0.0015702
-0.032823
-0.02198
0.10877
0.070503
0.037656
-0.0082673
-0.024851
0.080709
0.13811
-0.018153
-0.082892
-0.11606
-0.030591
0.038931
0.00066221
-0.094373
-0.03665
0.038931
0.014694
0.06285
0.060936
-0.0041214
0.022667
0.042758
0.022348
-0.0105
0.037975
-0.049407
-0.1674
-0.14444
-0.089589
-0.047493
-0.099476
-0.051639
-0.017835
0.015332
-0.011775
-0.012413
-0.052915
-0.036012
0.10208
0.037018
0.026813
0.036699
-0.051639
-0.027721
0.081028
0.069228
-0.027083
0.087087
0.11993
0.10558
0.16235
0.17255
0.11579
0.061893
0.045629
0.17032
0.12472
0.016927
-0.042391
0.0073593
-0.013051
-0.01624
0.00066221
-0.005716
-0.0085862
-0.016559
-0.041434
0.018202
0.00098112
-0.059931
-0.09246
-0.070774
0.0073593
-0.057698
-0.062163
-0.11829
-0.12786
-0.17952
-0.19961
-0.087676
-0.15465
-0.055466
-0.016878
-0.069498
0.02458
0.062531
-0.043028
-0.079065
0.071779
0.057747
0.0067215
0.067314
-0.087357
-0.10713
-0.020386
-0.061525
-0.033461
2.4388e-05
-0.022937
-0.09533
0.084854
0.10367
-0.050682
-0.00093234
0.10239
0.078476
0.052326
-0.029315
-0.075876
-0.045899
0.016608
0.056153
0.039888
-0.054828
0.061574
0.13014
0.083579
0.13301
0.074012
-0.0066727
-0.021343
0.046585
0.057109
0.082941
0.057109
-0.023894
-0.059931
-0.046855
-0.005716
0.0035324
-0.035694
-0.019429
-0.027721
0.037018
0.1193
0.11643
0.026813
-0.070455
0.076244
0.050093
0.012781
0.065401
-0.12276
-0.094373
-0.053234
-0.051958
-0.059293
0.037656
0.0038513
-0.14795
-0.011775
-0.0073105
0.046904
-0.0060349
0.0099106
0.05105
-0.018153
-0.10298
-0.079384
-0.065352
-0.10585
0.012143
-0.062801
-0.12595
-0.15752
-0.042391
-0.052915
0.027132
0.0067215
-0.066947
-0.10841
-0.059931
-0.099157
-0.028996
0.013738
-0.03378
-0.10681
-0.13232
-0.1049
-0.00093234
-0.045261
0.059023
0.015332
-0.01337
0.082941
0.15884
0.060617
0.018202
0.10144
0.090276
0.027451
0.059979
0.024262
-0.0076295
0.018202
0.0095917
0.0070404
0.061255
0.010867
-0.034737
0.090595
0.087087
0.055515
0.008635
-0.014645
0.048818
0.021391
0.0095917
-0.013689
-0.056423
-0.034737
0.087087
0.044034
-0.03665
0.047542
0.036699
0.054558
0.11515
0.13971
0.085811
0.041164
-0.0085862
0.037337
-0.036012
-0.014327
-0.019748
-0.014964
-0.041434
-0.1336
-0.10362
-0.08066
-0.062482
-0.015921
0.039569
0.06572
0.042121
-0.056104
-0.043985
0.1126
0.04818
-0.055785
-0.064077
-0.11128
-0.035056
-0.0060349
-0.082892
-0.15847
-0.0073105
-0.022937
-0.17219
-0.097562
-0.099157
-0.059293
-0.11797
-0.075238
-0.05419
-0.076514
-0.014008
-0.043028
-0.14636
-0.091822
-0.0028458
2.4388e-05
-0.011456
0.13333
0.16777
0.11866
0.12982
0.096973
0.17702
0.19392
0.18276
0.078795
-0.040477
0.048818
0.096335
0.039569
-0.050044
2.4388e-05
0.043396
0.027451
0.039569
0.065082
0.070503
0.069866
0.061574
0.026494
0.076882
0.20158
0.11579
0.050093
0.078157
0.0013
0.0003433
0.034148
0.026813
-0.031229
0.060617
0.020435
-0.017835
0.069547
0.089638
0.069547
0.029045
-0.0069916
0.027451
0.014375
0.0016189
0.008316
-0.10745
-0.14412
-0.0015702
0.037975
-0.049407
-0.017197
0.024262
-0.0079484
0.061893
0.0019378
-0.041434
-0.010819
0.071779
-0.062482
-0.075876
0.0076782
-0.039839
-0.10266
-0.10171
-0.079703
-0.073644
-0.075876
-0.061844
-0.056104
-0.026764
-0.030591
-0.061206
0.016608
-0.13934
-0.10394
-0.20472
-0.12339
-0.038245
-0.15433
-0.23406
-0.16645
-0.28253
-0.27009
0.05105
0.058066
-0.063758
-0.046855
-0.072049
-0.054828
0.08613
0.14194
0.12217
0.068271
0.14226
0.13492
0.0044891
-0.043985
0.089
0.10271
0.040526
0.077838
0.11228
0.097292
0.12025
0.14003
0.047542
-0.00029452
0.086449
0.016289
-0.032504
0.03064
-0.0018891
-0.056104
-0.056104
-0.025488
-0.018791
-0.047812
-0.03091
-0.0098618
0.04531
0.082622
0.03925
-0.023256
-0.026445
0.074649
0.033829
0.0092728
0.014694
-0.072049
-0.067585
-0.023575
-0.020705
-0.08927
0.0099106
0.0099106
-0.034737
0.042758
0.025218
0.012781
-0.015602
-0.035694
-0.0047593
-0.0053971
-0.018472
-0.056104
-0.1202
-0.066309
0.028726
0.0095917
-0.17442
-0.15497
-0.021661
0.016289
0.071141
0.033829
-0.026126
-0.032823
-0.032186
-0.11638
0.00098112
-0.032823
-0.053871
-0.080979
-0.15146
-0.10203
-0.16517
-0.19036
-0.031229
-0.096924
0.0073593
0.012143
-0.097243
-0.096605
-0.060569
-0.025488
-0.093735
-0.053552
0.049774
-0.077152
-0.19738
-0.043347
0.038931
-0.053552
0.030002
0.04531
0.025218
0.13875
0.10973
0.025537
0.0038513
0.015651
0.088362
0.073374
0.040526
-0.012094
-0.048131
-0.054509
0.030002
0.030002
-0.058655
0.0076782
0.045947
0.026813
0.10463
0.06572
-0.014964
0.034148
0.098249
0.041483
0.046266
0.032872
-0.038883
-0.022299
-0.020705
-0.0089051
-0.010819
0.0099106
0.0079971
-0.026764
0.066358
0.098249
0.046585
-0.027083
-0.036331
0.064444
0.020116
-0.020705
-0.020067
-0.10298
-0.093416
-0.043985
-0.047812
-0.099794
0.00098112
-0.0098618
-0.048769
0.035423
0.03351
0.029683
-0.023575
0.028726
0.041164
0.021072
0.0095917
0.00098112
-0.044623
-0.046855
0.012781
-0.022937
-0.09533
0.089319
0.096654
0.027132
0.073693
0.081665
0.031278
0.0032135
0.073055
0.015651
-0.021024
0.021072
-0.052596
-0.08927
-0.13998
-0.096286
-0.06312
-0.047493
-0.017197
-0.14954
-0.045899
-0.015283
-0.067266
-0.062801
-0.091822
0.017564
-0.065352
-0.099476
-0.030591
-0.10617
-0.10617
-0.049088
-0.047812
-0.10936
0.014694
0.011505
-0.027721
0.059661
0.057109
0.045629
0.028726
0.011505
0.03925
0.03638
0.028407
-0.020386
-0.067585
-0.069817
0.0089539
0.0131
-0.071411
2.4388e-05
0.028407
-0.0025269
0.074649
0.058066
-0.0025269
-0.0066727
0.061255
-0.0028458
-0.012094
0.010548
-0.061206
-0.067266
-0.080022
-0.066309
-0.03952
-0.04558
-0.032823
-0.037926
0.019159
0.050412
0.0131
-0.051639
-0.060569
0.043396
0.0041702
-0.030272
-0.024532
-0.097243
-0.08927
-0.037288
-0.038245
-0.092141
0.0067215
0.0003433
-0.042391
0.040526
0.03064
-0.0018891
-0.0082673
-0.023894
-0.0089051
-0.011775
-0.0047593
-0.039839
-0.091822
-0.094054
0.0035324
0.032234
-0.07173
-0.031548
0.01597
0.058385
0.11579
0.072736
0.076563
-0.0018891
0.081665
0.034148
0.058704
0.059661
-0.029953
-0.045899
-0.073644
-0.074282
-0.04845
-0.0105
-0.012732
-0.041115
-0.0050782
0.0079971
-0.022299
-0.08353
-0.094054
0.0054459
-0.047812
-0.087676
-0.073963
-0.15465
-0.14891
-0.095011
-0.086081
-0.14699
-0.05132
-0.051001
-0.088314
0.0054459
0.010867
0.0060837
-0.014008
-0.025488
-0.0069916
-0.012732
-0.012094
-0.047812
-0.090546
-0.087995
-0.014008
-0.0105
-0.096605
-0.029634
-0.0060349
-0.014645
0.056471
0.028407
-0.015602
-0.020705
0.040526
-0.024213
-0.024532
-0.0018891
-0.073644
-0.076195
-0.082573
-0.069498
-0.05132
-0.039839
-0.02804
-0.038564
0.033829
0.059342
0.036061
-0.018472
-0.026764
0.067633
0.02777
0.025218
0.021072
-0.058017
-0.038564
0.0079971
0.026494
-0.017197
0.070185
0.063169
0.019797
0.092189
0.08326
0.081346
0.0038513
0.019159
0.018202
0.016608
0.020754
-0.048131
-0.11638
-0.1202
-0.060887
-0.059612
-0.14349
-0.085762
-0.047812
-0.051639
0.022667
-0.020067
-0.10011
-0.095649
-0.018791
-0.070774
-0.063439
-0.046218
-0.12371
-0.1167
-0.11765
-0.11733
-0.083211
-0.059293
-0.039202
-0.075557
-0.0028458
0.037018
0.018521
-0.043666
-0.050682
0.052963
0.019478
-0.020386
-0.020386
-0.097243
-0.091184
-0.027402
-0.026126
-0.09533
0.0013
-0.00029452
-0.040158
0.049455
0.037018
0.027132
0.010548
2.4388e-05
0.014375
-0.0012513
0.0025757
-0.046855
-0.08066
-0.082892
-0.0060349
0.004808
-0.070774
-0.032186
0.0032135
0.012781
0.088681
0.057109
0.0041702
-0.010181
0.058385
0.0051269
0.023624
0.047542
-0.027721
-0.037288
-0.040477
-0.028359
-0.011775
0.0038513
0.022029
-0.012413
0.046585
0.083898
0.060617
-0.017835
-0.046218
0.062531
0.039569
-0.065033
-0.063758
-0.13647
-0.14221
-0.063439
-0.041115
-0.12499
-0.028678
-0.017197
-0.084806
0.028726
-0.012094
0.013419
-0.012094
-0.040158
-0.0082673
0.01597
0.014375
-0.045899
-0.090227
-0.10075
-0.017197
-0.013051
-0.10171
-0.047174
-0.015602
-0.020705
0.051369
0.03638
-0.026126
-0.034099
0.040526
-0.022618
-0.032504
-0.0053971
-0.080979
-0.074919
-0.088314
-0.084806
-0.053552
-0.036331
-0.020386
-0.026445
0.040207
0.056153
0.025537
-0.028359
-0.038883
0.060617
0.06285
0.035104
0.031278
-0.034418
0.0032135
0.032872
0.026494
-0.018472
0.11388
0.11196
0.10877
0.18053
0.16139
0.11483
0.069866
0.16044
0.12727
0.12536
0.094741
-0.0018891
-0.074919
-0.037926
0.036699
0.01597
-0.099794
-0.057698
-0.041115
-0.053871
0.008635
-0.022618
-0.082254
-0.0982
-0.021343
-0.073325
-0.091503
-0.065033
-0.14476
-0.14125
-0.13041
-0.10904
-0.096924
-0.082254
-0.063439
-0.093416
0.026494
0.040845
-0.012413
-0.058655
-0.063758
0.022348
-0.0047593
-0.023256
-0.026126
-0.099476
-0.0982
-0.03378
-0.030272
-0.10522
-0.010819
-0.0089051
-0.046536
0.040526
0.029045
0.016289
-0.002208
-0.0063538
-0.0028458
-0.0047593
-0.011456
-0.05132
-0.080979
-0.081935
-0.013051
0.0067215
-0.075876
-0.023575
0.0060837
0.011505
0.099205
0.069547
0.019478
0.02171
0.087725
0.027132
0.02171
0.056471
-0.032823
-0.032186
-0.036969
-0.019748
0.00066221
0.032234
0.03925
0.022029
0.11164
0.093146
0.060936
0.045629
0.023943
0.1177
0.10686
0.07146
0.02777
-0.046536
-0.014645
0.069866
0.031278
-0.084806
0.035423
0.042758
-0.050682
0.078795
0.030321
0.0070404
-0.0038025
-0.035694
-0.047174
-0.033142
-0.041434
-0.097881
-0.13456
-0.13902
-0.071093
-0.059293
-0.14221
-0.08927
-0.05419
-0.047493
0.024262
-0.0073105
-0.059612
-0.061525
0.017883
-0.042391
-0.033142
-0.015921
-0.091503
-0.084168
-0.08353
-0.066309
-0.056423
-0.020386
-0.012094
-0.031867
0.042439
0.061893
0.036699
-0.017835
-0.027402
0.071141
0.040207
0.0054459
0.0025757
-0.069817
-0.06312
0.008635
0.01023
-0.068222
0.032553
0.040526
0.010548
0.10718
0.087725
0.066677
0.054239
0.059661
0.061574
0.066677
0.060298
-0.00061343
-0.040477
-0.037288
0.022348
0.017883
-0.078109
-0.034099
-0.0031647
0.013419
0.066995
0.041164
-0.014008
-0.032823
0.032234
-0.028678
-0.024532
0.0013
-0.072368
-0.064077
-0.058974
-0.04271
-0.032823
0.0016189
0.0060837
-0.014008
0.060298
0.075925
0.05105
-0.0050782
-0.016878
0.080071
0.046585
0.013419
0.0044891
-0.068222
-0.062163
0.0067215
0.0022568
-0.079703
0.021391
0.025856
-0.013051
0.071779
0.049455
0.034467
0.020754
0.019797
0.012781
0.013419
0.011186
-0.046855
-0.078427
-0.082892
-0.022299
-0.012413
-0.087995
-0.03665
-0.0079484
-0.0028458
0.060936
0.025856
-0.030591
-0.03378
0.047223
-0.016559
-0.021024
0.0003433
-0.077471
-0.075557
-0.074282
-0.061844
-0.057379
-0.015921
-0.012094
-0.036012
0.03638
0.052645
0.025856
-0.028678
-0.041434
0.052645
0.020435
-0.014008
-0.020386
-0.094692
-0.085125
-0.011456
-0.019748
-0.09533
0.0028946
0.010867
-0.029634
0.057747
0.040526
0.026494
0.0099106
0.0089539
-0.010181
-0.0085862
-0.0044404
-0.060569
-0.08927
-0.095968
-0.037288
-0.024851
-0.10904
-0.06025
-0.027402
-0.018791
0.050093
0.013419
-0.046536
-0.048131
0.031915
-0.031229
-0.037288
-0.022299
-0.10075
-0.095649
-0.093416
-0.088314
-0.09246
-0.04845
-0.03665
-0.052277
0.024262
0.042439
0.016608
-0.03952
-0.044304
0.05392
0.03064
0.0032135
-0.0012513
-0.066309
-0.048131
0.029364
0.019797
-0.063758
0.034467
0.043077
0.0038513
0.096016
0.075925
0.059979
0.042758
0.041802
0.026175
0.026175
0.025856
-0.033142
-0.057698
-0.071093
-0.011775
-0.00029452
-0.075876
-0.029953
-0.0031647
0.0076782
0.067314
0.032553
-0.029315
-0.032186
0.052007
-0.0063538
-0.020067
-0.0053971
-0.084168
-0.074282
-0.072049
-0.062801
-0.066947
-0.012413
-0.018791
-0.050044
0.026813
0.038931
0.011186
-0.044942
-0.052915
0.03351
-0.0076295
-0.048131
-0.062163
-0.13679
-0.13296
-0.055466
-0.055466
-0.132
-0.036331
-0.028678
-0.071093
0.011824
0.0019378
-0.0034836
-0.012094
-0.002208
-0.017835
0.00098112
0.024262
-0.035375
-0.067585
-0.079384
-0.017197
0.008635
-0.068222
-0.020705
0.010548
0.030959
0.087087
0.043396
-0.023894
-0.034737
0.059342
-0.0060349
-0.030591
-0.014645
-0.091184
-0.089589
-0.086719
-0.076514
-0.085762
-0.03952
-0.042391
-0.074601
0.0013
0.015651
0.00098112
-0.051639
-0.074919
0.0067215
-0.017197
-0.044304
-0.061844
-0.13902
-0.12945
-0.051639
-0.052915
-0.13934
-0.047812
-0.041753
-0.072687
0.014375
-0.0066727
-0.018472
-0.033142
-0.024851
-0.050044
-0.037288
-0.03091
-0.090227
-0.11287
-0.12403
-0.070774
-0.047174
-0.1151
-0.071093
-0.04271
-0.021024
0.037018
-0.00029452
-0.064395
-0.058655
0.030959
-0.034737
-0.049726
-0.021343
-0.097562
-0.10011
-0.093735
-0.084168
-0.087676
-0.029315
-0.037288
-0.06599
0.0038513
0.015332
-0.0047593
-0.04845
-0.064077
0.028726
-0.0028458
-0.040796
-0.057061
-0.12276
-0.11128
-0.033461
-0.040477
-0.12276
-0.03091
-0.014964
-0.050044
0.029683
0.0051269
-0.012413
-0.032186
-0.023575
-0.053871
-0.038245
-0.0034836
-0.055147
-0.10904
-0.12276
-0.058017
-0.033461
-0.10075
-0.050363
-0.014645
0.0131
0.066358
0.035423
-0.025488
-0.026126
0.068271
0.010867
-0.0038025
0.016289
-0.064714
-0.061525
-0.051639
-0.037607
-0.048131
0.0060837
0.00098112
-0.027083
0.048499
0.056471
0.031278
-0.0098618
-0.033142
0.049137
0.017883
-0.011137
-0.029634
-0.10235
-0.096924
-0.014008
-0.017197
-0.10745
-0.017197
-0.0050782
-0.043028
0.045629
0.025537
-0.00061343
-0.0050782
0.0095917
-0.031548
-0.02198
-0.0015702
-0.057698
-0.086719
-0.098838
-0.044623
-0.02198
-0.086719
-0.043347
-0.01911
0.0067215
0.066358
0.028726
-0.034737
-0.033142
0.066039
0.0038513
-0.0063538
0.010548
-0.068222
-0.056742
-0.035694
-0.043028
-0.053871
0.0079971
0.0028946
-0.023894
0.052963
0.053282
0.02777
-0.015283
-0.02804
0.041802
0.0013
-0.031867
-0.051639
-0.12371
-0.11702
-0.034418
-0.041434
-0.1285
-0.04558
-0.031548
-0.069179
0.019797
0.004808
-0.017197
-0.030591
-0.0089051
-0.04845
-0.037926
-0.024532
-0.084168
-0.11
-0.12084
-0.066947
-0.039839
-0.10553
-0.064395
-0.043028
-0.013689
0.046904
0.008635
-0.056104
-0.057698
0.037018
-0.015921
-0.032186
-0.0073105
-0.084168
-0.08066
-0.06025
-0.051958
-0.065033
0.008635
0.0028946
-0.021343
0.058704
0.058066
0.047542
0.011505
-0.012094
0.06285
0.031596
0.0073593
-0.012413
-0.087038
-0.078427
0.0016189
-0.002208
-0.10235
-0.021661
-0.010181
-0.037926
0.05105
0.02777
0.0022568
-0.005716
0.016927
-0.01624
-0.011456
-0.0034836
-0.062482
-0.072049
-0.079703
-0.027402
-0.0073105
-0.061844
-0.02198
0.0060837
0.028088
0.080709
0.051369
-0.012094
-0.009224
0.080071
0.014694
0.0016189
0.020754
-0.064714
-0.065033
-0.049726
-0.040796
-0.064714
0.0057648
-0.0044404
-0.043985
0.026813
0.032872
0.01884
-0.024213
-0.038245
0.041802
0.0041702
-0.028359
-0.047174
-0.10203
-0.087676
-0.0038025
-0.0089051
-0.10011
-0.020705
0.0044891
-0.012094
0.066677
0.047542
0.024262
0.0054459
0.034148
-0.0053971
0.008316
0.0131
-0.06025
-0.073963
-0.078746
-0.040796
-0.016559
-0.072049
-0.039202
-0.012413
0.037018
0.066358
0.027132
-0.036012
-0.034737
0.071779
0.029045
0.022986
0.033191
-0.051958
-0.034737
-0.03378
-0.016878
-0.014327
0.059023
0.041164
-0.0044404
0.071141
0.08039
0.063806
0.022667
-0.0047593
0.058066
0.035742
0.010867
-0.020705
-0.089589
-0.088952
-0.0060349
-0.0105
-0.097562
-0.0105
0.0067215
-0.020067
0.067314
0.046585
0.032553
0.030959
0.055515
0.012143
0.030321
0.057428
0.0016189
-0.0079484
-0.015283
0.020754
0.049137
0.0067215
0.052645
0.070185
0.12823
0.17351
0.11324
0.04818
0.044034
0.1429
0.086449
0.06285
0.059979
-0.017197
-0.012413
0.0041702
-0.01337
-0.051001
0.02777
0.0095917
-0.015283
0.047861
0.022029
-0.00093234
-0.040158
-0.05419
0.01597
-0.018791
-0.050682
-0.078746
-0.14189
-0.13487
-0.048131
-0.046218
-0.13743
-0.053234
-0.010181
-0.02198
0.050731
0.022029
0.0089539
0.01023
0.052963
0.0032135
0.013419
0.03925
-0.0076295
-0.02517
-0.064714
-0.056742
-0.017835
-0.043985
-0.021343
-0.023256
0.027132
0.047861
0.0070404
-0.059612
-0.05419
0.035742
-0.018153
-0.047174
-0.027721
-0.10617
-0.089908
-0.053552
-0.06312
-0.11064
-0.00029452
0.011186
-0.051639
0.028407
0.030002
0.031915
-0.0031647
-0.026764
0.036699
0.015013
-0.012413
-0.040158
-0.09533
-0.0982
-0.0034836
-0.0063538
-0.10107
-0.019429
0.0028946
-0.01911
0.063169
0.045629
0.026175
0.02458
0.058066
0.0095917
-0.002208
0.027451
-0.028678
-0.032504
-0.040158
-0.005716
0.013738
-0.015283
0.0051269
0.016289
0.050093
0.084217
0.050093
-0.022618
-0.023575
0.07433
0.013419
-0.014327
0.0079971
-0.069498
-0.065033
-0.043028
-0.020705
-0.011775
0.087725
0.06572
0.030321
0.11962
0.12791
0.12025
0.083898
0.081665
0.14449
0.096973
0.040526
0.027451
0.0054459
-0.043028
0.026175
0.016289
-0.094692
-0.035694
-0.03952
-0.058336
0.031278
0.0028946
-0.032186
-0.03952
0.0051269
-0.05419
-0.060569
-0.031548
-0.083211
-0.088314
-0.096605
-0.074282
-0.02517
-0.053234
-0.031229
-0.01624
0.031278
0.055196
-0.0015702
-0.043985
-0.028996
0.048499
0.0019378
-0.010819
-0.0069916
-0.095968
-0.095011
-0.068541
-0.074601
-0.11829
-0.010819
-0.0066727
-0.051001
0.03064
0.03925
0.04818
0.008316
-0.022299
0.045629
0.03638
0.030321
0.0013
-0.049407
-0.031867
0.047861
0.047542
-0.078109
-0.0012513
0.063169
0.040526
0.089638
0.063487
0.021391
0.0092728
0.046266
-0.0028458
0.037337
0.064763
0.014694
-0.02517
-0.01624
0.053282
0.098568
0.08326
0.088681
0.11164
0.15151
0.21752
0.17957
0.064444
0.096335
0.19871
0.15374
0.09506
0.10144
-0.0012513
-0.026445
-0.02804
-0.029634
-0.04845
0.032872
0.0079971
-0.041434
0.040207
0.027132
0.0035324
-0.037288
-0.058974
0.0013
-0.025807
-0.063439
-0.098838
-0.132
-0.12786
-0.039202
-0.051639
-0.1454
-0.10235
-0.086719
-0.086081
0.032553
-0.0095429
-0.063758
-0.094373
-0.01624
-0.071093
-0.072049
-0.05419
-0.11191
-0.12403
-0.13264
-0.11159
-0.077471
-0.09533
-0.073963
-0.063439
-0.013689
0.034148
0.0054459
-0.061206
-0.052915
0.061574
0.0099106
-0.03091
-0.020386
-0.08353
-0.052277
-0.011456
0.00066221
-0.064714
0.024899
0.008316
-0.02804
0.067633
0.035742
0.039569
0.037975
0.02171
0.056153
0.012462
0.019159
-0.015921
-0.066309
-0.065671
0.060617
0.059023
-0.068222
0.027451
0.086768
0.073055
0.12504
0.063806
0.021391
0.064763
0.13588
0.060936
0.058385
0.039569
-0.0012513
-0.012094
-0.047812
-0.03665
-0.021343
0.0038513
-0.026764
0.0019378
0.031915
0.081984
-0.028359
-0.046218
-0.048131
0.033829
-0.009224
-0.055147
-0.070136
-0.095649
-0.070455
-0.043028
-0.066309
-0.19292
-0.0063538
0.089319
0.055834
0.064444
0.049137
0.070185
0.020754
0.05392
0.12344
0.12855
0.11483
0.072417
0.026494
-0.0018891
0.10303
0.13907
0.0019378
0.12408
0.16235
0.12823
0.18659
0.14991
0.10654
0.10239
0.12025
0.091552
0.079114
0.096654
0.023624
0.0067215
-0.005716
0.028407
0.029683
-0.0015702
0.035423
0.0060837
0.081028
0.084536
0.060936
-0.012732
-0.010819
0.11643
0.043715
0.028726
-0.0025269
-0.10904
-0.11191
-0.077152
-0.13392
-0.20472
-0.077471
-0.045261
-0.12403
-0.057061
-0.054509
-0.046536
-0.11574
-0.10203
-0.021661
-0.038564
-0.043347
-0.085125
-0.076195
-0.091822
-0.033142
-0.0105
0.0022568
0.083579
0.044353
0.020754
0.088681
0.041802
-0.019748
-0.016878
0.0067215
-0.020386
-0.031867
-0.031229
-0.093735
-0.086719
-0.13328
-0.15082
-0.17665
-0.14923
-0.11319
-0.12913
-0.083849
-0.019748
-0.028678
-0.085443
-0.05419
0.043715
-0.020705
-0.014645
0.024899
-0.053552
-0.034099
0.078157
0.10016
0.058385
0.17064
0.14991
0.1228
0.22135
0.20189
0.19201
0.16139
0.14449
0.1767
0.15629
0.14258
0.078476
0.046266
0.046585
0.11196
0.10686
0.012781
0.023943
0.048499
0.082941
0.16107
0.12249
0.03925
0.0060837
0.088362
0.037337
0.023305
-0.015283
-0.12658
-0.13392
-0.1521
-0.082254
-0.12307
-0.14954
-0.11893
-0.13105
-0.090227
-0.11733
-0.13487
-0.16708
-0.051001
-0.035694
-0.13998
-0.094373
-0.13424
-0.18431
-0.17442
-0.10362
-0.10203
-0.21843
-0.11989
-0.15943
-0.24139
-0.10362
-0.02517
-0.02804
-0.11702
-0.13551
-0.15528
-0.10394
-0.042072
-0.032823
-0.081298
-0.078109
0.021072
0.14194
0.032872
0.076563
0.12855
0.12567
0.207
0.23251
0.21178
0.16873
0.19169
0.13078
0.10909
0.15693
0.058385
-0.0098618
-0.050044
-0.10585
-0.10075
-0.132
-0.12658
-0.14317
-0.13169
-0.12595
-0.15114
-0.18112
-0.16326
-0.086081
-0.13966
-0.11287
-0.072368
-0.10809
-0.058336
0.041164
0.060298
0.027132
0.17224
0.20604
0.14513
0.23889
0.20158
0.2306
0.207
0.16044
0.13524
0.1008
0.041483
0.018521
-0.0038025
-0.015283
0.03638
-0.036331
-0.1387
-0.04845
0.034786
-0.016878
0.066358
0.0079971
0.016289
-0.036012
0.052326
0.04818
0.022348
0.050412
0.037018
-0.0982
-0.091822
-0.12116
0.01023
0.0013
-0.026126
-0.073644
0.012462
-0.029315
-0.093735
-0.11542
-0.0982
-0.0050782
-0.055147
-0.075876
-0.17538
-0.30804
-0.18494
-0.11702
-0.1218
-0.22289
-0.10075
-0.13743
-0.25829
-0.074919
-0.044623
-0.087676
-0.093416
-0.11096
-0.020386
-0.013051
-0.097243
-0.11733
-0.065352
-0.050363
0.043396
0.067952
-0.028678
-0.023575
0.042439
0.10782
0.16267
0.16044
0.088681
0.032234
0.063806
-0.051001
0.012143
0.024899
-0.1454
-0.17474
-0.18048
-0.11829
-0.07779
-0.16549
-0.19005
-0.14827
0.0060837
0.050412
-0.011775
-0.079703
-0.050682
0.031278
0.064125
0.077838
0.12504
0.03064
0.048818
0.1346
0.15151
0.059342
0.15884
0.17255
0.10558
0.2172
0.22007
0.20381
0.17957
0.19009
0.16713
0.13652
-0.019748
-0.082573
0.004808
0.0095917
0.023305
-0.0015702
-0.20599
-0.071093
0.0054459
-0.064077
0.014694
-0.030272
-0.095649
-0.11542
-0.043666
-0.069179
0.017564
0.04818
-0.088952
-0.11446
-0.052915
-0.0015702
-0.019429
-0.016559
-0.03378
-0.056423
0.0051269
0.037656
-0.0069916
-0.10458
-0.071093
-0.0085862
-0.073325
-0.082254
-0.08066
-0.24075
-0.191
-0.10841
-0.087676
-0.12595
-0.041434
0.011505
-0.061525
0.059979
0.059342
0.076882
0.11547
0.08326
0.075606
0.014056
-0.019748
-0.091822
-0.10235
-0.10681
-0.068222
-0.08066
-0.16134
-0.14763
-0.08927
-0.068222
-0.040477
-0.11351
-0.14572
-0.12626
-0.0079484
-0.058336
-0.005716
-0.0098618
-0.079703
-0.028678
-0.031548
0.021391
-0.032823
0.0070404
0.031915
-0.10203
0.0044891
0.073374
0.023624
-0.042391
0.0028946
-0.039839
-0.096286
-0.015921
-0.033461
-0.13551
-0.093416
0.0060837
-0.064395
-0.081298
0.039569
0.076882
0.047542
0.096654
0.12057
0.10718
0.081028
0.09187
0.14927
0.15533
0.12791
-0.028359
-0.043666
-0.015283
0.021072
0.03351
-0.061206
-0.023256
0.026494
-0.028359
0.054877
0.011824
-0.10777
-0.15178
-0.068541
-0.13806
-0.12818
-0.10553
-0.22544
-0.20854
-0.17059
-0.14476
-0.17346
-0.13456
-0.19579
-0.15879
-0.089908
-0.063439
-0.083211
-0.09246
-0.078427
0.030959
-0.032504
-0.034418
0.0099106
-0.04845
-0.097243
-0.021343
-0.073006
-0.20854
-0.10203
-0.074601
-0.091503
-0.038564
-0.11096
-0.07173
-0.15784
-0.13073
-0.11861
-0.093735
-0.12307
-0.2382
-0.28699
-0.18558
0.008635
0.028726
-0.11383
-0.031229
0.052645
0.066039
0.11993
0.10718
0.098249
0.080071
0.19392
0.057747
0.056153
0.057428
0.022029
0.014694
-0.029953
-0.047812
-0.06312
0.041483
-0.024851
-0.064714
0.044034
0.052645
-0.04558
-0.16485
-0.21875
-0.070136
-0.0864
-0.15082
-0.22066
-0.29242
-0.24362
-0.10649
-0.06312
-0.12499
-0.061206
-0.11925
-0.061206
0.12759
0.15151
0.082941
0.14864
0.22103
0.19137
0.23761
0.27971
0.20221
0.15183
0.13652
0.23283
0.16873
0.040845
0.14896
0.10271
0.085811
0.15693
0.18021
0.031596
0.0028946
0.035423
0.052007
0.0013
0.03638
-0.023894
-0.040477
-0.044942
-0.020386
0.025856
0.039569
0.016289
-0.058974
0.01597
0.017883
-0.043666
-0.042072
-0.12307
0.013419
0.032872
-0.0085862
-0.057698
-0.10936
-0.16453
-0.066947
-0.03665
-0.086081
0.01884
0.079114
0.081665
0.14098
0.13588
0.098249
0.070185
0.14927
0.10144
0.034467
0.092189
0.044353
-0.031548
-0.057379
-0.026764
-0.0089051
-0.033142
0.065401
0.023624
-0.0041214
-0.0028458
0.046904
0.064125
0.037656
0.093146
0.010867
0.032234
0.081665
-0.022937
-0.01624
0.02777
0.054558
0.027132
0.055834
0.03925
-0.022618
0.077201
0.071141
0.06572
0.042758
0.034467
0.053601
-0.024532
0.04531
0.038931
-0.054828
-0.059612
0.079752
0.042439
-0.0047593
0.12217
0.21242
0.19456
0.27365
0.20189
0.10622
0.085173
0.081028
0.13811
0.15214
0.11069
-0.0018891
-0.016878
0.040207
0.072417
0.054239
-0.066628
-0.0069916
0.050731
0.057747
0.11419
0.018202
0.0022568
0.13301
0.18467
0.11993
0.083579
0.095378
0.012143
0.032872
0.075287
-0.023575
-0.087038
-0.053234
-0.048769
-0.059293
0.040207
0.022348
-0.065352
-0.030591
-0.02804
0.041483
-0.05419
-0.058974
-0.04845
-0.089908
-0.059293
0.046266
0.08613
0.011505
0.10239
0.11164
0.11738
0.21497
0.18722
0.14481
0.08613
0.086449
0.092189
0.098568
0.093146
0.031278
-0.016878
0.025856
0.054877
0.03064
-0.053234
0.0032135
0.020116
0.08326
0.12185
0.088362
0.041164
0.044034
0.13173
0.098568
0.13684
0.16012
0.064444
-0.03665
-0.021343
0.018521
0.045629
0.10877
-0.072049
-0.073963
0.13907
0.14832
0.14609
0.0035324
-0.088633
0.026175
0.034467
0.032553
0.01023
-0.034737
-0.01911
0.085492
0.12631
0.12153
0.20158
0.23155
0.17861
0.20987
0.2054
0.14098
0.074649
0.10558
0.13205
0.13716
0.072417
0.040845
-0.039839
-0.083849
-0.077471
-0.05419
-0.095011
-0.04271
-0.026126
0.023305
0.052007
-0.023575
-0.091503
-0.035694
0.11579
-0.019748
-0.05419
-0.048131
-0.13264
-0.15592
-0.17123
-0.14859
-0.12371
-0.019748
-0.034418
-0.12786
-0.069498
-0.057379
-0.036969
-0.049088
-0.024213
0.066677
0.046585
0.034148
0.01597
-0.017516
0.081346
0.25994
0.22836
0.11005
0.23092
0.2542
0.17032
0.17925
0.18085
0.090914
0.13429
0.22677
0.058704
0.031915
0.0025757
-0.045899
-0.077152
-0.16645
-0.15688
-0.14667
-0.2044
-0.13296
-0.10872
-0.045261
0.015332
-0.013051
-0.080022
-0.064714
0.046904
0.0022568
-0.02517
0.0019378
-0.09533
-0.089908
-0.04845
-0.050044
-0.10203
0.010548
0.01023
-0.042391
0.028726
0.061574
0.049455
0.03925
0.087725
0.17861
0.10208
0.088681
0.02458
-0.021343
-0.051639
-0.0018891
-0.047493
-0.010819
0.072098
-0.0041214
0.032553
0.055196
-0.059931
-0.083849
-0.11064
-0.070455
-0.084168
-0.057698
-0.067585
-0.10011
-0.082573
-0.079065
-0.03952
-0.019429
-0.052915
0.054877
0.10941
0.13747
0.11993
0.020435
0.024899
-0.0063538
0.020754
-0.017197
0.042758
0.078157
-0.017835
-0.059612
-0.055466
-0.065352
-0.10043
-0.0063538
0.018521
-0.037607
0.0028946
0.0079971
0.035104
-0.034737
-0.085762
0.0025757
0.0016189
0.0028946
-0.063758
-0.19196
-0.1674
-0.020386
-0.050044
-0.1521
-0.052277
-0.074601
-0.085762
0.06285
0.046585
0.040526
0.035742
0.062212
0.029364
0.045629
0.090276
-0.009224
-0.047174
-0.039839
0.01597
0.032234
0.014694
0.035742
0.078157
0.12536
0.11037
0.099524
0.031915
0.026494
0.17
0.065082
-0.017516
0.037018
-0.082573
-0.06025
0.0025757
0.013419
-0.13296
0.00098112
-0.01624
-0.074282
0.0028946
-0.030591
-0.028359
-0.06599
-0.081617
-0.049726
-0.059293
-0.034099
-0.074601
-0.13679
-0.1033
-0.037607
-0.054828
-0.13392
-0.081298
-0.002208
-0.0079484
0.071779
0.042121
0.0070404
-0.027083
-0.0079484
-0.014645
0.091233
0.088362
-0.10585
-0.13456
-0.00093234
0.012781
-0.012413
-0.053871
-0.0031647
0.00098112
0.051369
0.10654
0.03925
-0.017197
-0.076833
0.069228
0.058704
0.03925
0.022029
-0.08927
-0.086081
-0.042072
-0.0073105
-0.079703
-0.027083
0.034786
0.0054459
0.079114
0.046266
0.018202
-0.0041214
0.014056
0.074968
0.039888
0.00098112
-0.080341
-0.097562
-0.10617
-0.0025269
-0.0076295
-0.11383
-0.064395
-0.043347
-0.058974
0.022986
-0.010181
-0.02517
-0.023575
0.093784
0.11069
0.072417
0.026494
0.025856
0.0060837
-0.029634
0.008635
-0.038883
0.040845
0.091233
0.082622
0.096973
0.090276
0.0131
-0.07779
-0.056104
0.01597
0.0019378
-0.049088
-0.064395
-0.10171
-0.088952
-0.086719
-0.11
-0.11574
0.0067215
0.008316
-0.0069916
0.057109
0.035742
0.057747
0.061893
0.06285
0.10239
0.054877
0.028726
-0.0060349
-0.020386
-0.040796
0.08326
0.10112
-0.022618
0.05105
0.085492
0.021391
0.053282
0.029683
2.4388e-05
-0.029315
0.10431
0.064125
0.057428
0.037656
-0.084168
-0.10075
-0.094054
-0.098838
-0.039202
-0.036969
-0.045261
-0.063439
0.01597
0.029364
0.023943
-0.06025
-0.060569
0.052645
-0.03665
-0.084487
-0.012732
-0.14093
-0.11287
-0.048131
-0.03378
-0.10203
-0.0063538
-0.024851
-0.064077
0.022986
-0.0095429
-0.010819
0.026175
0.037975
0.050731
0.048818
-0.0079484
-0.031229
-0.071411
-0.090865
0.038612
0.057109
-0.060887
0.012781
0.021072
-0.019429
0.040845
0.0070404
-0.050363
-0.049407
0.045629
0.064444
0.052645
0.029045
-0.057698
-0.040158
-0.058655
-0.044304
-0.12595
0.020435
0.059342
0.056153
0.10718
0.068909
0.0095917
-0.055147
-0.039202
0.070503
0.058066
0.029683
0.012462
-0.084806
-0.050363
-0.00029452
-0.014327
0.030321
0.15119
0.11898
0.083579
0.1464
0.12536
0.054558
0.041164
0.081984
0.096335
0.08039
0.039888
-0.02198
-0.13232
-0.1792
-0.034418
-0.047174
-0.13934
-0.094373
-0.074282
-0.096924
-0.011456
-0.019429
-0.037288
-0.03952
0.038294
-0.0089051
-0.011456
-0.049407
-0.14699
-0.04845
-0.049407
0.022029
0.070503
0.013419
-0.011775
-0.011137
0.064444
0.059661
-0.0079484
-0.067585
-0.069179
0.045947
0.031596
0.0089539
-0.038245
-0.13998
-0.11191
-0.06599
-0.074601
-0.16007
-0.043347
-0.0066727
-0.022299
0.03925
0.011824
0.0022568
0.018521
-0.0053971
0.021072
0.010548
0.020435
-0.03665
-0.09246
-0.10203
0.0054459
0.020754
-0.085443
-0.034099
0.0019378
0.0041702
0.081346
0.050412
0.014694
0.058385
0.11611
0.05679
0.091552
0.11324
-0.01624
-0.035694
-0.011137
-0.018791
-0.036331
0.0041702
-0.011456
-0.0073105
0.092508
0.13588
0.12217
-0.10011
-0.11032
0.033191
0.013419
-0.017197
-0.019748
-0.13615
-0.096605
0.0016189
0.029364
-0.058017
0.034467
0.064125
0.0044891
0.059661
0.11356
0.12855
0.096016
0.05105
0.057747
0.05105
0.084536
0.0016189
-0.0095429
-0.029634
0.033191
0.037018
-0.064395
-0.030272
-0.048131
-0.032504
0.0099106
-0.038883
-0.044942
-0.040158
-0.00093234
-0.073644
-0.083211
-0.054509
-0.12116
-0.083211
-0.087995
-0.087357
-0.067266
-0.053552
-0.047812
-0.021661
0.047223
0.055196
-0.012413
-0.055785
-0.044942
0.078795
-0.012413
-0.048769
0.012462
-0.081298
-0.079065
-0.04558
-0.092778
-0.10553
-0.0041214
-0.0034836
-0.009224
0.075287
0.052963
0.054239
0.021391
0.035423
0.040526
0.034148
0.026175
-0.014645
0.0041702
-0.036969
0.068271
0.085811
-0.020705
0.0035324
0.014056
0.036699
0.087087
0.040845
-0.01911
0.040845
0.07146
-0.032186
-0.041434
-0.02517
-0.10968
-0.11032
-0.11893
-0.082892
-0.084168
-0.054828
-0.049088
-0.071411
0.016927
0.037975
0.010867
-0.031548
-0.040158
0.061893
0.02458
0.0054459
-0.00093234
-0.082573
-0.044942
0.027451
0.03351
-0.059612
0.010867
0.0079971
0.0060837
0.072098
0.11132
0.11132
0.078795
0.074649
0.019478
-0.010819
-0.013689
-0.051001
-0.049726
-0.035375
0.029364
-0.0098618
-0.087676
-0.012094
-0.051958
0.024899
0.11132
0.044353
-0.031867
-0.053552
0.008316
-0.022937
0.02171
0.027451
-0.08066
-0.027083
-0.029634
-0.036969
-0.011456
0.0099106
-0.012094
-0.018791
0.023943
0.01884
0.023305
-0.0085862
0.014375
0.081346
0.0095917
-0.045261
-0.075238
-0.11638
-0.11861
-0.063439
-0.068541
-0.097881
-0.018153
-0.032186
-0.0864
0.011824
0.0025757
-0.013051
-0.017835
0.015332
0.01597
0.040845
0.050412
-0.0053971
-0.059293
-0.067585
0.017246
-0.011775
-0.050044
-0.009224
0.016608
0.033191
0.092189
0.055515
-0.044623
-0.076195
0.017883
-0.067903
-0.062482
-0.034099
-0.10841
-0.11446
-0.088952
-0.072049
-0.044304
0.01884
-0.0018891
-0.037926
0.017883
0.042439
0.034467
-0.012413
0.0032135
0.081665
0.027132
2.4388e-05
-0.039202
-0.12116
-0.11255
-0.04845
-0.022299
-0.11351
-0.030272
-0.032186
-0.099476
0.01597
0.0038513
-0.026445
2.4388e-05
0.017883
-0.0028458
-0.017835
0.022348
-0.0076295
0.01023
-0.034737
-0.067903
-0.048769
-0.086081
-0.043028
-0.050044
-0.013689
0.067314
0.017564
-0.049088
-0.13041
-0.089589
-0.11351
-0.11287
-0.082254
-0.17506
-0.15528
-0.14699
-0.13041
-0.14572
-0.0864
-0.069498
-0.093735
-0.013051
-0.0012513
-0.0095429
-0.078746
-0.11128
-0.017835
-0.027083
-0.044623
-0.055785
-0.13392
-0.12403
-0.029315
-0.039839
-0.12116
-0.057379
-0.060569
-0.037607
0.023943
0.004808
-0.0038025
-0.0063538
-0.012413
-0.046218
-0.061525
-0.053871
-0.069179
-0.073325
-0.088633
-0.03378
-0.0063538
-0.070136
-0.026126
-0.038883
-0.0098618
0.073055
0.061893
-0.0044404
0.016608
0.10782
0.0019378
0.017564
0.010548
-0.043985
-0.046536
-0.055147
-0.047493
-0.047174
0.029045
0.0013
-0.024851
0.051688
0.067633
0.057428
0.032234
-0.030591
0.010867
-0.058974
-0.10841
-0.070455
-0.088314
-0.097562
-0.087357
-0.041115
-0.13232
-0.083211
-0.11446
-0.16007
-0.01911
-0.01624
-0.057061
-0.075557
-0.031229
-0.079384
-0.058974
-0.024851
-0.10585
-0.14189
-0.11861
-0.060569
-0.048131
-0.13105
-0.10235
-0.06025
-0.0073105
0.03351
0.0003433
-0.052915
-0.056423
0.03351
0.00098112
-0.027083
-0.0028458
-0.10585
-0.10585
-0.054509
-0.012413
0.0057648
0.11547
0.064125
0.07433
0.15214
0.12727
0.094741
0.075925
0.032234
0.04531
0.054239
0.10176
0.060298
0.00066221
-0.034099
-0.014327
-0.043666
-0.12913
-0.034099
-0.046536
-0.14763
0.040845
-0.0089051
-0.027402
-0.061844
-0.061844
-0.12052
-0.080341
-0.053871
-0.06599
-0.08353
-0.097881
-0.035056
-0.020386
-0.035694
-0.042072
-0.020705
0.069228
0.11993
0.090276
-0.011775
-0.069498
0.03638
-0.021661
-0.041115
-0.041434
-0.10553
-0.11574
-0.10235
-0.098838
-0.14412
-0.10203
-0.14061
-0.11064
0.033829
0.032553
0.020435
-0.036012
-0.041434
0.079433
0.082941
0.02458
-0.036331
-0.074601
-0.057379
0.046585
0.021391
-0.0864
-0.030591
0.048818
-0.026126
0.073055
0.012781
-0.047812
-0.056742
-0.00029452
-0.067266
-0.035375
-0.04271
-0.10936
-0.11925
-0.10394
-0.05419
-0.015283
-0.014327
0.0076782
-0.014964
0.029683
0.072417
0.048818
0.0054459
0.017246
0.11388
0.025218
0.052963
0.035742
-0.041434
-0.052596
-0.023256
-0.021661
-0.06886
-0.0025269
0.017246
0.0044891
0.063806
0.077201
0.083579
0.060936
0.052326
0.081665
0.096654
0.029364
-0.03091
-0.029953
-0.051639
0.044991
0.03925
-0.068222
0.011824
0.022348
-0.015921
0.045947
-0.033461
-0.07779
-0.049407
-0.040796
-0.085443
-0.041753
-0.06312
-0.13009
-0.17027
-0.17697
-0.132
-0.11415
-0.15305
-0.11446
-0.077152
-0.044623
-0.044942
-0.023575
-0.06025
-0.016559
0.077201
-0.0015702
-0.0098618
0.02171
-0.032504
-0.029634
-0.0018891
0.031915
-0.032504
0.093784
0.08613
0.033829
0.11388
0.10973
0.081028
0.047223
0.03064
0.086449
0.082303
0.08326
-0.002208
-0.11096
2.4388e-05
0.069547
0.01597
-0.065352
0.046904
0.049137
0.021072
0.079433
0.075925
0.028088
0.032234
0.094103
0.069228
0.090914
0.088681
0.043396
0.081346
0.098568
0.13046
0.052326
0.061574
0.11101
0.12408
0.14321
0.17064
0.12823
-0.00061343
0.013419
0.12982
0.050412
0.0079971
-0.0066727
-0.091503
-0.079703
-0.024851
-0.0028458
-0.036969
0.050731
0.030002
0.0054459
0.059342
0.052963
0.055834
0.033829
0.055196
0.092827
0.069547
0.019478
-0.021024
-0.049407
-0.042072
0.028726
0.013738
-0.058336
0.03638
0.060617
0.042439
0.1059
0.087087
0.042121
0.0079971
0.077838
0.046904
0.035742
0.054877
0.0041702
0.027132
0.016289
0.027451
0.041164
0.10526
0.1126
0.13747
0.20508
0.21369
0.18435
0.13046
0.13301
0.20317
0.15597
0.09506
0.084536
-0.014964
-0.016559
0.039888
0.081984
-0.029634
0.029364
-0.00061343
-0.064395
-0.010819
0.026813
0.041164
0.039569
-0.0063538
-0.016878
-0.061206
-0.0095429
-0.032186
-0.1151
-0.10553
-0.012732
0.020754
-0.079384
-0.018153
0.058704
0.00098112
0.056153
0.018521
0.024899
0.026813
0.05105
0.026494
0.057109
0.06285
-0.056104
-0.038245
-0.03378
0.026175
-0.0063538
-0.033461
-0.035694
-0.0085862
0.034148
0.092827
0.046904
-0.012094
-0.00093234
0.096654
0.071141
0.036699
0.059023
-0.012094
-0.012094
0.028726
-0.026126
-0.10968
0.12536
0.13078
0.10335
0.13811
0.069228
0.044672
-0.0066727
-0.02198
0.046266
-0.022299
-0.08927
-0.12499
-0.12882
-0.11893
-0.076833
-0.040477
-0.12244
-0.040796
-0.045261
-0.037926
0.022986
0.018202
-0.021024
0.036699
0.14577
0.042758
0.017564
0.074649
0.039569
0.011824
0.032553
0.070822
0.0044891
-0.0082673
0.034786
-0.03378
0.14034
0.15183
0.08039
0.0044891
-0.089908
0.022348
0.0041702
-0.032186
0.034786
-0.14093
-0.078746
-0.033142
0.026813
-0.037288
0.061255
0.0076782
0.012462
0.14736
0.1665
-0.01337
-0.010819
0.026175
0.063487
0.064444
0.034467
0.032553
-0.02517
-0.053552
-0.026126
0.061893
-0.073325
-0.028359
-0.0031647
0.013419
0.14098
0.22007
0.1059
0.019159
0.079433
0.032872
0.028407
0.021391
-0.036012
0.017564
-0.060569
-0.0864
-0.0053971
0.039888
-0.059612
-0.055466
0.048818
0.0041702
-0.0047593
-0.058974
-0.051958
0.090914
0.042439
-0.014645
-0.041753
-0.15943
-0.13392
-0.028359
-0.067585
-0.11032
-0.018153
-0.12626
-0.15273
-0.0085862
-0.0105
-0.053871
-0.12371
-0.15114
-0.067903
-0.04845
-0.085443
-0.055785
-0.11191
-0.11606
-0.044304
-0.027721
-0.058336
0.08326
0.10782
0.06285
0.15342
0.14034
0.11132
0.059023
0.17734
0.13716
0.11356
0.10463
0.081665
0.076882
0.0035324
-0.013051
0.029364
0.039569
0.074649
0.060298
0.13078
0.12759
0.098568
-0.026445
-0.005716
0.090595
0.059979
0.018202
0.0079971
-0.072049
-0.04271
-0.051639
-0.10011
-0.098838
0.019797
-0.009224
-0.11032
0.028088
0.05392
0.049137
0.022667
-0.036969
0.0025757
-0.0031647
-0.054509
-0.067266
-0.034418
-0.074601
0.0028946
-0.005716
-0.10649
-0.073325
-0.050363
0.035423
0.074649
0.0022568
-0.06886
0.011186
0.074012
-0.0063538
-0.03952
-0.046855
-0.024851
-0.01911
-0.040477
-0.039202
-0.037926
-0.046218
-0.019429
-0.018791
0.07433
0.10208
0.012462
0.035742
0.076563
0.11643
-0.020386
-0.0063538
0.050412
-0.040796
-0.052915
0.049137
0.089957
-0.005716
0.089957
0.069547
0.037656
0.14736
0.13811
0.061255
0.040526
0.067952
0.090276
0.079433
0.065401
0.01884
-0.11383
-0.094373
-0.031548
0.024899
-0.072687
-0.042391
-0.034099
-0.032186
0.044353
-0.0082673
-0.066947
-0.067266
0.022986
-0.038564
-0.028678
-0.00061343
-0.069498
-0.062482
-0.053552
-0.044942
-0.03665
0.0092728
0.037975
-0.014008
0.089319
0.092827
0.064444
0.0092728
0.034148
0.13875
0.069547
0.0099106
-0.027402
-0.10235
-0.067266
0.081028
0.052963
-0.093735
-0.04558
-0.010181
0.0028946
0.028407
-0.14891
-0.13073
-0.051639
-0.022299
-0.089908
-0.096924
-0.16071
-0.16326
-0.17442
-0.10649
-0.0105
-0.04845
-0.20759
-0.14221
-0.020705
0.058385
0.16012
0.093146
0.036061
0.047542
0.056153
0.045629
0.12663
0.083898
-0.053552
-0.009224
0.035742
0.026175
0.012781
0.064125
0.041802
0.031915
0.12759
0.12185
0.070822
0.025856
0.055515
0.10176
0.040526
0.033191
0.044672
-0.064714
-0.057061
0.0032135
0.0022568
-0.084487
0.028726
0.022029
-0.014008
0.047542
0.022348
0.022348
0.0089539
0.048818
0.043077
0.024899
0.0099106
-0.040158
-0.059293
-0.060887
0.052007
0.054239
-0.056423
-0.062163
-0.005716
0.044991
0.11579
0.076244
0.0060837
-0.03952
0.037975
-0.032823
-0.026126
-0.083849
-0.11797
-0.050044
-0.090865
-0.1033
-0.169
-0.085443
-0.038564
-0.0066727
0.054558
0.049455
-0.014645
-0.040796
-0.060887
0.0025757
-0.0073105
0.025218
0.0060837
-0.073644
-0.15114
-0.0076295
0.028407
-0.18526
-0.086081
-0.031867
-0.046536
0.023943
0.048499
0.027132
0.0041702
-0.01911
-0.009224
0.00098112
-0.023256
-0.0050782
-0.016878
-0.033142
0.02777
0.052963
-0.027083
0.011824
0.03064
0.055515
0.12918
0.079114
0.026175
0.024262
0.11706
0.05105
0.039888
0.049455
-0.039202
-0.033142
-0.018791
0.0038513
-0.030272
0.031915
0.037337
0.0095917
0.048499
0.055515
0.053601
0.0003433
-0.0041214
0.078795
0.045947
0.0067215
0.0092728
-0.04845
-0.057698
-0.013689
-0.026126
-0.091822
0.022667
0.038612
0.014375
0.072736
0.031278
-0.0041214
-0.054828
0.0038513
-0.024532
0.0013
-0.0082673
-0.07779
-0.11096
-0.12563
-0.043347
-0.044942
-0.11606
-0.040796
-0.03378
-0.058655
-0.024213
0.068909
-0.005716
0.0092728
0.10431
-0.026126
-0.039839
-0.038883
-0.063758
-0.011137
-0.0038025
-0.0028458
-0.015283
0.023624
0.02458
-0.0031647
0.10782
0.099205
0.07433
0.021391
2.4388e-05
0.059023
0.026494
0.0099106
-0.036969
-0.095011
-0.08353
-0.031229
-0.009224
-0.12371
-0.019429
-0.013689
-0.034099
0.040845
0.016608
-0.0095429
-0.015283
0.0022568
-0.01911
0.023943
0.029364
-0.038245
-0.056423
-0.088633
-0.049088
-0.013051
-0.1049
-0.037288
-0.02804
0.020754
0.069866
0.0041702
-0.028996
-0.016878
0.049774
0.0067215
-0.0050782
0.010867
-0.048769
-0.025488
-0.014008
0.004808
0.0079971
0.06859
0.048818
0.025856
0.11164
0.070185
0.055515
0.021391
-0.0050782
0.040845
0.038931
-0.0038025
-0.03091
-0.091822
-0.10872
-0.048769
-0.087038
-0.14253
-0.036012
-0.01337
-0.043028
0.03351
-0.0073105
-0.017516
-0.037288
0.017246
-0.014327
0.0060837
0.021391
-0.080979
-0.094054
-0.072049
0.014694
0.033829
-0.049088
-0.031548
-0.029953
0.023624
0.076244
0.038931
-0.035694
-0.040158
0.014375
-0.029315
-0.05132
-0.017197
-0.093416
-0.11542
-0.081617
-0.076514
-0.14125
-0.042391
-0.035056
-0.04271
0.059342
0.032872
0.018521
-0.064714
-0.032823
0.055834
0.046266
0.036699
-0.0089051
-0.068541
-0.045899
0.015013
0.035104
-0.03665
0.046585
0.058704
0.012781
0.11483
0.1177
0.064763
0.052326
0.10271
0.0079971
0.032234
0.059342
-0.0050782
-0.0063538
-0.026126
-0.023894
0.0089539
0.0044891
0.014375
0.012143
0.088044
0.12791
0.067314
0.0019378
0.011505
0.15214
0.074012
-0.014964
0.0032135
-0.055785
-0.032504
-0.002208
-0.012094
-0.10075
0.0016189
-0.035056
-0.055785
0.038931
0.019797
-0.033142
-0.070136
-0.052915
0.0003433
-0.027083
-0.056423
-0.069498
-0.1218
-0.12882
-0.050044
-0.032823
-0.10713
-0.023894
-0.0089051
-0.022618
0.059661
0.042758
0.0079971
-0.00061343
0.044672
0.011505
0.015332
0.028088
-0.047174
-0.063758
-0.062482
-0.031229
-0.026764
-0.04271
0.012143
-0.00061343
0.0054459
0.059979
0.058704
-0.024851
-0.064714
0.047542
0.00098112
-0.034418
-0.018472
-0.094373
-0.095968
-0.064395
-0.055147
-0.097881
0.0095917
-0.0069916
-0.052596
0.039569
0.043715
0.027451
0.0076782
0.012143
0.035742
0.032234
0.023624
-0.0085862
-0.048769
-0.042391
0.030959
0.03064
-0.050682
0.014694
0.0060837
-0.014964
0.1244
0.08613
-0.0028458
-0.0095429
0.018202
-0.03378
-0.028359
-0.020705
-0.065033
-0.060569
-0.053871
-0.033142
-0.070774
-0.060569
-0.012413
-0.02804
0.046904
0.078795
0.073374
0.0051269
-0.0041214
0.061893
0.038294
0.033829
0.034786
-0.043666
-0.052915
-0.021661
-0.021661
-0.061206
0.032553
0.015013
-0.024213
0.067952
0.03351
0.029364
0.012781
0.0013
0.042758
0.021391
0.0044891
-0.05132
-0.094373
-0.049407
0.034148
0.0032135
-0.069179
-0.0047593
0.028407
0.012781
0.077201
0.072098
0.028726
0.0044891
0.072736
0.0054459
0.012462
0.02458
-0.042072
-0.042391
-0.062163
-0.038245
-0.020386
-0.033142
-0.0095429
-0.016559
-0.011456
0.03351
0.020754
-0.038245
-0.04558
0.044991
-0.0073105
-0.034099
-0.014327
-0.080341
-0.072049
-0.026445
-0.020386
-0.076195
0.022029
0.026175
0.0057648
0.11451
0.087406
0.03925
0.043077
0.056153
0.074968
0.057109
0.055196
0.0025757
-0.06312
-0.097881
-0.00093234
0.010548
-0.059293
-0.018472
0.024899
0.018202
0.099524
0.017564
0.0099106
0.017883
0.056153
-0.023894
-0.0098618
0.041164
-0.059931
-0.10298
-0.084806
-0.043666
-0.044942
-0.046218
-0.037288
-0.051958
0.016289
0.041483
0.012781
-0.051639
-0.056104
0.051369
0.022667
-0.011137
-0.0085862
-0.083849
-0.067266
-0.0034836
-0.010181
-0.081935
0.028088
0.011824
-0.034737
0.053601
0.049455
0.05392
0.011505
0.0028946
0.035104
0.017564
0.01884
-0.0082673
-0.056423
-0.064395
0.011824
0.035104
-0.058655
0.0028946
0.034148
0.034467
0.099843
0.059661
0.0022568
0.0028946
0.082303
2.4388e-05
0.0067215
0.015013
-0.061206
-0.098838
-0.079065
-0.034418
-0.027721
-0.020705
-0.018791
-0.053552
0.0051269
0.039888
0.022348
-0.042072
-0.056104
0.06859
0.01597
-0.055785
-0.030591
-0.08066
-0.089589
-0.035375
-0.014964
-0.11733
0.019478
-0.012094
-0.023894
0.069228
0.059661
0.042121
0.020116
0.019797
0.022348
0.032553
0.019159
-0.015283
-0.053234
-0.069817
0.010867
0.042439
-0.029315
0.026494
0.04531
0.042758
0.13333
0.078795
0.023943
0.017564
0.076244
0.015651
0.034786
0.059342
-0.021343
-0.035694
-0.071411
-0.047812
-0.036331
-0.015283
-0.0073105
-0.032186
0.038294
0.057747
0.03351
-0.022618
-0.032186
0.063169
0.022029
-0.01624
-0.010181
-0.073325
-0.067903
-0.014645
-0.03952
-0.07779
0.012781
-0.009224
-0.025488
0.066039
0.04531
0.019797
0.0044891
0.010867
0.008635
-0.011775
0.0032135
-0.051639
-0.08927
-0.082892
-0.010819
-0.0076295
-0.084806
-0.037607
-0.022937
-0.012413
0.069547
0.029045
-0.05132
-0.046218
0.049137
-0.023256
-0.034099
-0.0025269
-0.071093
-0.079065
-0.070455
-0.060887
-0.040796
-0.015921
-0.016878
-0.039839
0.050731
0.06859
0.044034
-0.016559
-0.021343
0.071141
0.040526
0.0070404
-0.020067
-0.1269
-0.10171
-0.020067
-0.019748
-0.1403
-0.027721
-0.002208
-0.049407
0.031915
0.0067215
-0.028996
0.00098112
0.058704
0.012781
-0.0079484
-0.0050782
-0.026126
-0.059293
-0.043985
0.03351
0.061255
-0.0063538
0.032234
0.029364
0.037975
0.12567
0.087406
0.020116
0.0099106
0.099524
0.031278
0.034467
0.044991
-0.042391
-0.050682
-0.054509
-0.035375
-0.032823
0.0025757
0.025537
-0.013689
0.050731
0.06859
0.051369
-0.013051
-0.015921
0.06572
0.029045
-0.012413
-0.013689
-0.083849
-0.081617
0.0016189
-0.013051
-0.10171
-0.0076295
-0.0098618
-0.043985
0.044672
0.035104
0.017564
-0.0012513
0.0041702
-0.032186
-0.021343
0.0025757
-0.054828
-0.10075
-0.11446
-0.051639
-0.049088
-0.11542
-0.044304
-0.018153
-0.0085862
0.049137
0.022029
-0.033461
-0.039839
0.094741
0.011186
-0.031229
0.0054459
-0.070455
-0.081298
-0.051001
-0.034099
-0.04558
-0.0063538
-0.017197
-0.046855
0.035742
0.041164
0.028088
-0.032186
-0.048769
0.054239
0.022667
-0.00029452
0.0025757
-0.059612
-0.059293
0.016608
0.030321
-0.062801
0.03638
0.036699
0.02171
0.087725
0.061255
0.058066
0.022348
0.052326
0.008635
0.0019378
0.0054459
-0.073006
-0.089908
-0.090227
-0.028359
-0.024532
-0.10362
-0.038564
-0.018791
0.0022568
0.062531
-0.0098618
-0.054509
-0.04271
0.068271
-0.017197
-0.014645
0.0092728
-0.071093
-0.080022
-0.053234
-0.078109
-0.10841
-0.013051
-0.024213
-0.045899
0.051369
0.034467
0.042439
0.0019378
-0.051001
0.037656
0.029683
0.011824
0.004808
-0.084487
-0.076195
0.018202
0.019797
-0.068222
0.023305
0.027451
-0.0015702
0.078476
0.052963
0.03351
0.018521
0.038931
-0.00029452
0.0092728
0.026175
-0.032823
-0.050682
-0.06312
-0.016559
0.0041702
-0.044304
0.0025757
0.0092728
0.056471
0.10941
0.05392
-0.010181
-0.0063538
0.091233
0.028088
-0.0105
0.0067215
-0.072049
-0.043028
-0.038245
-0.054828
-0.084168
-0.0015702
-0.0038025
-0.043666
0.038931
0.037018
0.016608
-0.027083
-0.020067
0.051369
0.026175
0.0051269
-0.017835
-0.085125
-0.08353
0.008316
-0.0098618
-0.10585
-0.0031647
0.018202
0.0025757
0.081028
-0.002208
0.023624
0.021072
0.032872
-0.031229
-0.019748
-0.035056
-0.090865
-0.074919
-0.073006
-0.046855
-0.035056
-0.10235
-0.038245
-0.025488
0.0057648
0.049774
0.04531
-0.014008
-0.032823
0.066039
0.018521
0.0041702
0.03064
-0.043028
-0.029953
-0.0105
0.0054459
-0.024532
0.038294
0.041483
-0.0044404
0.096973
0.10176
0.076563
0.012781
0.012781
0.086768
0.050093
0.039569
0.010548
-0.056104
-0.050363
0.032872
-0.033461
-0.085443
0.012781
0.004808
-0.011775
0.067314
0.028726
-0.014327
-0.011456
0.04531
-0.014964
-0.0034836
-0.0105
-0.050682
-0.052915
-0.076833
-0.019748
-0.0060349
-0.067585
-0.040477
-0.032186
0.029045
0.066995
0.035742
-0.046218
-0.047174
0.043715
-0.020705
-0.0050782
0.0016189
-0.090227
-0.094054
-0.059293
-0.027402
-0.061844
0.02777
0.030321
-0.0050782
0.078795
0.062531
0.032234
-0.0073105
-0.009224
0.04818
0.018202
-0.0012513
-0.031548
-0.12913
-0.10553
-0.0044404
-0.00093234
-0.1151
-0.028996
-0.017835
-0.027721
0.053282
0.044991
0.024262
-0.0053971
0.049774
0.0038513
0.025537
0.032234
-0.044623
-0.048769
-0.055785
-0.015602
0.02458
-0.04845
0.0057648
0.0032135
0.034786
0.079114
0.046266
-0.038883
-0.054828
0.058066
-0.0028458
-0.034737
-0.033142
-0.12435
-0.072687
-0.028359
-0.027721
-0.084806
0.01023
-0.0079484
-0.017197
0.055515
0.056153
0.059023
0.03638
-0.0041214
0.064125
0.055196
0.029364
0.0041702
-0.058655
-0.052915
0.022029
0.02458
-0.04271
0.032234
0.023624
0.0022568
0.098886
0.092189
0.037018
0.01597
0.072736
0.030002
0.047223
0.042439
-0.023575
-0.021024
-0.05419
-0.044942
-0.012413
-0.052277
-0.033142
-0.076514
-0.012094
0.066039
-0.0038025
-0.087357
-0.10139
-0.0047593
-0.038245
-0.072368
-0.037926
-0.13615
-0.092778
-0.023575
-0.042391
-0.11223
0.044034
0.045947
-0.011137
0.083579
0.090914
0.08613
0.067952
0.057747
0.10622
0.018202
0.0060837
-0.015921
-0.058336
-0.067903
0.012781
0.0013
-0.10075
-0.014964
-0.028996
-0.055466
0.063487
0.026494
-0.017835
-0.025488
0.047542
-0.019429
-0.032823
-0.021343
-0.10553
-0.052915
-0.08353
-0.025488
-0.050682
-0.077152
-0.026126
-0.015602
0.033829
0.066677
0.028726
-0.013689
-0.0082673
0.085492
-0.0073105
-0.013051
0.043396
-0.028996
-0.041753
-0.0069916
0.012462
-0.045261
0.071779
0.072098
0.01023
0.090914
0.096016
0.046585
0.012462
0.023624
0.087725
0.078157
0.086768
-0.0066727
-0.078746
-0.085125
0.029045
-0.020705
-0.078109
0.011186
0.021391
-0.0073105
0.068271
0.0028946
-0.0085862
-0.030272
0.024262
-0.053234
-0.050044
-0.053234
-0.13934
-0.11957
-0.17474
-0.12882
-0.14572
-0.16995
-0.13551
-0.17378
-0.1505
-0.12212
-0.10777
-0.15018
-0.16262
-0.038883
-0.087038
-0.1151
-0.11383
-0.16772
-0.12945
-0.067266
-0.065352
-0.13169
0.02458
0.021072
-0.026764
0.081028
0.042439
0.05679
0.07433
0.068271
0.085492
0.040526
0.06572
0.022667
-0.044942
0.0041702
0.13779
0.067314
-0.026764
0.097292
0.13939
0.12185
0.18404
0.15788
0.090914
0.10782
0.13843
0.081346
0.11802
0.11228
0.025537
0.063487
0.029045
-0.046536
-0.0089051
0.028726
0.022667
-0.030591
0.044672
0.055515
0.096016
-0.034418
-0.11797
0.06859
0.022029
-0.011137
-0.074282
-0.16645
-0.16071
-0.084168
-0.12435
-0.17665
-0.050044
-0.058336
-0.070455
-0.056423
-0.011137
-0.0076295
-0.092778
-0.11574
-0.095011
-0.065671
-0.028678
-0.070774
-0.081935
-0.074601
0.037656
0.03351
-0.067903
-0.049088
-0.050044
-0.069817
0.044353
0.025537
-0.0095429
-0.087357
-0.014645
-0.10872
-0.061525
-0.014645
-0.11383
-0.1403
-0.11287
-0.025488
-0.012094
0.028726
0.062212
0.11388
0.15246
0.20508
0.18627
0.13333
0.15884
0.2947
0.26025
0.21848
0.21274
0.12918
0.058385
0.10622
0.15087
0.01023
0.14481
0.11898
0.042758
0.081028
0.043396
0.046266
0.040207
0.011824
-0.040158
-0.074601
-0.083211
-0.12722
-0.16645
-0.1926
-0.18686
-0.15879
-0.19324
-0.14221
-0.068222
-0.069498
-0.035056
-0.063758
-0.040796
-0.0095429
0.058704
-0.062482
0.0019378
0.055834
-0.013051
-0.0073105
0.050731
0.083898
0.03638
0.10016
0.12057
0.10303
0.14353
0.13652
0.12121
0.041164
0.0070404
0.1075
0.08326
0.033191
0.040526
-0.070136
-0.086081
-0.071411
-0.080341
-0.15305
-0.079384
-0.058336
-0.096286
-0.060569
-0.082892
-0.082254
-0.09533
-0.070774
-0.10171
-0.10203
-0.13774
-0.21747
-0.27775
-0.22321
-0.08927
-0.13934
-0.16804
-0.11159
-0.11925
-0.080341
0.0003433
0.031915
-0.08353
-0.067266
0.081346
0.089638
0.075925
0.092189
0.0013
0.028407
0.069866
0.087406
0.063487
0.10303
0.084217
0.059661
0.15597
0.15119
0.10463
0.046904
0.031596
0.13971
0.09187
0.056471
0.046904
-0.030591
0.0032135
0.068271
0.054877
-0.0089051
0.10813
0.13684
0.11419
0.13301
0.074012
0.13014
0.10112
0.12599
0.014375
0.019478
0.028088
-0.0034836
0.022029
-0.057379
0.0038513
0.015332
-0.081617
-0.029634
-0.02198
0.02777
0.043396
-0.16549
-0.21652
-0.14795
-0.10553
-0.22162
-0.22927
-0.22608
-0.20982
-0.16517
-0.15592
-0.18526
-0.17219
-0.14604
-0.08927
-0.058974
0.1362
0.24048
0.15023
0.010548
0.055196
0.21178
0.19647
0.17511
0.1346
-0.010181
-0.067903
-0.036969
-0.0044404
0.024899
0.022348
-0.060569
-0.15337
-0.067266
-0.060887
-0.086081
-0.14795
-0.14157
-0.12084
-0.096605
-0.059612
-0.10043
-0.18335
-0.19706
-0.080341
-0.024213
-0.03091
0.050412
0.080709
0.11962
0.17351
0.16745
0.10718
0.14034
