-0.020386
-0.021024
0.0067215
0.0057648
0.037018
0.023624
-0.016559
-0.016559
-0.024851
0.0064026
-0.0015702
-0.013689
-0.043666
-0.053234
-0.040158
-0.02517
0.016608
-0.012413
-0.017835
0.0067215
0.021072
0.039888
0.020116
-0.013689
-0.029315
0.004808
0.018521
-0.011137
-0.016559
-0.05132
-0.043028
-0.010819
-0.011137
0.011824
-0.005716
-0.00093234
0.0035324
0.034786
0.039888
0.014056
0.0032135
-0.034737
0.0073593
0.022029
-0.0069916
-0.022299
-0.050044
-0.038564
-0.0047593
0.016927
-0.011137
-0.012094
0.015332
0.013738
0.045629
0.031915
-0.0060349
-0.0076295
-0.017835
0.012781
0.0044891
-0.0073105
-0.038245
-0.04558
-0.031229
-0.017197
0.025218
-0.002208
-0.009224
0.014375
0.027132
0.050412
0.028726
-0.0047593
-0.022618
0.015013
0.030959
0.0003433
-0.0095429
-0.047493
-0.036969
-0.0031647
-0.0015702
0.016289
0.0019378
0.0073593
0.01023
0.041802
0.047223
0.021072
0.011824
-0.028359
0.012143
0.02777
-0.002208
-0.019429
-0.047493
-0.035694
-0.00029452
0.014694
-0.009224
-0.0089051
0.017883
0.015651
0.047223
0.033829
-0.0034836
-0.005716
-0.017197
0.015332
0.0079971
-0.002208
-0.033142
-0.044304
-0.030591
-0.014964
0.025218
-0.0041214
-0.012094
0.0131
0.029045
0.050412
0.028088
-0.0066727
-0.020705
0.0131
0.028088
-0.0034836
-0.012413
-0.047812
-0.038564
-0.005716
-0.0034836
0.017246
-0.0012513
0.0041702
0.0070404
0.035742
0.041164
0.014694
0.0038513
-0.032823
0.008635
0.022348
-0.0066727
-0.023575
-0.050044
-0.03952
-0.0034836
0.011505
-0.011775
-0.010819
0.016608
0.015013
0.047223
0.035423
-0.0031647
-0.0050782
-0.01624
0.014375
0.010548
-0.005716
-0.036331
-0.046218
-0.033142
-0.018791
0.021072
-0.0089051
-0.013689
0.0089539
0.023624
0.046585
0.026813
-0.0098618
-0.022937
0.012143
0.028726
2.4388e-05
-0.0089051
-0.040796
-0.031548
0.0013
0.0038513
0.028407
0.0060837
0.012462
0.016608
0.044353
0.050412
0.022348
0.0079971
-0.031229
0.01023
0.022348
-0.0079484
-0.027083
-0.058655
-0.043985
-0.0095429
0.0067215
-0.015921
-0.017516
0.0079971
0.0070404
0.040845
0.030002
-0.0047593
-0.0073105
-0.019429
0.014375
0.012462
-0.0012513
-0.032186
-0.043028
-0.032504
-0.014008
0.026175
-0.0028458
-0.0076295
0.016289
0.030002
0.053282
0.031278
-0.0038025
-0.01911
0.013419
0.031915
0.00066221
-0.0066727
-0.042391
-0.031229
-0.0018891
-0.0018891
0.020116
0.0073593
0.0092728
0.014375
0.040845
0.048818
0.022029
0.0070404
-0.03091
0.011505
0.023943
-0.0047593
-0.021024
-0.051001
-0.038883
-0.0034836
0.0076782
-0.011456
-0.010819
0.014375
0.012781
0.043077
0.032872
-0.002208
-0.0041214
-0.018153
0.014694
0.011824
2.4388e-05
-0.03091
-0.044304
-0.033461
-0.014964
0.023624
-0.005716
-0.011775
0.013419
0.02777
0.052963
0.030002
-0.0076295
-0.018472
0.012462
0.031278
0.0016189
-0.0079484
-0.043028
-0.034737
-0.0028458
0.00098112
0.025218
-0.0012513
0.0035324
0.0131
0.038612
0.044672
0.019159
0.0032135
-0.035056
0.0067215
0.02171
-0.0079484
-0.023894
-0.053234
-0.040477
-0.0031647
0.014694
-0.0095429
-0.012094
0.015013
0.014694
0.046585
0.037656
0.0032135
0.0013
-0.015921
0.01884
0.018202
0.0038513
-0.026126
-0.037607
-0.025488
-0.0089051
0.032872
0.0032135
-0.0028458
0.02171
0.034467
0.05679
0.035104
-0.0018891
-0.014008
0.017246
0.032234
0.0025757
-0.0044404
-0.040796
-0.035694
-0.005716
-0.0038025
0.020754
0.0003433
0.00098112
0.0051269
0.034148
0.043077
0.016608
0.0016189
-0.035056
0.0073593
0.020435
-0.0082673
-0.023256
-0.050363
-0.035694
0.0003433
0.01023
-0.0066727
-0.0076295
0.018521
0.017883
0.050731
0.038931
0.0028946
0.0028946
-0.014327
0.015332
0.0095917
-0.002208
-0.028678
-0.04271
-0.033461
-0.01624
0.024262
-0.0066727
-0.011456
0.013419
0.025537
0.046904
0.027451
-0.011456
-0.022618
0.0060837
0.022348
-0.0073105
-0.015602
-0.049088
-0.040158
-0.014008
-0.011456
0.013419
-0.005716
-0.0034836
0.0044891
0.030959
0.043077
0.016608
0.004808
-0.032504
0.01023
0.026494
-0.0066727
-0.020386
-0.046855
-0.03665
0.0016189
0.014694
-0.0066727
-0.0079484
0.017883
0.014375
0.049455
0.037656
0.0032135
2.4388e-05
-0.017835
0.017246
0.01597
-0.00029452
-0.02804
-0.043028
-0.031867
-0.011775
0.026813
-0.0038025
-0.0076295
0.017564
0.02777
0.050731
0.030321
-0.0105
-0.019429
0.0092728
0.026494
-0.002208
-0.0098618
-0.045899
-0.038564
-0.012094
-0.009224
0.020754
0.0022568
0.0016189
0.010867
0.037656
0.048818
0.023305
0.0092728
-0.026445
0.018521
0.031278
0.0019378
-0.013689
-0.043666
-0.029953
0.0067215
0.017883
0.0013
-0.00093234
0.023624
0.021391
0.055196
0.041802
0.0067215
0.0041702
-0.014645
0.018202
0.017564
0.0022568
-0.026126
-0.041753
-0.029315
-0.0085862
0.029045
-0.0031647
-0.0069916
0.022348
0.031596
0.054239
0.037975
-0.002208
-0.01337
0.018521
0.035423
0.0095917
0.0003433
-0.034737
-0.027402
-0.002208
0.0022568
0.033829
0.012143
0.012143
0.019797
0.046904
0.057428
0.03064
0.014375
-0.021024
0.021391
0.035742
0.004808
-0.011456
-0.041115
-0.028996
0.0070404
0.019478
-0.0015702
-0.0063538
0.019478
0.013419
0.046266
0.03638
0.0019378
-0.0028458
-0.021661
0.011505
0.0131
-0.0044404
-0.032823
-0.047812
-0.034737
-0.01337
0.025537
-0.0031647
-0.0066727
0.019159
0.028726
0.054239
0.035104
-0.0031647
-0.012094
0.015332
0.031278
0.008635
-0.0018891
-0.037926
-0.031548
-0.0034836
-0.0031647
0.027132
0.0095917
0.008635
0.015651
0.041483
0.052326
0.028407
0.0092728
-0.026126
0.017883
0.030002
-0.00093234
-0.01624
-0.046536
-0.034099
0.00098112
0.0095917
-0.0034836
-0.0050782
0.020116
0.010867
0.04531
0.035104
0.00098112
-0.0050782
-0.026126
0.0099106
0.011824
-0.0044404
-0.031548
-0.046855
-0.039202
-0.017835
0.021072
-0.0076295
-0.012094
0.01597
0.025218
0.049137
0.029683
-0.0095429
-0.017197
0.0092728
0.028407
0.0016189
-0.0076295
-0.040796
-0.036969
-0.012094
-0.0085862
0.023943
0.0003433
-0.0012513
0.0089539
0.03638
0.047542
0.01884
0.0022568
-0.035056
0.0076782
0.023624
-0.010181
-0.024532
-0.052915
-0.040477
-0.0044404
0.0079971
-0.012094
-0.015921
0.0131
0.011186
0.041483
0.032553
-0.0012513
-0.005716
-0.027402
0.0067215
0.0099106
-0.0060349
-0.033142
-0.050044
-0.041753
-0.020705
0.018521
-0.011456
-0.01624
0.012781
0.020116
0.044353
0.027132
-0.012094
-0.021343
0.0041702
0.022667
-0.002208
-0.0098618
-0.044304
-0.03952
-0.013051
-0.010819
0.02171
0.0013
-0.00093234
0.0092728
0.034786
0.047223
0.020435
0.0003433
-0.032823
0.0095917
0.022986
-0.0098618
-0.024213
-0.056742
-0.043985
-0.0073105
2.4388e-05
-0.015602
-0.019748
0.0038513
-0.00029452
0.032234
0.02458
-0.010819
-0.01337
-0.037926
-0.0034836
-0.00093234
-0.018153
-0.044304
-0.062801
-0.051958
-0.029634
0.0076782
-0.024213
-0.027721
-0.0025269
0.0054459
0.028407
0.010867
-0.030591
-0.038883
-0.016878
0.0016189
-0.025807
-0.032504
-0.069817
-0.065033
-0.041115
-0.035375
-0.0034836
-0.025488
-0.026764
-0.015283
0.01023
0.023624
2.4388e-05
-0.017835
-0.051958
-0.0053971
0.0067215
-0.024213
-0.037607
-0.065671
-0.053871
-0.017835
-0.0073105
-0.020386
-0.028678
-0.0050782
-0.0073105
0.023943
0.018521
-0.015921
-0.020705
-0.048769
-0.011775
-0.0105
-0.02517
-0.049726
-0.070455
-0.059293
-0.034737
-0.00029452
-0.031867
-0.030591
-0.0038025
0.0057648
0.031278
0.015013
-0.026126
-0.033461
-0.0082673
0.010867
-0.01337
-0.020386
-0.05419
-0.05132
-0.024851
-0.022618
0.011824
-0.009224
-0.013051
-0.0018891
0.022029
0.035423
0.0099106
-0.011456
-0.04558
-0.002208
0.011505
-0.02198
-0.036012
-0.067903
-0.055466
-0.01911
-0.013689
-0.026126
-0.031867
-0.010819
-0.012094
0.021391
0.010867
-0.022937
-0.028678
-0.054828
-0.016878
-0.011775
-0.032504
-0.058017
-0.074282
-0.061206
-0.039202
-0.0044404
-0.030591
-0.031229
-0.002208
0.0051269
0.032553
0.017246
-0.021343
-0.027083
-0.005716
0.015332
-0.0076295
-0.013689
-0.047493
-0.046218
-0.025807
-0.018791
0.02458
0.00098112
-0.0044404
0.0079971
0.031278
0.044991
0.025218
0.0073593
-0.024213
0.021072
0.03351
0.0035324
-0.0089051
-0.040477
-0.027083
0.011186
0.020754
0.0095917
0.0019378
0.024262
0.020754
0.05679
0.050731
0.019478
0.015651
-0.012413
0.026813
0.032234
0.012143
-0.0098618
-0.028678
-0.018472
0.0073593
0.042121
0.011186
0.0095917
0.03638
0.03638
0.064444
0.052963
0.0060837
0.0032135
0.02777
0.042439
0.019478
0.013419
-0.018153
-0.012732
0.0057648
0.012143
0.048499
0.032553
0.02458
0.039888
0.063169
0.078157
0.052645
0.034148
-0.00061343
0.042439
0.05679
0.025537
0.011824
-0.021024
-0.0050782
0.034786
0.03925
0.028088
0.025856
0.046585
0.041483
0.074012
0.067952
0.033191
0.030959
0.0025757
0.039888
0.044991
0.022986
-0.0018891
-0.021024
-0.014327
0.008316
0.041164
0.008635
0.0067215
0.034148
0.040207
0.065082
0.047223
0.004808
-0.00061343
0.018521
0.038612
0.015332
0.0051269
-0.028359
-0.035694
-0.005716
0.0025757
0.039888
0.012143
0.0076782
0.019478
0.044034
0.05679
0.032234
0.0073593
-0.023575
0.019478
0.033191
0.0016189
-0.014964
-0.047493
-0.035375
0.0019378
0.0095917
-0.00061343
-0.0095429
0.011186
0.0073593
0.040845
0.034148
2.4388e-05
-0.0044404
-0.035375
0.0025757
0.0095917
-0.010819
-0.035694
-0.055785
-0.04558
-0.020067
0.011824
-0.020067
-0.020386
0.008635
0.014694
0.039888
0.023624
-0.017835
-0.022618
-0.0053971
0.016608
-0.005716
-0.014327
-0.047493
-0.044304
-0.022299
-0.018791
0.017246
-0.0025269
-0.0095429
0.0054459
0.025856
0.040526
0.015651
-0.0063538
-0.037288
0.0054459
0.018521
-0.014008
-0.025807
-0.056423
-0.044942
-0.0053971
-0.0031647
-0.009224
-0.017197
0.0035324
-0.0018891
0.031915
0.026494
-0.0041214
-0.009224
-0.041753
-0.0044404
0.0022568
-0.014645
-0.041753
-0.06599
-0.051639
-0.024213
0.012781
-0.021024
-0.021343
0.0073593
0.016289
0.043715
0.028726
-0.012094
-0.015921
0.0013
0.023943
0.0035324
-0.0047593
-0.039839
-0.038883
-0.016559
-0.01911
0.024262
0.0003433
-0.0066727
0.008635
0.028407
0.044034
0.018521
-0.0050782
-0.035694
0.0060837
0.020435
-0.013689
-0.024532
-0.058017
-0.044304
-0.0082673
-0.0031647
-0.0089051
-0.017835
0.0025757
-0.0018891
0.033829
0.028088
-0.0034836
-0.0089051
-0.041115
-0.0041214
0.0054459
-0.016878
-0.040158
-0.059293
-0.048769
-0.021343
0.008316
-0.02517
-0.025807
0.0016189
0.0060837
0.03351
0.017564
-0.02517
-0.025807
-0.013051
0.008635
-0.0095429
-0.013051
-0.04271
-0.044942
-0.02517
-0.01911
0.022667
0.0016189
-0.0031647
0.012781
0.035104
0.053601
0.028407
0.0019378
-0.028678
0.013738
0.03064
-0.002208
-0.014964
-0.050682
-0.03952
-0.0050782
-0.00029452
-0.002208
-0.0085862
0.008635
0.0057648
0.03925
0.035104
0.0035324
-0.0079484
-0.041115
0.0028946
0.012781
-0.011775
-0.03665
-0.059612
-0.048769
-0.021024
0.010867
-0.02198
-0.021024
0.01023
0.014694
0.041802
0.026813
-0.01337
-0.005716
0.014694
0.032553
0.013419
0.0070404
-0.025488
-0.02517
-0.005716
0.0032135
0.044672
0.01884
0.0099106
0.025218
0.040845
0.052963
0.030959
0.00098112
-0.031229
0.008316
0.021391
-0.012413
-0.027721
-0.061844
-0.049726
-0.012732
-0.0098618
-0.012413
-0.023256
-0.0044404
-0.0082673
0.025856
0.023305
-0.0073105
-0.012413
-0.04845
-0.0076295
0.0025757
-0.021024
-0.042072
-0.065033
-0.054509
-0.025488
0.0044891
-0.028359
-0.027721
0.0022568
0.0067215
0.035104
0.017883
-0.022937
-0.026445
-0.013051
0.010867
-0.005716
-0.015283
-0.048769
-0.049088
-0.030272
-0.023256
0.017564
-0.0012513
-0.014645
-0.00029452
0.023943
0.042439
0.019797
-0.0063538
-0.035056
0.0131
0.025537
-0.0069916
-0.015602
-0.047812
-0.037288
-0.0015702
0.0016189
0.0019378
-0.0044404
0.011824
0.0092728
0.040526
0.036699
0.0032135
-0.0085862
-0.044623
-0.0025269
0.0057648
-0.01911
-0.043985
-0.070136
-0.059931
-0.032504
-0.0060349
-0.033142
-0.032504
-0.0041214
0.0013
0.029683
0.017883
-0.022299
-0.026445
-0.016559
0.0095917
-0.0063538
-0.013051
-0.046855
-0.04845
-0.028996
-0.020705
0.018521
-0.0041214
-0.0105
0.0067215
0.02458
0.041483
0.01884
-0.0063538
-0.031548
0.011824
0.025218
-0.0079484
-0.018472
-0.05132
-0.041115
-0.0028458
0.0003433
0.0013
-0.0105
0.0057648
0.0025757
0.036699
0.03351
0.0041702
-0.0031647
-0.034099
0.0060837
0.0131
-0.0095429
-0.031867
-0.053234
-0.038245
-0.012094
0.015013
-0.019429
-0.018791
0.008316
0.0131
0.039888
0.025537
-0.01911
-0.024851
-0.01624
0.010867
-0.0066727
-0.015921
-0.054828
-0.055466
-0.036331
-0.02517
0.012781
-0.0089051
-0.017197
0.0003433
0.01884
0.038294
0.016927
-0.011775
-0.037607
0.0044891
0.01884
-0.01337
-0.025488
-0.056742
-0.045899
-0.010181
-0.0098618
-0.005716
-0.017835
-0.0018891
-0.0041214
0.027132
0.026813
-0.0063538
-0.013051
-0.050363
-0.010819
0.0032135
-0.021024
-0.04271
-0.066628
-0.056742
-0.028359
-0.00093234
-0.029953
-0.03378
-0.0069916
-0.00061343
0.025218
0.0089539
-0.031548
-0.034099
-0.032186
-0.0034836
-0.014008
-0.0050782
-0.038883
-0.043028
-0.02517
-0.011456
0.041483
0.015332
0.0060837
0.02777
0.049774
0.071779
0.045947
0.019478
-0.0063538
0.042121
0.039888
2.4388e-05
0.0025757
-0.014645
-0.018791
0.0060837
0.014694
0.01884
0.0041702
0.01597
0.015651
0.044353
0.042758
0.012462
-0.0047593
-0.048131
-0.014327
-0.0053971
-0.031548
-0.051958
-0.08066
-0.072049
-0.04558
-0.017835
-0.048131
-0.04558
-0.015283
-0.0105
0.021391
0.0070404
-0.034099
-0.032823
-0.027083
2.4388e-05
-0.01624
-0.027083
-0.054828
-0.054828
-0.038245
-0.027402
0.010548
-0.0105
-0.018153
0.0035324
0.021391
0.042121
0.018521
-0.012732
-0.034099
0.01023
0.019159
-0.010181
-0.024532
-0.057379
-0.044623
-0.0095429
-0.009224
-0.0031647
-0.013689
-0.0031647
-0.0044404
0.028088
0.029045
0.0016189
-0.0044404
-0.043985
-0.0015702
0.015651
-0.0041214
-0.023575
-0.041753
-0.023256
0.014694
0.063487
0.017246
0.011824
0.042758
0.049137
0.07752
0.061574
0.021391
0.021072
0.028088
0.048499
0.026494
0.0019378
-0.029634
-0.020705
0.0041702
0.014375
0.048818
0.030321
0.024899
0.035742
0.049137
0.067952
0.052007
0.022667
-0.0041214
0.037656
0.043077
0.0038513
0.058066
0.18914
0.17766
0.13684
0.12089
0.13843
0.15119
0.18914
0.1936
0.24495
0.24686
0.20572
0.16745
0.099524
0.076244
0.01884
0.0095917
-0.015921
-0.074919
-0.12913
-0.12084
-0.1167
-0.17251
-0.17697
-0.15018
-0.14699
-0.12116
-0.13998
-0.17538
-0.17506
-0.169
-0.13456
-0.13806
-0.14189
-0.16772
-0.16613
-0.14093
-0.12882
-0.083849
-0.10362
-0.10841
-0.079065
-0.054828
-0.034418
-0.052596
-0.078746
-0.091503
-0.045899
-0.029315
-0.058655
-0.067585
-0.095968
-0.081935
-0.042072
-0.040158
-0.02517
-0.033142
-0.020705
-0.017516
0.015332
0.018202
-0.0105
-0.016559
-0.053552
-0.011775
0.0041702
-0.023575
-0.040477
-0.066947
-0.054509
-0.023575
-0.0038025
-0.031867
-0.030272
-0.0038025
-0.0044404
0.026494
0.016608
-0.021661
-0.019429
-0.02517
0.0013
-0.0085862
-0.022618
-0.059612
-0.06025
-0.028678
-0.013051
0.030321
-0.0031647
-0.01337
0.013419
0.030959
0.049455
0.031915
2.4388e-05
-0.029634
0.01597
0.050093
0.037337
0.070822
0.064125
0.047861
0.092508
0.093146
0.1059
0.11547
0.13046
0.12982
0.16713
0.15661
0.1177
0.081665
0.027451
0.074649
0.06859
0.028088
-0.026126
-0.049407
-0.045261
-0.023894
-0.013689
-0.067266
-0.055466
-0.023575
-0.024532
0.010548
-0.0015702
-0.03952
-0.060887
-0.05132
-0.024213
-0.014964
-0.027721
-0.070455
-0.056104
-0.034099
-0.049726
-0.020705
-0.050044
-0.026445
0.016289
0.028726
0.040845
0.010548
-0.035694
-0.044623
-0.026445
-0.0095429
-0.057698
-0.081298
-0.087676
-0.074282
-0.052915
-0.072687
-0.055785
-0.067903
-0.069179
-0.068222
-0.036331
-0.026764
-0.04845
-0.055785
-0.09533
-0.056423
-0.04271
-0.067585
-0.081298
-0.095968
-0.051639
-0.031229
-0.02198
-0.051001
-0.042391
-0.0031647
-0.0069916
0.021391
0.015013
0.0076782
0.0076782
-0.017197
0.028088
0.015332
0.017883
0.00098112
-0.010181
-0.0053971
0.016927
0.06285
0.055515
0.038294
0.047861
0.081346
0.10973
0.081665
0.059342
0.00098112
0.03925
0.051369
0.045947
0.042439
0.0079971
0.0044891
0.035423
0.00066221
0.013419
-0.023575
0.020754
0.024899
0.029045
0.0131
-0.032186
-0.030272
-0.065352
-0.0063538
0.013738
-0.037926
-0.051001
-0.060569
0.023943
0.071141
0.092189
0.099524
0.081028
0.10303
0.099524
0.14481
0.15151
0.10399
0.11866
0.082622
0.08326
0.025218
-0.026126
-0.06599
-0.056742
0.039888
0.0025757
0.00098112
-0.03091
-0.026445
0.040207
0.069228
0.15119
0.12663
0.049455
0.049137
0.092189
0.11611
0.10112
0.051688
-0.012094
-0.052596
0.0131
0.00098112
-0.023575
-0.071093
-0.090227
-0.12658
-0.1218
-0.11446
-0.15241
-0.16166
-0.18112
-0.12658
-0.12212
-0.14604
-0.16932
-0.18112
-0.16772
-0.13169
-0.10585
-0.10968
-0.037926
0.059023
0.066677
0.09793
0.10335
0.14066
0.2003
0.17351
0.22581
0.38909
0.45351
0.37889
0.29055
0.30044
0.32467
0.36868
0.32659
0.2695
0.20636
0.15374
0.15693
0.010867
-0.11255
-0.12722
-0.15082
-0.14763
-0.24043
-0.30198
-0.36321
-0.36736
-0.34567
-0.33324
-0.29178
-0.31825
-0.30071
-0.27711
-0.23948
-0.23214
-0.24586
-0.24299
-0.24522
-0.18749
-0.15082
-0.16517
-0.16804
-0.17027
-0.14636
-0.098838
-0.054509
-0.055466
-0.048769
0.0044891
0.022986
0.074649
0.060617
0.030002
0.056153
0.05679
0.11706
0.13524
0.15246
0.089319
0.054558
0.070185
0.10399
0.14577
0.11228
0.081028
0.13747
0.1649
0.19041
0.15374
0.08326
0.10048
0.15406
0.11706
0.090914
0.12886
0.077201
0.10239
0.13205
0.15725
0.23697
0.24718
0.19743
0.099524
0.11388
0.13843
0.14609
0.12153
0.068271
0.061574
0.019797
-0.03091
-0.063758
-0.13009
-0.12563
-0.035375
-0.07779
-0.13902
-0.15784
-0.14476
-0.13679
-0.10394
-0.10809
-0.13424
-0.1387
-0.13456
-0.076195
-0.06886
-0.072368
-0.031548
-0.0038025
-0.043028
-0.026445
0.02171
0.15438
0.14321
0.12025
0.096335
0.1193
0.1059
0.02777
-0.010181
0.031596
0.056471
0.0089539
-0.032823
-0.10553
-0.12435
-0.043666
0.00098112
-0.015283
-0.054828
-0.04845
-0.026445
0.045947
0.063169
0.054239
0.14194
0.11101
0.11898
0.096016
0.063806
0.11228
0.053282
0.034467
0.073374
0.082941
0.023624
0.0131
-0.0069916
0.025537
0.029364
-0.0069916
-0.080341
-0.016878
-0.047812
-0.051001
-0.091184
-0.051958
-0.059612
-0.029315
-0.03665
-0.04271
0.0041702
0.053282
0.059342
0.024899
0.074968
0.13014
0.090595
0.042121
-0.029315
0.0095917
0.038294
-0.017835
-0.066309
-0.11
-0.13487
-0.11861
-0.14157
-0.13328
-0.15943
-0.18526
-0.18239
-0.15178
-0.10394
-0.1336
-0.16613
-0.18303
-0.14604
-0.12945
-0.13041
-0.1505
-0.16326
-0.12339
-0.070455
-0.055147
-0.084168
-0.066309
-0.02804
-0.044623
-0.01624
-0.0031647
0.0054459
0.01597
0.042439
0.085492
0.053282
0.03064
0.019478
0.010867
0.030002
0.094422
0.1295
0.069547
0.069228
0.069228
0.074968
0.083898
0.054239
0.044034
-0.016878
-0.014645
-0.010819
-0.060887
-0.062801
-0.029634
-0.013689
0.030321
0.12599
0.14959
0.1008
0.056471
0.037975
0.075287
0.14896
0.15087
0.14672
0.066995
0.12312
0.1177
0.0131
-0.044623
-0.0063538
0.029364
-0.013051
-0.02198
-0.04558
-0.086081
-0.078109
-0.069817
-0.026764
-0.021343
-0.054828
-0.080979
-0.12307
-0.089589
-0.086081
-0.11223
-0.15592
-0.16134
-0.13711
-0.12276
-0.064077
-0.073006
0.0076782
0.049455
0.080709
0.13365
0.096016
0.083898
0.13046
0.16968
0.21242
0.17
0.13173
0.075925
0.047861
0.04531
0.032553
0.035742
-0.013689
-0.056104
-0.078746
-0.095968
-0.072368
-0.11542
-0.12435
-0.13806
-0.11415
-0.072049
-0.040158
-0.017516
0.040207
0.0013
0.013738
0.047861
0.027451
0.026813
0.055196
0.076563
0.13811
0.12057
0.038612
-0.032504
-0.1151
-0.028678
0.028726
-0.01337
-0.069498
-0.10203
-0.093416
-0.057698
0.10495
0.033829
0.054877
0.098249
0.067633
0.078795
0.027451
-0.0031647
0.014375
0.050093
0.035423
-0.035694
-0.035375
-0.067266
-0.051639
-0.073006
-0.10235
-0.085443
-0.10203
-0.095968
-0.08066
-0.00029452
2.4388e-05
-0.065033
-0.077152
-0.078746
-0.0041214
-0.01624
-0.036012
-0.073325
-0.12626
-0.11191
-0.042072
-0.0066727
-0.033142
-0.080979
-0.082892
-0.066947
-0.066309
-0.066309
-0.094054
-0.073006
-0.099794
-0.074919
-0.058017
-0.06599
-0.066947
-0.08353
-0.079065
-0.065671
-0.044942
-0.084168
-0.095968
-0.080979
-0.055147
-0.028678
0.042121
0.041164
-0.037607
-0.068541
-0.053871
-0.073325
-0.050044
-0.083849
-0.083211
-0.051958
-0.048769
-0.068541
-0.06312
-0.0105
-0.012094
0.0054459
-0.027083
-0.086719
-0.094054
-0.12371
-0.090227
-0.079065
-0.10649
-0.1202
-0.15624
-0.13456
-0.092141
-0.090865
-0.13519
-0.15114
-0.11638
-0.10936
-0.082254
-0.091184
-0.11797
-0.09246
-0.10553
-0.06025
-0.02198
-0.057061
-0.0038025
0.074012
0.08326
0.099843
0.12344
0.051369
0.030959
0.029045
0.052007
0.13588
0.11419
0.044353
-0.056423
-0.082573
-0.075557
-0.06312
-0.079703
-0.17346
-0.20567
-0.16645
-0.16485
-0.10968
-0.097881
-0.10745
-0.092778
-0.054828
0.0079971
0.0003433
0.027132
0.0067215
0.029045
0.028407
0.0003433
0.017246
-0.021343
0.021391
0.046904
0.12791
0.12504
0.11643
0.067314
-0.012732
0.075287
0.057109
-0.0012513
-0.009224
-0.058655
-0.014645
-0.01911
-0.042391
-0.075557
-0.081617
-0.07779
-0.096605
-0.075557
-0.096286
-0.10458
-0.024213
-0.0066727
0.034467
0.024899
0.036061
0.038294
0.056471
0.061574
-0.002208
-0.017197
-0.041753
-0.012732
-0.010181
-0.028996
-0.015602
-0.029953
-0.070455
-0.061206
-0.04845
-0.024851
-0.056104
-0.078427
-0.097243
-0.060887
-0.043347
-0.053234
-0.079065
-0.067585
-0.005716
0.087087
0.15055
0.20795
0.1936
0.11962
0.089319
0.19073
0.16426
0.12886
0.10495
0.14098
0.20189
0.13588
0.050093
0.014694
0.033829
0.0025757
-0.044623
-0.0105
-0.074919
-0.10904
-0.04271
-0.023894
-0.0047593
-0.034737
-0.084806
-0.10298
-0.075876
-0.049088
-0.10171
-0.11128
-0.13711
-0.14699
-0.15273
-0.13232
-0.073644
-0.079065
-0.043985
-0.05419
-0.06025
-0.011137
-0.039202
-0.076833
-0.087038
-0.027721
-0.00029452
-0.035694
-0.041753
-0.066309
-0.039839
-0.014964
0.0003433
0.020754
-0.019429
-0.035694
-0.028678
-0.00061343
-0.0089051
-0.034737
-0.027721
-0.043666
-0.0066727
0.01023
-0.0069916
-0.063758
-0.095649
-0.028996
0.0092728
0.090914
0.055834
0.073055
0.14066
0.1818
0.18117
0.14226
0.11643
0.11675
0.16331
0.19265
0.15119
0.11101
-0.0041214
0.020435
0.016289
-0.0069916
-0.0018891
-0.034418
-0.051001
-0.045899
-0.01911
2.4388e-05
0.017246
0.025218
-0.019429
0.059342
0.052645
-0.0060349
-0.030272
-0.034418
0.02171
0.078157
0.028088
-0.015921
0.028726
0.073055
-0.015602
-0.023894
-0.011775
-0.042391
-0.046218
-0.071093
-0.038564
-0.021661
-0.014964
0.0089539
0.096016
0.17032
0.20158
0.18308
0.13205
0.11101
0.15119
0.21433
0.2459
0.22581
0.19711
0.095697
0.13524
0.11547
0.086449
0.0016189
-0.11446
-0.13934
-0.1269
-0.14125
-0.10139
-0.12818
-0.16581
-0.15624
-0.15369
-0.15784
-0.18175
-0.17952
-0.17952
-0.084487
-0.024851
-0.053234
-0.084487
-0.11191
-0.10458
-0.041115
-0.0073105
-0.0028458
0.0013
0.0051269
-0.020386
0.023624
0.053601
0.075606
0.10877
0.02458
-0.0041214
-0.014008
-0.017516
-0.049088
-0.043028
-0.014645
0.025218
0.069228
0.025218
0.0013
0.026494
0.017564
0.03351
0.020754
-0.035694
-0.065352
-0.023575
0.064125
0.051369
0.025856
0.0019378
0.016927
0.029045
0.026813
0.045947
0.060617
0.084217
0.083579
0.13142
0.076244
0.064763
0.09506
0.16873
0.25962
0.20604
0.11706
0.11738
0.066039
0.063806
0.079433
0.12631
0.14098
0.10877
0.067952
-0.029953
0.0073593
0.008316
-0.035375
-0.091503
-0.15847
-0.14508
-0.12563
-0.13137
-0.14795
-0.16485
-0.15146
-0.13105
-0.11032
-0.1454
-0.15879
-0.13711
-0.11446
-0.083849
-0.10139
-0.15305
-0.15911
-0.1049
-0.084487
-0.088952
-0.076195
-0.12307
-0.11223
-0.08066
-0.068222
-0.026126
-0.03091
-0.0076295
0.013419
0.032872
0.084536
0.042439
-0.013051
-0.032504
0.042121
0.072417
0.072098
0.12823
0.081028
0.08326
0.15629
0.16012
0.14832
0.16171
0.2644
0.23984
0.22549
0.20189
0.17766
0.18372
0.1413
0.11898
0.097611
0.070185
0.01597
-0.02198
0.0044891
-0.03952
-0.028678
-0.051001
-0.043028
-0.058655
-0.059931
-0.015921
0.0025757
-0.089908
-0.10777
-0.084806
-0.070136
-0.069498
-0.070455
-0.10362
-0.084487
-0.059293
-0.10681
-0.051958
-0.047174
-0.068222
-0.067585
-0.030272
0.0028946
-0.026445
-0.052277
-0.06312
-0.01624
0.0067215
-0.012094
0.0041702
0.028407
0.015013
0.11866
0.14098
0.090914
0.10941
0.13588
0.13078
0.14577
0.17766
0.14066
0.14577
0.080071
0.082941
0.075925
0.058704
0.00098112
-0.079065
-0.1151
-0.091184
-0.039202
-0.06312
-0.10298
-0.073325
-0.045899
-0.019429
-0.04271
-0.034418
-0.0085862
0.089957
0.098568
0.14098
0.14162
0.1413
0.14927
0.15374
0.1464
0.17447
0.19584
0.13078
0.1582
0.17351
0.094422
-0.0047593
-0.078746
-0.064714
-0.046536
-0.057379
-0.099476
-0.15369
-0.18558
-0.17538
-0.12052
-0.10649
-0.12084
-0.11478
-0.034737
-0.051001
-0.010181
-0.015602
-0.043028
-0.044623
-0.093735
-0.077152
-0.073325
-0.065671
-0.075876
-0.11223
-0.094054
-0.073644
-0.065352
-0.066309
-0.02804
-0.0085862
0.01023
0.06285
0.05105
0.037337
0.060298
0.087087
0.17989
0.16171
0.16554
0.12886
0.12504
0.1413
0.15406
0.19169
0.15852
0.20604
0.17319
0.14481
0.18372
0.17383
0.11675
0.037018
0.061255
0.056471
0.046585
0.016289
-0.059293
-0.069817
-0.018153
-0.0018891
0.032234
0.049455
0.064125
0.03064
0.059661
0.05105
0.035742
0.059661
0.067314
0.09793
0.059661
0.032872
0.02777
-0.022299
-0.0066727
0.0025757
-0.00061343
-0.073644
-0.071093
-0.064714
-0.10617
-0.059612
-0.066309
-0.099794
-0.10681
-0.08927
-0.078109
-0.13041
-0.11606
-0.095968
-0.13073
-0.11415
-0.092778
-0.029953
-0.051001
-0.069179
-0.059612
-0.049407
-0.014645
-0.0069916
-0.027083
-0.045899
0.052645
0.063806
0.0051269
-0.028359
-0.058655
-0.019429
0.025856
0.026175
0.02458
0.081028
0.066039
0.035423
0.047542
0.041483
0.028088
0.03638
0.015651
0.074968
0.16968
0.11292
0.057109
0.0067215
0.073055
0.11515
0.11802
0.1228
0.15119
0.16681
0.1228
0.14704
0.14672
0.13684
0.090914
0.067633
0.088362
0.068909
0.033191
-0.058017
-0.086081
-0.062482
-0.051958
-0.046218
-0.075557
-0.067585
-0.042391
-0.071093
-0.093097
-0.11542
-0.15018
-0.16549
-0.11223
-0.069817
-0.082573
-0.084806
-0.10713
-0.091503
-0.061525
-0.052277
-0.043666
-0.024532
-0.0028458
0.00098112
0.032234
0.058704
0.0131
0.017883
-0.020386
-0.005716
0.013419
0.0079971
0.016289
0.031278
0.044034
0.047861
0.083898
0.061893
0.061893
0.11419
0.15629
0.19328
0.19552
0.17351
0.19009
0.15055
0.17096
0.16586
0.23506
0.17287
0.12344
0.18946
0.1547
0.20827
0.14162
0.099524
0.069866
0.094103
0.075606
0.056153
0.044034
-0.032823
0.0060837
0.0016189
-0.057061
-0.10171
-0.13679
-0.11925
-0.097562
-0.11064
-0.11638
-0.1167
-0.088633
-0.084806
-0.046218
-0.058974
-0.080979
-0.10394
-0.132
-0.093097
-0.087357
-0.11638
-0.11128
-0.097243
-0.084168
-0.06025
-0.03378
-0.046218
-0.045261
-0.0089051
-0.00061343
0.054239
0.053282
0.044353
0.052645
0.046266
0.075925
0.070503
0.052963
0.021072
0.018202
0.035742
0.050731
0.087406
0.096654
0.11675
0.090914
0.09506
0.18914
0.14864
0.10208
0.078476
0.082622
0.072417
0.070822
0.15916
0.14991
0.15406
0.15406
0.16522
0.21848
0.24527
0.13556
0.16777
0.2357
0.17447
0.10463
0.14003
0.070185
0.088044
0.12153
0.11037
-0.0012513
-0.12084
-0.18526
-0.10043
-0.079384
-0.10011
-0.13519
-0.14349
-0.15752
-0.13041
-0.1741
-0.20121
-0.17793
-0.17314
-0.12626
-0.12371
-0.14125
-0.18686
-0.19547
-0.17857
-0.14476
-0.081935
-0.08927
-0.090227
-0.050363
-0.014964
0.012462
0.0079971
-0.012094
-0.028996
0.0057648
0.022348
-0.012094
0.0019378
0.0003433
0.057109
0.10367
0.10144
0.10335
0.088362
0.10367
0.11834
0.12918
0.15533
0.15725
0.14481
0.077201
0.092508
0.15087
0.21242
0.13397
0.085811
0.13365
0.15087
0.13588
0.12823
0.15884
0.20923
0.17351
0.10495
0.12344
0.15501
0.1244
0.067314
0.059979
0.032872
0.02777
0.0092728
-0.070455
-0.07173
-0.080979
-0.047493
-0.097243
-0.10266
-0.066628
-0.094373
-0.092141
-0.034099
-0.071411
-0.14636
-0.13838
-0.090546
-0.10904
-0.10585
-0.12276
-0.12148
-0.070455
-0.055785
-0.044942
-0.043028
-0.028678
-0.026445
-0.0038025
0.0099106
0.019478
0.04818
-0.017197
0.0076782
0.039888
0.029045
-0.0073105
-0.01624
0.018521
0.044034
0.081984
0.052645
0.035742
0.082303
0.12217
0.12759
0.1244
0.074012
0.090914
0.085492
0.094103
0.12344
0.16458
0.11802
0.10431
0.15501
0.13939
0.12344
0.064444
0.093465
0.13333
0.12631
0.16841
0.10399
0.063487
0.012462
0.012143
0.017246
-0.014327
-0.02198
-0.054828
-0.075876
-0.045899
-0.038883
-0.012413
-0.047493
-0.062482
-0.073006
0.021072
0.1059
0.051369
0.010548
-0.029953
0.022986
0.059023
0.011824
0.0099106
-0.0060349
-0.026126
-0.050682
-0.016559
-0.030272
-0.04558
-0.037288
-0.086719
-0.088952
-0.11191
-0.13647
-0.12467
-0.11574
-0.087357
-0.10713
-0.10298
-0.11
-0.084168
-0.064714
-0.043028
-0.0089051
-0.0073105
-0.0034836
-0.015602
0.022986
0.080071
0.073374
0.050412
0.050093
0.060936
0.052645
0.0028946
0.016927
0.01884
0.068909
0.11579
0.14417
0.20923
0.23666
0.21529
0.18372
0.17064
0.20189
0.16809
0.18148
0.14194
0.16745
0.2644
0.19169
0.18212
0.13078
0.054558
0.087087
0.061893
0.059979
0.065401
0.075287
0.055834
0.048818
-0.050682
-0.099794
-0.049407
-0.066947
-0.088633
-0.13232
-0.16039
-0.19036
-0.22513
-0.21365
-0.20567
-0.15847
-0.15241
-0.12563
-0.1033
-0.095968
-0.061525
-0.092778
-0.12499
-0.11638
-0.073963
-0.056104
-0.02804
-0.024851
-0.080979
-0.078746
-0.032504
-0.030591
-0.015283
-0.01624
-0.0053971
0.0025757
0.026813
0.041164
0.04818
0.047861
0.026494
0.043715
0.067952
0.036699
0.011505
-0.012094
-0.021661
0.034148
0.066995
0.07433
0.12982
0.15278
0.15087
0.18691
0.15757
0.15374
0.15406
0.12249
0.19424
0.2341
0.17064
0.099524
0.12504
0.075287
0.14385
0.14704
0.044353
-0.0085862
0.016289
0.0051269
0.017883
-0.017835
-0.10139
-0.1167
-0.093416
-0.076833
-0.091503
-0.072687
-0.11702
-0.13934
-0.1151
-0.10139
-0.060569
-0.073006
-0.071411
-0.10266
-0.048769
0.028407
-0.010181
-0.041434
-0.077471
-0.045261
-0.01624
-0.029953
-0.029315
-0.060887
-0.059612
-0.0044404
0.020754
0.0051269
0.0070404
0.034148
0.016289
0.044672
0.038931
0.008316
0.0032135
0.0076782
0.04531
0.049137
0.044034
0.0051269
0.0003433
0.045947
0.062531
0.09506
0.10208
0.19488
0.24527
0.21529
0.23315
0.19902
0.17447
0.19456
0.27174
0.24718
0.16299
0.18308
0.1059
0.025856
0.067314
0.088044
0.059023
0.028726
-0.0076295
-0.032823
-0.062801
-0.073644
-0.10617
-0.11861
-0.16868
-0.15975
-0.14667
-0.17123
-0.14189
-0.18048
-0.21747
-0.18909
-0.15305
-0.16485
-0.20057
-0.15911
-0.12371
-0.05132
-0.070455
-0.12467
-0.11797
-0.13169
-0.11223
-0.1202
-0.11765
-0.10872
-0.067585
-0.018472
0.041483
0.026813
-0.01624
-0.030591
0.0003433
0.019159
0.070503
0.096654
0.049774
0.032234
0.059023
0.11515
0.097292
0.069866
0.0003433
0.0060837
0.039888
0.052645
0.081028
0.059661
0.070185
0.075925
0.094103
0.12153
0.17064
0.14768
0.10271
0.15852
0.15501
0.13205
0.18691
0.17255
0.21146
0.22326
0.17893
0.10495
0.16841
0.19902
0.12536
0.16873
0.11069
0.045629
0.021072
-0.076833
-0.091822
-0.093416
-0.097881
-0.1556
-0.2028
-0.22385
-0.17633
-0.15401
-0.1859
-0.19355
-0.18558
-0.17952
-0.13551
-0.13934
-0.15528
-0.13169
-0.077471
-0.045261
-0.073644
-0.056104
-0.081298
-0.05132
2.4388e-05
0.0089539
0.046585
0.061893
0.07433
0.1059
0.12121
0.12408
0.089319
0.07146
0.059342
0.097292
0.10399
0.079433
0.078795
0.036699
0.05392
0.093465
0.096335
0.12217
0.11515
0.17734
0.19839
0.28449
0.27365
0.21465
0.18882
0.16968
0.23347
0.22039
0.18978
0.13205
0.052326
0.0013
0.0044891
0.049455
-0.0028458
-0.090546
-0.10043
-0.076514
-0.072049
-0.12626
-0.17952
-0.18622
-0.1438
-0.12371
-0.11287
-0.051639
-0.073006
-0.081298
-0.052596
-0.031867
0.0022568
-0.0031647
-0.0018891
-0.02804
0.047542
0.096335
0.040207
-0.034418
-0.063439
-0.0063538
0.012143
-0.0034836
-0.038245
-0.08066
-0.032504
0.0013
-0.014645
-0.039202
-0.043028
-0.0073105
2.4388e-05
0.040526
0.037656
0.023305
0.023305
-0.0034836
0.022348
0.033829
0.022348
-0.017516
-0.020705
0.0067215
0.015651
0.034786
-0.005716
-0.020386
0.0057648
0.04531
0.13333
0.12089
0.077201
0.068271
0.072736
0.088681
0.098249
0.11388
0.10303
0.13716
0.12504
0.10941
0.12153
0.11069
0.11547
0.091552
0.060936
0.08613
0.10208
0.06285
0.032234
0.066358
0.072417
0.023624
0.0041702
-0.03665
-0.02517
-0.0031647
0.038294
0.066677
0.04531
0.029683
0.029045
0.019478
-0.0060349
-0.019748
-0.028996
-0.045899
-0.024532
-0.032504
-0.064077
-0.087357
-0.11797
-0.10649
-0.06025
-0.032504
-0.012094
-0.056742
-0.058655
-0.051958
-0.00061343
-0.024532
-0.044304
-0.053552
-0.042072
-0.00061343
0.0035324
0.02777
0.010548
0.077838
0.059342
0.027451
0.074649
0.052645
0.040845
0.010548
0.06285
0.095378
0.06285
0.062212
0.025856
0.055515
0.013738
-0.027083
-0.027721
-0.054509
-0.04558
0.031596
0.054877
0.062531
0.037337
0.022029
0.0076782
0.065401
0.092508
0.060617
0.041483
-0.0034836
0.03925
0.040526
0.008316
-0.014327
-0.039202
0.0044891
0.071779
0.1244
0.093784
0.069866
0.073374
0.069547
0.08326
0.11292
0.082622
0.064763
0.049137
0.092827
0.098249
0.067952
-0.034737
-0.056742
-0.044942
-0.034099
-0.043666
-0.087676
-0.1049
-0.075238
-0.070136
-0.073006
-0.11096
-0.13743
-0.1808
-0.13679
-0.099157
-0.13456
-0.13966
-0.14891
-0.13934
-0.092778
-0.081617
-0.070455
-0.053234
-0.035694
-0.01624
0.027132
0.052326
0.020116
0.0076782
-0.027402
0.015013
0.029364
0.019159
0.023624
0.035423
0.050093
0.062531
0.10271
0.084854
0.089638
0.15916
0.16012
0.16745
0.1464
0.07752
0.055196
0.093784
0.12504
0.11005
0.11356
0.047542
0.0032135
0.020754
0.02777
0.084536
0.090595
0.067952
0.052007
0.070185
0.10845
0.063487
0.043396
0.046904
0.032234
0.012462
0.037656
0.049137
-0.015921
-0.055785
-0.029953
-0.016878
-0.063758
-0.072687
-0.079703
-0.072049
-0.050363
-0.035056
-0.090546
-0.093416
-0.12531
-0.10681
-0.076514
-0.090546
-0.10075
-0.11159
-0.093735
-0.057379
-0.012413
-0.024532
-0.015921
0.012462
0.039569
0.06285
0.060617
0.039888
0.04531
0.03064
0.04531
0.038612
0.040845
0.0025757
-0.01911
0.024899
0.041802
0.056471
0.023624
0.016289
0.032553
0.078157
0.11547
0.091552
0.081028
0.05105
0.09506
0.10941
0.12567
0.14672
0.10144
0.12185
0.15151
0.12472
0.11738
0.11132
0.14162
0.13875
0.1228
0.055834
-0.022299
0.025856
0.04818
0.036699
-0.0105
-0.034418
-0.088633
-0.12945
-0.1454
-0.10777
-0.08353
-0.073325
-0.069498
-0.058017
-0.068222
-0.042072
-0.041753
-0.08353
-0.046218
-0.050682
-0.058655
-0.076833
-0.074919
-0.076514
-0.074919
-0.054828
-0.05419
0.0089539
-0.012094
-0.046855
-0.041753
-0.012094
0.01023
0.0044891
-0.015602
-0.0095429
0.033191
0.07433
0.069228
0.056471
0.011824
0.03925
0.081984
0.060936
0.074012
0.11324
0.11069
0.10176
0.1547
0.14417
0.10558
0.034148
0.0051269
0.053282
0.080709
0.038612
0.008316
-0.032186
-0.020386
0.02777
0.060936
0.062212
0.03351
0.058066
0.033829
0.032872
0.033829
0.031596
0.048818
0.028726
0.060298
0.044991
0.023305
-0.04845
-0.06886
-0.0044404
0.026175
0.046585
0.0057648
-0.0089051
-0.047174
-0.047812
-0.035056
-0.057698
-0.082573
-0.09246
-0.064395
-0.063758
-0.08927
-0.10809
-0.14221
-0.14444
-0.10936
-0.089589
-0.065033
-0.059293
-0.038564
-0.012094
0.025537
0.022348
-0.0012513
0.00098112
-0.031867
0.008316
0.045629
0.040207
0.044034
0.024262
0.027132
0.052645
0.066358
0.040526
0.078157
0.10526
0.11101
0.1818
0.15597
0.06859
0.057747
0.10941
0.12663
0.09506
0.11834
0.10431
0.087725
0.10016
0.072098
0.081028
0.089638
0.12249
0.12376
0.19456
0.23857
0.18085
0.1582
0.14098
0.16522
0.17798
0.17224
0.13843
0.13333
0.11611
0.080709
0.081984
0.058385
-0.050682
-0.014645
-0.034737
-0.042391
-0.04558
-0.10266
-0.14859
-0.21269
-0.19642
-0.17155
-0.18239
-0.18718
-0.20631
-0.18175
-0.15305
-0.1336
-0.1403
-0.12818
-0.10777
-0.11128
-0.074282
-0.069817
-0.09533
-0.075876
-0.057698
-0.033461
-0.018791
-0.002208
-0.018472
-0.025488
-0.0060349
0.0054459
0.063487
0.071141
0.066677
0.075606
0.084217
0.084854
0.068271
0.038612
0.015013
0.035104
0.040526
-0.00029452
-0.0085862
-0.025807
-0.0060349
0.038612
0.051688
0.047542
0.037018
0.03638
0.028726
0.13429
0.12536
0.11866
0.12344
0.040207
0.066358
0.13843
0.096016
0.082622
0.0131
-0.050363
-0.032186
0.048499
0.036699
-0.021343
-0.014327
-0.021024
-0.022937
-0.036331
-0.09533
-0.10075
-0.078427
0.0067215
0.0079971
-0.0073105
0.019797
-0.00061343
-0.0015702
0.0054459
0.038612
0.0099106
0.022029
0.046585
0.096016
0.044991
0.03064
0.0054459
-0.060887
-0.075557
-0.051958
-0.083211
-0.086081
-0.094373
-0.061844
-0.025807
-0.0041214
0.015651
-0.015602
-0.036331
-0.044623
0.0079971
0.014694
0.015013
0.028726
-0.018153
-0.0028458
-0.01337
-0.054509
-0.052915
-0.083211
-0.06886
-0.022937
-0.00061343
-0.02198
-0.018791
0.0013
-0.026126
-0.014964
0.0057648
-0.0063538
-0.023894
-0.022618
0.00066221
-0.0095429
-0.0063538
-0.03091
-0.028359
-0.028996
-0.037926
0.017883
-0.0050782
-0.020705
0.0067215
0.0089539
0.03064
-0.0060349
-0.064395
-0.062482
-0.014008
-0.023894
-0.069817
-0.078109
-0.10777
-0.092778
-0.052915
-0.06312
-0.048131
-0.052915
-0.049726
-0.04271
0.040845
0.050412
-0.00061343
-0.0069916
-0.049088
-0.015921
0.020754
0.019478
0.0003433
-0.017197
0.010548
0.037018
0.055515
0.041483
0.055515
0.11228
0.12472
0.13014
0.1193
0.084217
0.07146
0.037656
0.067952
0.090595
0.073055
0.041483
0.07146
0.09506
0.072736
0.092189
0.04531
0.05679
0.044353
0.04531
0.063169
0.06859
0.0025757
-0.082254
-0.040477
0.022986
0.0028946
-0.062482
-0.14349
-0.14923
-0.11574
-0.12116
-0.09246
-0.08927
-0.08927
-0.12467
-0.080022
-0.065033
-0.060887
-0.066628
-0.10043
-0.040477
-0.022299
-0.077471
-0.080979
-0.12084
-0.10968
-0.081935
-0.022299
-0.030591
-0.034099
-0.020705
-0.037607
0.00098112
-0.01337
-0.034099
-0.022299
-0.038883
-0.0018891
-0.0044404
-0.014645
-0.02198
-0.021024
-0.0105
-0.0066727
0.027132
0.021072
0.029045
0.069228
0.053282
0.061574
0.059023
0.0076782
-0.014645
0.040845
0.06572
0.035742
0.028407
0.0067215
0.056471
0.061574
0.072098
0.070185
0.065082
0.13173
0.11643
0.11579
0.096335
0.097292
0.094741
0.0092728
0.028726
0.098886
0.070185
0.028088
-0.028678
-0.065671
-0.029315
-0.0066727
-0.037288
-0.044304
-0.029315
-0.062163
-0.050044
-0.052596
-0.10809
-0.11128
-0.1033
-0.079384
-0.097881
-0.11191
-0.13551
-0.15114
-0.14125
-0.13105
-0.039839
-0.044623
-0.044942
-0.035056
-0.012094
0.020435
0.008635
-0.038564
-0.018472
0.10782
0.077201
0.057109
0.02458
-0.027402
-0.029315
0.020754
0.052645
0.12089
0.10845
0.035423
-0.00093234
0.061574
0.094741
0.057747
0.034467
-0.034099
-0.011775
0.0035324
-0.016878
-0.029634
-0.03665
-0.025488
-0.014645
-0.0034836
-0.023894
-0.022618
-0.0028458
0.0041702
0.091233
0.09506
0.063487
0.060617
0.098886
0.15757
0.14003
0.13492
0.1413
0.13556
0.1429
0.15087
0.1936
0.18722
0.14449
0.14066
0.10558
0.093146
0.049455
-0.0038025
-0.029953
-0.057379
-0.03952
-0.068541
-0.10681
-0.17314
-0.21524
-0.16772
-0.1454
-0.13105
-0.14412
-0.16326
-0.1623
-0.12499
-0.11893
-0.14827
-0.16071
-0.19005
-0.16134
-0.1438
-0.15305
-0.1403
-0.16134
-0.15337
-0.10809
-0.093416
-0.11064
-0.088633
-0.055466
-0.035056
0.027132
0.0092728
-0.02804
-0.013051
-0.02517
0.0076782
0.023624
0.028088
-0.0041214
-0.023256
0.017883
0.069866
0.094422
0.093146
0.11515
0.13971
0.14194
0.16426
0.13843
0.11069
0.10367
0.10718
0.11132
0.15629
0.1311
0.055196
0.065401
0.071779
0.043077
0.082941
0.055196
0.044991
0.033191
0.075606
0.09793
0.076882
0.073055
0.0003433
-0.013051
-0.021343
-0.018153
0.018521
-0.022937
-0.057061
-0.029953
-0.00093234
-0.03952
-0.064077
-0.067903
-0.052596
-0.0063538
0.0038513
-0.069498
-0.10266
-0.13328
-0.1285
-0.11574
-0.11446
-0.14476
-0.16613
-0.1572
-0.15497
-0.10809
-0.12116
-0.10745
-0.079703
-0.066947
-0.017516
-0.022937
-0.041434
-0.032504
0.0022568
0.048818
0.073374
0.094422
0.034786
0.023943
0.044991
0.01597
0.038612
0.064125
0.082941
0.098568
0.13716
0.18531
0.19169
0.15629
0.12153
0.19839
0.21625
0.21912
0.22135
0.19552
0.19073
0.24622
0.27301
0.19934
0.16076
0.13078
0.19424
0.17128
0.044353
-0.03665
-0.048769
-0.073006
-0.075876
-0.085125
-0.093735
-0.13392
-0.17059
-0.20631
-0.20472
-0.12499
-0.17027
-0.19387
-0.17346
-0.1623
-0.14412
-0.15082
-0.16868
-0.14859
-0.14572
-0.13487
-0.16358
-0.16645
-0.20089
-0.19068
-0.15018
-0.13041
-0.072049
-0.056742
-0.045261
-0.037607
-0.033142
-0.01624
-0.0053971
-0.0079484
-0.038245
0.021391
0.046904
0.022348
0.015332
-0.0089051
0.010867
0.061574
0.072736
0.051369
0.050412
0.067314
0.077201
0.087406
0.06572
0.048499
0.05392
0.017246
0.031596
0.052326
0.028407
0.02171
0.019797
0.021072
0.032872
0.060298
0.027132
0.1059
0.16107
0.1818
0.23219
0.2223
0.16426
0.13078
0.12472
0.13907
0.18308
0.19041
0.12025
0.066995
0.075925
0.06572
0.020116
-0.033461
-0.083849
-0.080341
-0.072049
-0.068222
-0.11351
-0.15815
-0.17984
-0.13615
-0.12467
-0.15146
-0.15975
-0.19387
-0.18175
-0.14444
-0.095968
-0.09533
-0.081298
-0.09246
-0.089908
-0.061525
-0.068541
-0.086719
-0.070455
-0.094373
-0.06312
-0.05419
-0.074282
-0.10043
-0.10681
-0.078427
-0.041753
-0.0098618
0.012781
0.035742
0.063169
0.081984
0.11738
0.11675
0.092189
0.099205
0.10303
0.10399
0.11515
0.12759
0.096973
0.059342
0.055196
0.078476
0.13301
0.12631
0.099524
0.086449
0.084536
0.041164
-0.011456
-0.023894
-0.013689
0.063169
0.060298
0.015332
-0.042391
-0.096286
-0.028996
-0.0041214
-0.011456
-0.017197
-0.04558
-0.024851
-0.030591
0.010548
0.040207
-0.018472
-0.076195
-0.11446
-0.086081
-0.10107
-0.12658
-0.15369
-0.18239
-0.17155
-0.1521
-0.13743
-0.17282
-0.15784
-0.12339
-0.097881
-0.061206
-0.055466
-0.053871
-0.050363
-0.026764
0.020116
0.041164
0.019159
-0.039202
-0.012094
0.035104
0.020754
0.041164
0.024262
0.032872
0.053282
0.051369
0.050412
0.026494
0.017883
-0.011775
0.017564
0.024899
0.01884
0.032553
0.0003433
0.0131
0.05392
0.071779
0.081984
0.086768
0.11388
0.13716
0.2105
0.22549
0.24208
0.22964
0.16426
0.18978
0.17861
0.18021
0.15438
0.12312
0.096016
0.14098
0.10367
0.013419
0.0019378
0.01884
-0.025807
-0.069817
-0.11191
-0.16836
-0.19834
-0.18973
-0.15624
-0.16134
-0.17538
-0.20248
-0.20248
-0.19483
-0.16549
-0.12658
-0.13743
-0.15018
-0.1336
-0.081935
-0.081298
-0.10011
-0.097881
-0.10809
-0.076833
-0.055147
-0.097562
-0.078427
-0.11957
-0.12563
-0.10011
-0.059293
-0.044942
-0.053234
-0.039202
-0.02198
0.061255
0.061255
0.013738
0.013738
-0.0060349
0.035742
0.069866
0.042439
0.028726
0.057428
0.06859
0.084536
0.069547
0.066995
0.077201
0.06859
0.038294
0.067952
0.028407
-0.026764
-0.020705
0.036061
0.054558
0.018202
0.052645
0.11451
0.085492
0.10909
0.11706
0.16203
0.14545
0.15087
0.15948
0.14704
0.17734
0.094741
0.0022568
-0.0069916
0.041483
0.0073593
-0.06025
-0.13934
-0.20759
-0.20153
-0.16358
-0.16645
-0.13711
-0.13998
-0.16198
-0.1741
-0.13519
-0.16453
-0.19611
-0.19196
-0.18144
-0.13487
-0.12563
-0.14986
-0.1572
-0.16708
-0.14923
-0.11606
-0.063439
-0.057061
-0.026126
0.012462
0.030002
0.081346
0.080071
0.060617
0.063169
0.071141
0.10782
0.10686
0.098568
0.08613
0.10845
0.10112
0.1126
0.11993
0.092827
0.099843
0.14098
0.13843
0.1244
0.090914
0.072098
0.052645
0.052645
0.028726
0.0067215
0.056153
0.071141
0.054877
0.064125
0.076882
0.077838
0.081346
0.087087
0.10813
0.15501
0.13875
0.091233
0.14927
0.1228
0.099205
0.074012
0.063806
-0.009224
-0.081298
-0.037607
-0.026764
-0.01911
-0.074282
-0.093735
-0.11223
-0.13456
-0.10745
-0.13934
-0.18431
-0.15465
-0.14572
-0.13743
-0.15273
-0.15146
-0.18016
-0.16645
-0.11638
-0.067266
-0.0082673
-0.02804
-0.029634
-0.021343
0.0013
0.024262
0.030002
0.016608
-0.0050782
0.0131
0.041483
0.025218
0.012781
-0.023575
-0.0076295
0.038931
0.043077
0.054877
0.061574
0.079433
0.072736
0.11005
0.11802
0.11419
0.12791
0.08039
0.1008
0.11324
0.091552
0.074012
0.036061
0.03638
0.085173
0.069547
0.029364
0.037656
0.056471
0.054239
0.067633
0.035742
0.052007
0.070503
0.063487
0.052645
0.023943
0.01023
-0.028678
-0.026764
0.017883
0.067314
0.098568
0.09793
0.10176
0.091233
0.056153
0.058385
0.046904
0.0032135
0.0060837
0.022029
0.056471
-0.017516
-0.017516
-0.057061
-0.070774
-0.037288
-0.074919
-0.083211
-0.08353
-0.10235
-0.13009
-0.091503
-0.072368
-0.097881
-0.10777
-0.12467
-0.081298
-0.056423
-0.078109
-0.10394
-0.12913
-0.10235
-0.051001
-0.016878
-0.039839
-0.026445
0.010867
0.020754
0.058385
0.048499
0.017564
0.027132
0.030959
0.052645
0.044034
0.082622
0.068909
0.033829
0.028407
0.035104
0.073693
0.070503
0.05679
0.066677
0.11292
0.10877
0.050731
0.019159
0.015651
0.041483
0.027132
0.04531
0.10845
0.064444
0.078157
0.08039
0.070185
0.11579
0.099524
0.09506
0.065401
0.10016
0.11069
0.073374
0.0095917
-0.024213
-0.0073105
-0.034737
-0.059931
-0.071411
-0.1336
-0.15241
-0.10298
-0.055785
-0.023894
-0.047812
-0.032186
-0.011775
-0.0034836
-0.033142
-0.066947
-0.021024
-0.0079484
0.0073593
-0.041434
-0.060887
-0.081298
-0.096605
-0.075557
-0.095011
-0.053234
-0.065352
-0.093416
-0.08353
-0.055466
-0.020067
-0.028996
-0.061525
-0.075238
-0.041434
-0.035694
-0.062163
-0.055147
-0.079384
-0.060887
-0.0047593
0.0025757
0.0016189
0.0060837
0.016927
0.026813
0.058066
0.058385
0.037975
0.06285
0.033191
0.079114
0.096654
0.056153
0.085492
0.12695
0.11069
0.11547
0.10941
0.033829
0.022029
0.066039
0.094422
0.15183
0.11069
0.024262
0.026175
0.040845
-0.005716
-0.015921
0.026494
-0.0047593
-0.050363
-0.043985
-0.029634
0.0089539
0.023305
0.042439
0.04531
0.052645
0.052007
-0.020386
-0.081617
-0.078427
-0.032186
-0.016559
-0.055785
-0.067903
-0.11287
-0.094054
-0.055466
-0.073325
-0.06599
-0.071411
-0.060569
-0.056423
-0.0041214
-0.0025269
-0.01337
-0.022618
-0.040477
0.0025757
0.0028946
-0.026126
-0.036969
-0.043985
-0.050682
-0.02804
-0.022618
-0.043985
-0.053871
-0.023575
-0.032504
0.020435
0.016927
-0.036331
-0.060887
-0.071093
-0.03952
-0.018791
-0.019748
-0.048131
-0.041434
-0.015283
0.012143
0.055515
0.048499
0.045629
0.059023
0.058385
0.12695
0.12695
0.08326
0.059023
0.096016
0.11451
0.12727
0.13429
0.11706
0.12855
0.16331
0.1311
0.12153
0.12695
0.11866
0.10016
0.11228
0.099205
0.066995
0.037656
-0.04558
-0.032823
-0.015283
-0.063439
-0.084806
-0.11957
-0.12052
-0.094373
-0.086719
-0.11925
-0.11989
-0.096605
-0.095011
-0.059293
-0.065671
-0.086719
-0.066309
-0.079703
-0.071093
-0.046536
-0.058974
-0.10075
-0.090546
-0.054828
-0.03378
0.0003433
-0.010181
-0.019429
0.031915
0.024899
0.021072
0.0054459
-0.017197
0.0035324
0.04531
0.050093
0.028407
0.0044891
-0.033461
-0.032504
-0.018791
-0.011775
0.018521
0.010548
0.024899
0.090276
0.1177
0.07146
0.014694
0.027132
0.05105
0.14927
0.19105
0.14991
0.15151
0.12727
0.1177
0.15023
0.13524
0.067633
0.098249
0.13205
0.074649
0.14864
0.10016
-0.0066727
-0.038564
-0.081935
-0.048131
-0.015283
-0.04271
-0.075876
-0.054509
-0.039202
-0.058017
-0.03665
-0.028996
-0.040158
-0.011775
0.022667
0.069866
-0.016559
-0.091184
-0.12276
-0.068222
-0.045261
-0.069179
-0.078109
-0.087038
-0.09246
-0.10777
-0.1167
-0.079703
-0.085125
-0.074282
-0.046855
-0.024213
-0.021343
-0.061844
-0.087038
-0.13137
-0.078746
-0.057061
-0.059612
-0.070455
-0.10458
-0.10298
-0.064077
-0.043347
-0.043028
-0.043985
-0.011775
0.013419
0.047861
0.026813
0.011505
0.011505
0.060936
0.1295
0.13907
0.11483
0.074012
0.048499
0.037656
0.067314
0.094741
0.081028
0.059979
0.060617
0.079114
0.078157
0.0051269
-0.064714
-0.095011
-0.067903
-0.047493
-0.052915
-0.01624
0.021072
0.055515
0.078157
0.061574
0.090914
0.11005
0.11834
0.21178
0.26727
0.24303
0.11132
0.11483
0.10941
0.099843
0.029683
0.025537
0.0073593
-0.080979
-0.089589
-0.08353
-0.098838
-0.12595
-0.14317
-0.13998
-0.12499
-0.069817
-0.061844
-0.077471
-0.081935
-0.11255
-0.10553
-0.11032
-0.14572
-0.17314
-0.1792
-0.14604
-0.12467
-0.094054
-0.11702
-0.11957
-0.098838
-0.093735
-0.060569
-0.068222
-0.079065
-0.062482
-0.018472
0.021072
0.011505
0.024899
0.0041702
0.050093
0.10558
0.074012
0.098568
0.084536
0.048499
0.043396
0.089
0.10208
0.066677
0.064444
0.0099106
0.031278
0.03638
-0.00061343
-0.027721
-0.062163
-0.044304
0.0067215
0.0095917
-0.011137
-0.011456
-0.0073105
-0.02804
0.0038513
0.0019378
-0.011456
0.008635
-0.029634
-0.023256
-0.018472
-0.012094
-0.028678
-0.035375
0.0076782
0.092827
0.14034
0.075287
0.06572
0.12057
0.12918
0.14449
0.14066
0.12631
0.082941
0.087087
0.068909
0.035104
0.033829
-0.028678
-0.05419
-0.038564
-0.087995
-0.080341
-0.099157
-0.14189
-0.13806
-0.10809
-0.092778
-0.11383
-0.13647
-0.14412
-0.10075
-0.091503
-0.087357
-0.023575
-0.060887
-0.059931
0.01023
0.029045
0.023305
0.055515
0.1008
0.096973
0.1059
0.072736
0.037337
0.060298
0.026175
0.022348
-0.00093234
-0.0069916
-0.049088
-0.091822
-0.087357
-0.053871
-0.019429
-0.043985
-0.036012
-0.034099
-0.029634
2.4388e-05
-0.018472
-0.055147
-0.056742
-0.035056
-0.0038025
-0.0095429
-0.022618
-0.055466
-0.062482
-0.044942
-0.0079484
0.0051269
-0.009224
-0.023575
-0.038564
0.004808
0.018202
0.0060837
0.0038513
-0.046218
-0.019748
-0.021343
-0.056104
-0.054509
-0.083849
-0.064714
-0.010819
-0.01624
-0.020705
-0.010181
0.017564
0.0095917
0.073055
0.059342
0.032234
0.050412
0.030959
0.067314
0.089319
0.061255
0.038612
0.03638
0.03351
0.02458
0.097611
0.070822
0.031278
0.036061
0.022348
0.018202
-0.0015702
-0.02517
-0.031229
-0.023256
0.014694
0.004808
-0.043028
-0.066947
-0.049088
0.012781
0.039888
0.069547
0.074012
0.055834
0.054558
0.076882
0.13556
0.10271
0.10813
0.059979
0.058066
0.082941
0.066677
0.048499
0.028726
0.027451
0.061893
0.061574
0.023624
-0.014645
-0.02198
0.017564
0.070503
0.053282
0.0013
-0.014964
-0.084806
-0.084806
-0.096605
-0.11191
-0.13806
-0.15943
-0.15401
-0.094373
-0.080341
-0.13169
-0.13328
-0.10777
-0.087038
-0.07173
-0.081298
-0.11925
-0.11861
-0.082573
-0.035056
-0.044942
-0.03378
-0.047493
-0.033461
-0.032186
-0.030591
0.021391
0.028088
-0.00061343
-0.014645
0.031596
0.088362
0.064763
0.012781
-0.0060349
0.027132
0.055515
0.012143
-0.028359
-0.04558
-0.066309
-0.058974
-0.06312
-0.038883
-0.0073105
-0.0105
-0.024213
0.019159
0.015651
-0.034418
-0.02517
-0.013689
0.042758
0.061893
0.015651
-0.015602
-0.031548
-0.024532
0.00098112
0.045947
0.061255
0.078476
0.084536
0.084536
0.090595
0.096654
0.01884
0.0028946
0.01597
0.026175
0.014375
0.031596
0.027451
0.0057648
-0.013051
0.013419
0.066995
0.023943
-0.0095429
-0.0085862
0.0035324
0.028407
0.008635
-0.052596
-0.078427
-0.032186
-0.017835
-0.048131
-0.069498
-0.10968
-0.10777
-0.064714
-0.057379
-0.051639
-0.059612
-0.034737
-0.029315
0.013738
0.02777
0.050093
0.05392
0.025537
0.011505
0.03064
0.023305
0.03064
0.0079971
0.0035324
0.035423
0.03638
0.013738
0.035423
0.049774
0.035423
0.10303
0.14034
0.083898
0.067314
0.056471
0.063806
0.075287
0.083579
0.043077
0.042121
0.060617
-0.0105
0.0016189
-0.009224
-0.0018891
-0.029634
-0.029953
-0.025488
-0.053552
-0.091503
-0.10362
-0.070136
-0.057698
-0.068222
-0.058974
-0.086719
-0.085125
-0.058655
-0.075876
-0.088314
-0.084168
-0.053234
-0.040796
-0.014327
-0.040158
-0.053234
-0.068541
-0.10011
-0.069817
-0.03952
-0.037607
-0.031548
-0.051639
-0.038883
-0.018153
-0.015921
-0.066628
-0.073963
-0.051639
-0.04558
-0.0085862
-0.016878
-0.054828
-0.072687
-0.085443
-0.075876
-0.071093
-0.061525
-0.062163
-0.032823
-0.005716
0.026813
0.088681
0.13078
0.10048
0.12153
0.17511
0.19169
0.15087
0.097611
0.061893
0.10048
0.13365
0.090276
0.065082
0.030002
0.031278
0.064763
0.058066
0.054558
0.05392
0.036699
0.015013
0.073374
0.087725
0.056153
0.061255
0.027451
0.024899
0.058066
0.044034
-0.0089051
-0.081935
-0.090546
-0.047174
-0.017516
-0.043347
-0.073644
-0.057698
-0.056104
-0.028996
-0.056104
-0.10043
-0.10681
-0.08927
-0.055785
-0.066628
-0.071093
-0.11797
-0.12945
-0.11733
-0.049088
0.0051269
-0.035375
-0.089908
-0.11191
-0.099794
-0.088633
-0.10011
-0.11
-0.11191
-0.077152
-0.1033
-0.12116
-0.10298
-0.13073
-0.1336
-0.069817
-0.043347
-0.02804
-0.0050782
-0.0082673
-0.028678
-0.00093234
0.02171
0.022348
0.020116
-0.025488
0.018202
0.066358
0.025218
-0.0098618
-0.023894
-0.017835
0.025537
0.038612
0.017246
0.019159
0.095378
0.089
0.1193
0.12249
0.085492
0.057428
0.052326
0.078476
0.1228
0.14513
0.075606
0.063487
0.090914
0.11579
0.12025
0.1008
0.1346
0.1346
0.12536
0.15629
0.082303
-0.002208
0.017246
0.048818
0.054558
-0.010181
-0.050363
-0.11255
-0.10777
-0.066309
-0.066628
-0.059293
-0.081298
-0.08927
-0.12244
-0.08353
-0.058974
-0.10362
-0.10936
-0.14572
-0.10809
-0.077471
-0.058336
-0.10266
-0.13424
-0.10043
-0.069817
-0.041434
-0.051639
-0.038564
-0.024851
-0.047812
2.4388e-05
-0.00061343
-0.028678
-0.027721
-0.033142
-0.00061343
0.015332
0.032234
0.047542
0.047861
0.043715
0.047542
0.052326
0.027132
0.0095917
0.044991
0.092827
0.12249
0.032234
0.011505
0.073055
0.058066
0.02777
-0.012413
-0.028996
-0.053871
-0.022618
0.0089539
0.03638
0.083579
0.078795
0.056471
0.075606
0.14226
0.13716
0.096973
0.060936
0.021391
0.038612
0.058385
0.018202
0.024899
0.045629
0.01597
-0.016559
0.00098112
-0.0028458
-0.022937
-0.0025269
-0.0076295
0.020116
0.029045
-0.005716
-0.041434
-0.058974
-0.069498
-0.091503
-0.091503
-0.11638
-0.11606
-0.12116
-0.086081
-0.066628
-0.091822
-0.10203
-0.080979
-0.054509
-0.038564
-0.050044
-0.071411
-0.061206
-0.014964
0.022348
0.0131
0.044353
0.079433
0.071779
0.11196
0.057109
0.080071
0.080071
0.057747
0.08326
0.12791
0.16745
0.13046
0.089
-0.017516
0.0079971
0.05392
0.01884
0.0073593
-0.011456
-0.00029452
0.078795
0.1177
0.08326
0.058704
0.071141
0.054877
0.099524
0.076563
0.031915
0.046585
0.054239
0.054558
0.031915
-0.029634
-0.087357
-0.10203
-0.092141
-0.071411
-0.045261
-0.062801
-0.055785
-0.041753
-0.0105
0.0131
-0.026445
-0.065033
-0.06599
-0.043028
-0.034737
-0.070774
-0.083211
-0.12212
-0.10745
-0.087676
-0.095968
-0.080341
-0.087357
-0.073325
-0.069179
-0.05419
-0.053234
-0.053552
-0.075876
-0.1269
-0.094054
-0.072049
-0.086081
-0.093416
-0.12435
-0.1167
-0.055147
-0.070455
-0.092141
-0.081617
-0.054828
-0.065352
-0.032504
-0.013051
-0.025488
0.0038513
-0.0044404
0.026813
0.031278
0.047223
0.026813
0.016289
0.031915
0.051688
0.087725
0.073693
0.057109
0.10303
0.12918
0.1464
0.1346
0.096335
0.098568
0.14768
0.17861
0.17702
0.15948
0.11643
0.15183
0.20732
0.20955
0.19169
0.18212
0.1665
0.18053
0.19169
0.18818
0.11802
0.044991
-0.0066727
0.042758
0.050412
-0.0060349
-0.044942
-0.10075
-0.082573
-0.066628
-0.077152
-0.08927
-0.073963
-0.096286
-0.11861
-0.088633
-0.12786
-0.15528
-0.14667
-0.19387
-0.17091
-0.15465
-0.17219
-0.19642
-0.21301
-0.21652
-0.19068
-0.13487
-0.15305
-0.16517
-0.13232
-0.0864
-0.027721
-0.045899
-0.11191
-0.11733
-0.064077
-0.044304
-0.060569
-0.043985
-0.073963
-0.074601
-0.029315
-0.011137
0.021391
0.028407
0.030002
0.036061
0.084536
0.10845
0.082622
0.070185
0.06572
0.12663
0.12185
0.096973
0.077838
0.042121
0.080709
0.11962
0.10176
0.065401
0.051369
0.047223
0.058385
0.086768
0.069866
0.027451
0.0076782
-0.028359
0.008316
0.08039
0.02777
-0.014008
0.032872
0.057747
0.023305
0.030321
0.046904
0.1126
0.14832
0.13684
0.1665
0.21082
0.13237
0.13588
0.11388
0.088362
0.028407
0.028088
-0.0034836
-0.0098618
0.039888
-0.029634
-0.025807
0.021391
0.016289
-0.01624
-0.0034836
0.023305
-0.00061343
0.015651
0.016608
0.1649
0.26376
0.16235
0.14385
0.11834
0.096016
0.1177
0.1547
0.14704
0.1818
0.076244
0.040845
0.085811
0.0073593
-0.099476
-0.11415
-0.13902
-0.087676
-0.082254
-0.13998
-0.12435
-0.093097
-0.093735
0.055196
0.10208
0.061893
0.048818
0.039888
0.091552
0.18212
0.13173
0.040207
0.087725
0.096335
-0.034099
-0.079703
-0.066309
-0.14157
-0.21365
-0.26467
-0.27201
-0.26021
-0.28444
-0.2972
-0.29337
-0.26244
-0.23724
-0.24777
-0.27998
-0.26945
-0.20727
-0.19292
-0.21269
-0.19706
-0.19961
-0.16421
-0.12084
-0.095011
-0.094054
-0.078427
-0.063439
-0.051958
-0.024851
-0.01337
-0.023894
-0.013051
-0.031548
-0.0018891
0.019159
0.014056
-0.011775
-0.032504
-0.013051
0.013738
0.034786
0.0092728
0.0095917
0.028407
0.032553
0.061255
0.068271
0.038294
0.050412
0.051688
0.044991
-0.010819
-0.02198
-0.034737
-0.009224
0.0079971
-0.018153
-0.023575
-0.041434
-0.08353
-0.062482
-0.028678
-0.044304
-0.028678
-0.02804
-0.050682
0.0099106
0.025856
-0.0028458
0.0013
-0.026764
0.0044891
0.051688
0.076882
0.056153
0.068271
0.082622
0.098568
0.13524
0.12886
0.10941
0.093146
0.03351
0.050093
0.075925
0.11643
0.11611
0.054877
0.075287
0.17224
0.13779
0.051369
0.070185
0.076882
0.10271
0.12185
0.074968
0.0073593
-0.018791
-0.0063538
-0.010819
-0.048769
-0.063439
-0.11446
-0.11606
-0.1049
-0.11574
-0.085125
-0.08066
-0.061844
-0.065671
-0.067266
-0.037607
-0.041115
-0.049088
-0.041115
-0.0076295
-0.0012513
-0.017516
0.016608
0.027132
0.0070404
0.057109
0.10367
0.058066
0.061255
0.088044
0.080709
0.12185
0.088362
0.032553
0.054239
0.0079971
0.011186
0.014694
0.043715
0.015013
-0.025807
-0.049407
-0.053552
-0.016559
-0.052596
-0.050363
0.028088
0.031596
0.0060837
-0.013051
-0.0085862
-0.03091
-0.042391
-0.058336
-0.081617
-0.058974
-0.098838
-0.095011
-0.066628
-0.087038
-0.060569
-0.062482
-0.075557
-0.073963
-0.059612
-0.047812
-0.065033
-0.093735
-0.12913
-0.097881
-0.089908
-0.11765
-0.11861
-0.13392
-0.13105
-0.096286
-0.096605
-0.076514
-0.053552
-0.038883
-0.034099
0.010548
0.02458
0.052007
0.02777
-0.0041214
0.049774
0.086768
0.06859
0.056471
0.019478
0.021072
0.049137
0.093146
0.12695
0.096335
0.096016
0.097292
0.10845
0.082941
0.090595
0.15151
0.16394
0.15533
0.1531
0.14481
0.13843
0.1834
0.18595
0.16745
0.19615
0.14417
0.078157
0.070822
0.082622
0.064125
0.091233
0.049774
-0.065033
-0.093735
-0.084487
-0.1285
-0.12084
-0.14731
-0.13392
-0.10171
-0.1167
-0.10203
-0.11574
-0.1269
-0.1218
-0.055466
-0.026445
-0.082573
-0.10426
-0.11415
-0.070136
-0.078746
-0.12977
-0.14763
-0.12818
-0.12307
-0.091184
-0.063439
-0.1033
-0.071411
-0.027402
-0.024213
-0.0066727
-0.034099
-0.069498
-0.057061
-0.028996
-0.023575
-0.048769
-0.035375
-0.053234
-0.066309
-0.040796
-0.017197
0.02171
-0.0053971
-0.014327
0.018521
0.098249
0.12631
0.071779
0.039888
0.01597
0.035423
0.10303
0.12312
0.15406
0.10239
0.063806
0.12153
0.14385
0.11515
0.093784
0.11547
0.13429
0.14609
0.10399
0.1244
0.15023
0.10622
0.10845
0.096016
0.052326
0.029364
-0.014327
-0.073963
-0.074919
-0.025807
-0.044623
-0.10904
-0.10617
-0.095011
-0.084168
-0.096924
-0.14604
-0.17346
-0.18207
-0.15879
-0.13487
-0.12276
-0.13583
-0.13774
-0.14285
-0.11319
-0.029634
-0.06312
-0.086081
-0.063758
-0.067903
-0.03665
-0.059931
-0.056423
-0.046855
-0.026126
-0.024851
-0.036969
-0.017835
-0.02198
0.008635
0.038294
0.084217
0.1311
0.14034
0.13142
0.16044
0.22868
0.2526
0.26727
0.25675
0.22358
0.18499
0.1834
0.14066
0.16426
0.12823
0.11356
0.06859
0.067952
0.052007
-0.0018891
-0.036012
-0.095011
-0.064077
-0.10011
-0.17314
-0.19324
-0.19866
-0.17793
-0.16868
-0.17665
-0.1926
-0.19005
-0.16326
-0.15847
-0.11351
-0.0864
-0.068222
-0.051639
-0.027402
0.014694
-0.011456
-0.046218
-0.057379
0.039569
0.10176
0.023624
0.015013
0.027132
0.027132
0.03638
0.052645
0.028088
0.028088
0.029045
0.027451
0.061255
0.018521
-0.029634
-0.014008
-0.011456
2.4388e-05
-0.018153
-0.06312
-0.069498
-0.093735
-0.072049
-0.053234
-0.045261
-0.091503
-0.069179
-0.054828
-0.046855
-0.015602
-0.027402
-0.044942
-0.05132
-0.050044
-0.04558
-0.072687
-0.038883
-0.029953
-0.034418
-0.02198
0.038612
0.10112
0.093146
0.096016
0.13301
0.1767
0.20891
0.19839
0.10367
0.085173
0.14098
0.13301
0.11388
0.091233
0.00098112
0.0035324
0.057109
0.015332
0.029045
0.015013
-0.01337
-0.037288
-0.032823
-0.0085862
-0.021024
-0.033142
-0.053552
-0.031548
-0.024532
-0.049407
-0.058974
-0.084487
-0.075238
-0.035375
0.0057648
-0.052915
-0.050682
-0.039839
-0.056423
-0.045899
-0.043985
-0.070455
-0.067266
-0.060569
-0.038564
-0.037288
-0.060569
-0.084806
-0.091503
-0.071093
-0.09246
-0.057698
-0.067903
-0.091503
-0.034099
0.010548
0.036699
0.0051269
-0.03378
-0.021343
0.0003433
0.026813
0.0057648
0.01023
-0.035375
-0.0044404
0.083579
0.072736
0.079114
0.056153
0.032872
0.020116
0.09793
0.10016
0.069547
0.039569
-0.005716
0.04818
0.05679
0.033191
0.019797
0.032234
0.049774
0.068271
0.12185
0.1665
0.25738
0.24208
0.17255
0.15246
0.10845
0.11196
0.10463
0.1075
0.094103
0.084536
0.033191
-0.037607
-0.033142
-0.050044
-0.094054
-0.075238
-0.10809
-0.12467
-0.11893
-0.12403
-0.1285
-0.17793
-0.20854
-0.19834
-0.1639
-0.15433
-0.12499
-0.15241
-0.19419
-0.19802
-0.18271
-0.17793
-0.13456
-0.10617
-0.070455
-0.040796
-0.012094
-0.014327
-0.012413
-0.016559
-0.06025
-0.024851
-0.02517
-0.057379
-0.053552
-0.047812
0.0016189
0.037337
0.024262
0.051688
0.07146
0.10431
0.10399
0.15501
0.17383
0.1464
0.14417
0.14736
0.15884
0.20221
0.16107
0.078476
0.075925
0.10144
0.1059
0.086768
0.034786
0.059342
0.078157
0.044353
0.054239
0.026494
0.063487
0.044672
0.056153
0.09187
0.06572
-0.015921
-0.051639
-0.014964
-0.014964
-0.022299
-0.031548
-0.045261
-0.064714
-0.1033
-0.090546
-0.086081
-0.12371
-0.14699
-0.18813
-0.15433
-0.11702
-0.1403
-0.13934
-0.1556
-0.1285
-0.066947
-0.044942
-0.044304
-0.028678
-0.011775
-0.021343
-0.0069916
-0.024213
-0.040796
-0.041115
-0.053234
-0.021343
-0.020386
-0.041434
-0.059612
-0.035375
-0.039202
-0.041115
0.0019378
0.022029
0.032234
0.035423
0.04531
0.10048
0.090276
0.078157
0.094103
0.11132
0.10431
0.071779
0.071779
0.038612
0.026175
0.056471
0.054877
0.067952
0.065401
0.057109
0.048499
0.052007
0.048818
0.030959
0.013419
0.004808
0.030321
0.063169
0.084536
0.077838
0.11611
0.12918
0.1126
0.082622
0.069547
0.089638
0.11515
0.08326
0.10654
0.090595
0.045629
0.017883
0.0013
-0.03378
-0.072049
-0.11415
-0.15114
-0.17761
-0.17251
-0.1387
-0.076514
-0.063758
-0.078109
-0.095649
-0.10298
-0.089908
-0.10809
-0.14699
-0.15018
-0.08066
-0.070455
-0.1033
-0.11
-0.14285
-0.12052
-0.090546
-0.076833
-0.045899
-0.031548
2.4388e-05
0.0013
0.036699
0.075925
0.052007
0.040845
0.036699
0.077201
0.079752
0.035742
0.0076782
0.0067215
0.0054459
0.0060837
0.019797
0.029683
0.02777
0.026175
0.0099106
0.035104
0.010867
-0.026764
-0.00093234
0.004808
0.011824
0.019159
-0.0018891
-0.026126
-0.043028
-0.024213
0.04531
0.11164
0.11738
0.1547
0.15406
0.11866
0.14864
0.14481
0.12025
0.14003
0.15406
0.13652
0.13365
0.10112
0.046585
0.048499
0.033829
-0.015602
-0.021024
-0.042072
-0.056104
-0.029634
-0.02804
-0.012094
-0.051639
-0.10777
-0.13838
-0.10075
-0.10713
-0.12595
-0.12116
-0.14189
-0.15943
-0.12626
-0.11287
-0.13838
-0.16071
-0.1218
-0.11319
-0.06312
-0.061844
-0.091822
-0.087995
-0.065352
-0.040158
-0.044623
-0.038245
-0.050044
-0.04845
-0.031229
-0.0076295
0.017883
0.0032135
0.019797
0.049455
0.059023
0.10973
0.088362
0.041802
0.01023
0.015332
0.032872
0.013738
-0.0012513
-0.018153
0.0067215
0.032553
0.037337
0.029683
0.036699
0.032872
0.037975
0.065401
0.060617
0.037656
0.013419
0.0099106
0.051369
0.05679
0.023943
0.018202
-0.036969
-0.037288
0.0054459
0.0095917
-0.00093234
0.016289
0.016289
0.0099106
0.023305
0.015651
0.029045
0.047223
-0.022937
-0.021024
0.012781
-0.00093234
-0.06025
-0.046536
-0.0082673
-0.013051
-0.016559
-0.11989
-0.10841
-0.048769
-0.0069916
0.027451
0.029683
-0.018472
-0.039202
0.00098112
0.012462
0.020435
0.062212
0.08326
0.067314
0.050412
0.061893
0.087725
0.054239
0.042758
0.056471
0.066995
0.094741
0.054239
0.0035324
-0.043347
-0.036331
-0.057379
-0.094054
-0.12626
-0.11446
-0.054828
-0.021024
-0.05419
-0.052915
-0.049407
-0.020705
-0.016878
-0.00029452
-0.019748
-0.03952
-0.010819
-0.044942
-0.024851
-0.01911
-0.0034836
-0.022937
-0.058974
-0.062482
-0.013689
-0.0038025
-0.061206
-0.046855
0.0035324
-0.002208
0.032553
0.065082
-0.0047593
0.02458
0.028407
0.037018
0.039888
0.024899
-0.0041214
0.0089539
0.015332
-0.02804
0.0003433
0.022667
0.0025757
-0.019748
-0.0082673
0.019797
-0.025488
-0.067585
-0.11128
-0.073325
-0.046536
-0.070455
-0.056742
-0.069179
-0.061525
-0.031867
0.011505
0.022986
0.021391
0.031596
0.022348
0.09187
0.08039
0.031596
0.021072
0.02171
0.067952
0.058704
0.05105
0.027451
0.018521
-0.0073105
0.022986
0.059023
0.020116
-0.0053971
-0.023575
-0.042072
0.0044891
0.0054459
-0.041434
-0.059931
-0.053234
-0.059293
-0.083211
-0.079703
-0.11064
-0.11351
-0.10458
-0.069179
-0.026764
-0.023894
-0.0028458
0.030321
0.069547
0.078795
0.048818
0.026494
-0.0018891
0.10048
0.14959
0.15533
0.13333
0.051688
0.029045
0.051369
0.061574
0.046904
0.037337
0.014375
0.0013
0.02171
0.023305
-0.024851
-0.073963
-0.15847
-0.12658
-0.078746
-0.0864
-0.11191
-0.11
-0.087038
-0.041115
-0.028996
-0.080022
-0.083849
-0.06312
-0.042391
-0.0047593
-0.011775
-0.057379
-0.081935
-0.067903
-0.050682
-0.073006
-0.078427
-0.091822
-0.0864
-0.074919
-0.05419
-0.0044404
-0.038245
-0.036331
0.015013
0.046585
0.090276
0.043715
0.042439
0.06572
0.19137
0.16968
0.14353
0.093146
0.03638
0.076244
0.12472
0.13556
0.12025
0.093146
0.089319
0.028407
0.063487
0.061893
-0.005716
-0.045899
-0.040796
-0.023256
-0.031867
-0.04558
-0.071411
-0.098519
-0.084487
-0.055147
-0.034099
-0.076514
-0.082573
-0.02517
-0.01624
0.014694
-0.025488
-0.099476
-0.11191
-0.071093
-0.070136
-0.10298
-0.094373
-0.10649
-0.073644
-0.03952
-0.042391
0.022029
0.0092728
-0.01624
0.0092728
0.017883
0.020116
0.0022568
0.0013
-0.0050782
0.014375
-0.030272
-0.074919
-0.079065
-0.097881
-0.10298
-0.09246
-0.10522
-0.1033
-0.10426
-0.11446
-0.11383
-0.08353
-0.093416
-0.09246
-0.090865
-0.10362
-0.034418
0.011505
-0.021343
-0.06312
-0.0982
-0.088314
-0.028996
-0.018791
-0.017197
0.02171
0.042439
0.017246
0.058704
0.048499
-0.0066727
0.028726
0.05679
0.079114
0.08326
0.052326
0.012462
0.057747
0.056153
0.082941
0.10558
0.097292
0.078476
0.054877
0.052326
0.079433
0.056153
0.0044891
0.069547
0.067314
0.029683
0.004808
0.037975
0.010548
0.014694
0.059661
0.064763
0.070822
0.089957
0.081346
0.058385
0.079114
0.04531
0.02171
0.0079971
-0.021343
-0.009224
-0.019748
-0.045899
-0.090546
-0.12531
-0.10968
-0.098838
-0.08066
-0.095968
-0.075876
-0.068222
-0.093735
-0.081617
-0.094054
-0.1387
-0.14093
-0.12307
-0.10872
-0.11542
-0.092778
-0.12499
-0.13806
-0.10872
-0.1218
-0.08927
-0.084806
-0.086719
-0.024213
-0.0015702
0.008635
0.0073593
0.0060837
0.020116
0.00066221
-0.035056
-0.060569
-0.079065
-0.095649
-0.073006
-0.043985
-0.027402
-0.0060349
0.036061
0.027132
0.0070404
0.036699
0.03925
0.059023
0.1126
0.10048
0.17861
0.23474
0.18914
0.17351
0.15884
0.15374
0.17351
0.18404
0.10813
0.087725
0.14704
0.15501
0.13652
0.057428
0.010548
0.0089539
-0.016878
-0.018153
-0.06886
-0.067903
-0.090227
-0.092778
-0.057379
-0.087676
-0.086081
-0.1285
-0.13583
-0.11319
-0.10043
-0.064077
-0.10171
-0.12945
-0.15656
-0.12754
-0.11702
-0.14061
-0.13105
-0.13934
-0.11797
-0.071093
-0.059931
-0.031867
-0.049088
-0.038564
-0.015283
0.021391
0.081984
0.097292
0.12217
0.063806
0.097611
0.098568
0.04531
0.074012
0.05679
0.064125
0.090595
0.072417
0.046266
0.073055
0.064444
0.043715
0.1008
0.070503
0.023305
0.012781
0.012781
0.057109
0.092508
0.10622
0.066677
0.057109
0.024899
0.044672
0.14864
0.1413
0.11037
0.11388
0.11101
0.10973
0.097611
0.10941
0.098249
0.092508
0.12185
0.089319
0.031278
-0.051639
0.0016189
0.047542
0.022667
0.021391
0.0041702
-0.021024
-0.05419
-0.069179
-0.061844
-0.060887
-0.11096
-0.1674
-0.14699
-0.1202
-0.14253
-0.16517
-0.18399
-0.14317
-0.10362
-0.089908
-0.10235
-0.081298
-0.047812
-0.047493
-0.0031647
0.03925
0.015651
0.029045
0.040207
0.070503
0.066358
0.044034
0.010867
0.0028946
0.047861
0.042439
0.14577
0.11579
0.069228
0.060936
0.064444
0.074968
0.07146
0.10239
0.14991
0.1598
0.10813
0.060936
0.069228
0.037975
0.03925
0.060617
0.072736
0.080071
0.038612
0.044991
0.020754
0.05392
0.098886
0.072098
0.039569
-0.017516
0.012781
0.014375
-0.016878
0.0032135
-0.033142
-0.015921
0.0044891
0.02777
0.011186
0.017246
0.0032135
-0.032504
-0.0095429
-0.0063538
-0.044942
-0.041434
-0.043985
-0.0063538
0.015332
0.014694
0.0089539
-0.036969
-0.051958
-0.064077
-0.058017
-0.055147
-0.043347
0.0028946
0.019478
0.013738
-0.009224
-0.058974
-0.049726
-0.027402
-0.020386
-0.03378
-0.020705
-0.029634
0.016289
0.11515
0.10495
0.11898
0.12344
0.11802
0.14066
0.1582
0.15852
0.14162
0.11356
0.10526
0.15438
0.14321
0.05679
0.03638
0.0016189
-0.0031647
0.026494
0.016927
-0.026126
-0.0098618
0.047223
0.047223
0.068271
0.035423
-0.0073105
0.029364
0.048499
0.069228
0.065082
0.046266
0.037018
0.060617
0.063487
0.052963
0.068271
0.0095917
-0.014645
0.026175
0.035104
0.052326
0.059342
-0.026764
-0.047812
-0.046536
-0.041753
-0.067903
-0.06025
-0.068222
-0.047812
0.0003433
-0.0079484
-0.00061343
-0.021343
-0.024851
-0.027721
-0.0076295
0.015651
2.4388e-05
-0.02517
-0.056742
-0.0098618
-0.00029452
-0.033461
-0.048131
-0.069179
-0.045899
-0.00093234
0.016289
0.01023
0.049774
0.028088
0.0041702
0.042439
0.049774
0.026494
0.036699
0.023624
0.043077
0.044034
0.047223
0.027132
0.004808
0.015651
0.057747
0.065401
0.036061
0.055196
0.080709
0.087087
0.097292
0.11164
0.059979
0.0079971
0.0028946
0.0095917
0.017564
0.060298
0.038612
0.05679
0.12121
0.10558
0.12823
0.14449
0.10526
0.11738
0.15565
0.15023
0.15661
0.14066
0.083579
0.059023
0.080709
0.052326
0.013419
-0.043347
-0.064077
-0.049726
-0.072687
-0.10745
-0.091822
-0.065671
-0.059293
-0.03378
-0.038883
-0.067903
-0.056104
-0.10585
-0.069817
-0.031229
-0.035694
-0.075238
-0.087038
-0.078746
-0.02804
2.4388e-05
-0.049726
-0.059293
-0.017835
-0.0047593
0.0032135
-0.045261
-0.073963
-0.071411
-0.060887
-0.041115
-0.02517
0.004808
-0.020386
0.020754
0.058704
0.10208
0.19201
0.18786
0.15757
0.17893
0.18754
0.21752
0.25611
0.25037
0.19966
0.22039
0.16171
0.10877
0.09793
0.028088
0.031278
0.069547
0.031915
-0.02198
-0.0095429
0.01597
-0.020067
0.008635
0.019159
0.0016189
-0.0066727
-0.0095429
0.056471
0.092508
0.067314
0.030321
-0.0089051
-0.022618
-0.0018891
0.038294
0.035104
0.0067215
0.021072
0.032553
0.071141
0.035104
-0.065671
-0.089589
-0.06599
-0.047812
-0.046855
-0.038245
-0.079065
-0.083849
-0.074282
-0.087995
-0.060887
-0.050044
-0.055466
-0.042072
-0.029315
-0.014008
-0.032823
-0.058974
-0.086081
-0.025488
-0.0047593
0.019478
0.084536
0.043715
0.044034
0.093784
0.12025
0.12982
0.14162
0.14098
0.17415
0.2223
0.19201
0.16426
0.17479
0.12791
0.13014
0.10909
0.075287
0.076882
0.058385
0.09187
0.11356
0.08326
0.026813
0.0038513
0.041483
0.078795
0.095697
0.065401
-0.0085862
-0.040477
-0.031867
-0.020386
0.00098112
0.042758
-0.014964
-0.051639
-0.0085862
0.02171
0.079114
0.067633
0.060617
0.068909
0.11005
0.11834
0.10973
0.048818
-0.0076295
0.022986
-0.0028458
-0.052277
-0.081617
-0.14157
-0.12116
-0.10936
-0.13934
-0.14795
-0.16134
-0.14923
-0.15879
-0.10649
-0.079065
-0.079703
-0.056423
-0.069817
-0.028996
-0.025807
-0.049088
-0.059931
-0.074282
-0.057379
-0.017516
0.01884
-0.0053971
0.015332
0.017564
0.03925
0.073055
0.049137
-0.0076295
0.013419
0.047223
0.064763
0.10718
0.082622
0.043077
0.055196
0.087725
0.12631
0.18722
0.20763
0.13524
0.13333
0.13014
0.14959
0.13684
0.11069
0.066358
0.077838
0.094741
0.08326
0.079433
-0.03665
-0.050363
0.014375
0.011824
-0.0025269
-0.005716
-0.032186
-0.070136
-0.036331
0.0013
-0.0060349
-0.043347
-0.073006
-0.025807
-0.010819
-0.072687
-0.14253
-0.17793
-0.15018
-0.090227
-0.055466
-0.088633
-0.10362
-0.094054
-0.066628
-0.016878
-0.029634
-0.040158
-0.034099
-0.04271
0.00098112
0.0019378
0.017883
0.015013
0.011505
0.0092728
0.0070404
0.071779
0.042439
0.022986
0.023305
0.040207
0.052007
0.019159
-0.011137
-0.014008
0.0003433
0.055515
0.058704
0.010548
-0.046855
-0.044942
-0.013051
0.0092728
0.034467
0.051369
0.047223
0.059661
0.052645
0.0092728
-0.037607
-0.017835
-0.031867
0.0032135
0.049455
0.090276
0.057109
0.045947
0.025218
0.036699
0.072417
0.040207
0.07146
0.13811
0.16777
0.16171
0.06572
-0.0018891
0.025856
0.018202
0.013419
-0.082892
-0.091822
-0.067266
-0.093735
-0.0982
-0.098519
-0.076833
-0.11542
-0.13902
-0.13296
-0.11989
-0.12148
-0.12818
-0.13264
-0.1269
-0.088952
-0.092778
-0.10585
-0.10394
-0.14986
-0.12595
-0.071411
-0.064714
-0.065033
-0.063439
-0.034418
-0.018472
0.0019378
0.0041702
-0.016878
-0.021343
-0.061525
-0.024532
-0.014327
-0.028996
-0.040477
-0.052915
-0.040477
0.0060837
0.016289
-0.0018891
0.019797
0.038294
0.035423
0.08613
0.099843
0.058704
0.044991
0.052326
0.06285
0.059342
0.073693
0.046585
0.024262
0.05105
0.07146
0.071141
0.06572
0.035742
0.057109
0.067633
0.091233
0.12376
0.22326
0.26536
0.25898
0.25866
0.19137
0.15757
0.12631
0.12025
0.16139
0.14449
0.10495
0.081028
0.15438
0.078795
-0.04845
-0.097562
-0.14859
-0.15305
-0.17442
-0.17155
-0.18431
-0.1926
-0.18813
-0.20057
-0.18749
-0.13041
-0.11478
-0.13487
-0.12307
-0.10553
-0.14699
-0.12435
-0.13073
-0.17059
-0.17857
-0.15688
-0.13392
-0.13838
-0.14604
-0.14636
-0.14986
-0.13519
-0.10617
-0.044304
-0.052596
-0.047812
-0.020386
-0.011775
0.015332
-0.0018891
-0.051639
-0.048131
0.014694
0.03925
0.042439
0.088362
0.028726
0.043715
0.08326
0.066995
0.089957
0.13843
0.12599
0.1362
0.17734
0.1885
0.18276
0.1531
0.077201
0.096654
0.097611
0.057747
0.028407
-0.012094
-0.03091
-0.0069916
0.01023
-0.022299
-0.031229
0.039888
0.035104
0.099843
0.098249
0.013419
-0.043347
0.011505
0.097611
0.12727
0.12504
0.081665
0.073055
0.062212
0.022667
0.066677
0.060936
0.008635
-0.012094
-0.027083
-0.055466
-0.013051
-0.078746
-0.11574
-0.11064
-0.132
-0.17282
-0.16326
-0.21652
-0.2197
-0.14317
-0.12754
-0.10872
-0.094373
-0.09533
-0.10394
-0.070136
-0.055147
-0.059293
-0.051001
-0.078746
-0.053234
-0.053234
-0.088633
-0.088633
-0.099157
-0.09246
-0.026764
-0.027083
-0.050363
-0.055466
-0.01337
-0.0044404
0.062531
0.053282
0.014056
0.022348
0.030002
0.04531
0.058066
0.044034
0.016289
0.008635
0.0067215
0.052326
0.11324
0.11324
0.096654
0.095378
0.10526
0.11834
0.098568
0.096654
0.11292
0.14959
0.17479
0.14321
0.073055
0.03925
0.081665
0.087406
0.058385
0.061574
0.11834
0.13301
0.061893
0.061574
0.080071
0.030002
-0.014964
-0.073006
-0.049407
-0.045261
-0.055466
-0.079065
-0.17857
-0.12626
-0.10617
-0.13615
-0.17123
-0.17187
-0.1403
-0.15497
-0.10936
-0.096286
-0.10362
-0.084806
-0.087357
-0.042072
-0.0034836
-0.0047593
-0.054509
-0.078746
-0.06599
-0.052596
-0.014964
-0.0034836
-0.01337
0.0044891
-0.020705
-0.013689
-0.027083
-0.069179
-0.066309
-0.040477
-0.016878
-0.046218
-0.046855
-0.074282
-0.058336
-0.028996
0.051369
0.1193
0.14864
0.11356
0.052326
0.054558
0.071141
0.052007
0.044991
0.030959
0.072736
0.090914
0.030002
-0.033461
-0.078109
-0.051958
-0.019748
-0.019748
-0.036331
-0.014008
-0.0047593
0.029364
0.099524
0.11706
0.15246
0.15055
0.10271
0.15565
0.22326
0.148
0.09187
0.12185
0.11101
0.1177
0.10845
0.073374
0.061255
0.051688
-0.0041214
-0.01911
-0.061206
-0.10203
-0.11287
-0.11574
-0.12116
-0.16804
-0.13264
-0.16198
-0.16358
-0.15146
-0.15528
-0.15146
-0.15847
-0.1639
-0.15178
-0.15018
-0.14444
-0.14253
-0.15752
-0.18654
-0.15433
-0.1403
-0.1623
-0.14253
-0.14891
-0.12595
-0.079703
-0.064395
-0.058974
-0.027083
0.023624
0.045629
0.1193
0.077838
0.040207
0.042121
-0.00061343
0.033191
0.060617
0.038612
0.011186
0.03064
0.025537
0.034467
0.067314
0.039888
0.058066
0.042439
0.047223
0.064444
0.051369
0.024262
0.040207
0.047861
0.074012
0.064763
0.063806
0.008316
0.029364
0.058704
0.025218
0.044034
0.07752
0.12791
0.12567
0.13046
0.1311
0.12089
0.081028
0.098568
0.14098
0.14003
0.10495
0.069228
0.0060837
0.023305
0.084854
0.09506
0.072736
0.0089539
0.017883
0.02171
0.048499
0.010867
-0.044623
-0.053871
-0.049407
-0.026764
-0.014645
-0.025488
-0.045899
-0.031229
-0.066947
-0.092141
-0.026126
-0.04558
-0.06886
-0.026126
-0.00093234
0.073055
0.029045
-0.081935
-0.1033
-0.095011
-0.0982
-0.10298
-0.11383
-0.17538
-0.15911
-0.11893
-0.11415
-0.065352
-0.10107
-0.11797
-0.095968
-0.056742
-0.036331
-0.038883
-0.047493
-0.065033
-0.025807
-0.026126
-0.052596
-0.052277
-0.078109
-0.051001
-0.019429
-0.026764
-0.026764
0.0035324
0.029045
-0.0031647
0.037337
0.031278
0.011824
0.049455
0.0095917
0.041164
0.059023
0.080709
0.087406
0.030002
0.073055
0.07752
0.098568
0.1193
0.10144
0.12025
0.1464
0.14927
0.12153
0.090914
0.061255
0.040845
0.091552
0.070185
0.053282
-0.0012513
-0.023894
0.038612
0.033829
0.010548
-0.0060349
-0.058655
-0.07173
-0.047812
-0.020705
-0.062482
-0.044304
-0.034099
-0.060887
-0.066628
-0.069817
-0.03665
-0.095968
-0.06886
-0.0041214
-0.019429
-0.021024
2.4388e-05
0.016927
0.031278
0.042439
0.020435
-0.016878
-0.018472
-0.049088
-0.053234
-0.047493
-0.093416
-0.14093
-0.17378
-0.15018
-0.11989
-0.093735
-0.13169
-0.132
-0.11128
-0.11829
-0.055147
-0.050363
-0.080022
-0.050682
-0.044304
-0.031548
-0.031229
-0.029315
-0.018791
-0.04271
-0.031867
0.023624
0.078157
0.046585
0.020435
0.050412
0.077201
0.11419
0.073055
0.034467
0.022029
0.070503
0.076244
0.029364
0.0089539
0.0038513
0.02458
0.042758
0.0070404
0.04818
0.03351
0.021072
0.0038513
0.061255
0.080709
0.011186
-0.028678
-0.095968
-0.0864
-0.059931
-0.026764
-0.042072
-0.087676
-0.1049
-0.12403
-0.10936
-0.12626
-0.12658
-0.077152
-0.081298
-0.042072
-0.036969
-0.084487
-0.099794
-0.082892
-0.041115
0.012462
0.0099106
-0.055466
-0.034418
-0.016559
0.013419
0.057109
0.022986
-0.005716
0.016608
0.048818
0.023943
-0.011775
-0.032186
-0.056104
0.0016189
0.058704
0.09187
0.049774
0.017883
0.026175
0.074968
0.10303
0.12185
0.14959
0.18978
0.21146
0.25037
0.2188
0.16267
0.13843
0.060936
0.040526
0.013419
-0.01624
-0.053552
-0.058655
-0.047493
-0.073644
-0.10904
-0.1387
-0.13519
-0.13806
-0.12722
-0.072687
-0.061525
-0.095968
-0.10649
-0.0864
-0.059612
-0.069817
-0.087676
-0.093735
-0.080022
-0.088633
-0.055147
-0.010819
-0.060887
-0.13169
-0.12499
-0.083211
-0.04271
-0.052277
-0.080341
-0.10522
-0.070136
-0.054828
-0.095011
-0.12212
-0.16708
-0.16134
-0.12626
-0.13551
-0.1033
-0.060887
-0.016559
-0.041434
0.00066221
0.037018
0.022986
-0.0098618
-0.015283
0.027451
0.061893
0.074968
0.075925
0.071141
0.059979
0.069228
0.10144
0.1059
0.08613
0.085173
0.080709
0.084854
0.065082
0.028726
0.0131
0.01884
0.040845
0.044991
0.03638
0.0028946
-0.025488
-0.02804
0.0038513
0.03638
0.013738
-0.005716
0.071141
0.094422
0.08326
0.03638
-0.0031647
-0.0034836
0.060617
0.10941
-0.0028458
0.0003433
-0.033142
-0.023256
0.0019378
-0.044942
-0.048131
-0.041753
-0.040477
-0.071093
-0.056742
-0.02198
-0.06025
-0.073006
-0.10139
-0.044623
-0.03952
-0.01337
-0.012732
-0.066309
-0.053552
-0.0085862
0.0070404
-0.00061343
-0.009224
0.031596
-0.0028458
-0.0018891
-0.015921
-0.051639
-0.063439
-0.087995
-0.097243
-0.10745
-0.12786
-0.15847
-0.14157
-0.10649
-0.093735
-0.049726
-0.072368
-0.11064
-0.10011
-0.076514
-0.03665
-0.055147
-0.07173
-0.057379
-0.031867
-0.014327
-0.023256
-0.020386
-0.06599
-0.046536
-0.04845
-0.057379
-0.013689
0.021391
0.017883
0.036061
0.070822
0.11292
0.148
0.10782
0.051688
0.10526
0.11898
0.087406
0.060936
0.051688
0.11196
0.12855
0.070503
-0.012413
0.08326
0.081028
0.052645
0.062212
0.017246
-0.00061343
0.025218
-0.01624
-0.011137
0.011505
-0.0044404
-0.055466
-0.070455
-0.064077
-0.05132
0.0003433
-0.019429
-0.03378
-0.026764
-0.033461
-0.036331
-0.05419
-0.096286
-0.094692
-0.060569
-0.013689
-0.017835
0.014694
-0.0028458
-0.002208
0.040845
0.062212
0.066995
0.059661
0.051688
0.060617
0.08039
0.017246
0.0019378
0.015013
-0.057061
-0.047493
0.0022568
-0.041434
-0.11383
-0.17314
-0.17219
-0.10617
-0.066628
-0.095968
-0.03665
-0.0047593
-0.018791
0.0064026
-0.032504
-0.040477
-0.04271
-0.038883
0.0003433
0.015332
0.014375
-0.042391
-0.053552
-0.033142
-0.03665
-0.0060349
-0.032823
-0.041753
0.014694
0.10016
0.099843
0.052007
0.0095917
0.0073593
0.025537
0.019478
0.028088
0.044353
0.035104
0.0131
0.026813
0.036061
0.023624
0.037656
0.050093
0.029683
0.032234
0.041483
0.037337
0.0044891
-0.014645
0.012781
0.042121
0.031278
0.022029
-0.034099
-0.043985
-0.021024
-0.009224
-0.015921
-0.020386
0.021391
0.047542
0.055834
0.0076782
-0.02517
-0.03952
-0.092141
-0.072687
-0.062801
-0.10936
-0.12244
-0.1285
-0.12786
-0.12882
-0.13774
-0.18686
-0.15911
-0.14221
-0.1438
-0.10649
-0.10649
-0.10617
-0.10458
-0.071411
-0.02804
-0.038564
0.0003433
0.076244
0.10558
0.10526
0.095378
0.12089
0.1413
0.15948
0.15629
0.16937
0.17415
0.14003
0.14577
0.11643
0.10335
0.069547
0.029045
0.021072
-0.017516
0.0003433
0.040207
0.013738
-0.0095429
0.027451
0.066358
0.046585
0.064444
0.026175
0.011824
-0.0044404
-0.022937
-0.0076295
0.023624
0.0079971
-0.023894
-0.013689
-0.01337
-0.011456
0.024262
-0.002208
-0.019748
-0.027083
0.041483
0.07752
0.054239
-0.026445
-0.044304
-0.017835
-0.026445
-0.078109
-0.08066
-0.088314
-0.073006
-0.076514
-0.09533
-0.066309
-0.048131
-0.050044
-0.043985
-0.043347
-0.027083
-0.031229
-0.040158
-0.044304
0.0038513
0.023943
-0.0060349
-0.00029452
-0.033142
-0.026764
-0.015283
-0.028996
0.025218
0.0003433
0.0038513
-0.014327
0.013419
0.011824
-0.027721
-0.01911
-0.026764
-0.012732
-0.031229
-0.043028
-0.066309
-0.061844
-0.045261
-0.035056
-0.0031647
-0.018791
-0.02517
-0.010819
-0.005716
0.01597
0.063487
0.064125
0.066358
0.10813
0.12185
0.10941
0.09793
0.041164
0.061255
0.083898
0.095378
0.14704
0.17383
0.13269
0.076882
0.10208
0.037337
-0.033461
-0.026764
-0.022299
-0.0076295
-0.002208
-0.042391
-0.080022
-0.14954
-0.13073
-0.091184
-0.089589
-0.097562
-0.10522
-0.086081
-0.0982
-0.067903
-0.065033
-0.087357
-0.087038
-0.12626
-0.081617
-0.036012
-0.024213
-0.03952
-0.042391
-0.035375
-0.020705
-0.00093234
-0.048131
-0.044942
0.004808
0.036699
0.044672
0.008635
-0.033142
-0.011775
-0.0085862
-0.041753
-0.07173
-0.044942
-0.044304
-0.032504
-0.01337
0.00098112
0.076882
0.057747
0.08613
0.15087
0.12217
0.16012
0.17192
0.14417
0.097292
0.13014
0.12057
0.08613
0.085173
0.0099106
-0.005716
0.039888
0.036699
0.011824
-0.0076295
-0.0079484
-0.010819
0.05392
0.059661
0.02777
0.022348
0.0054459
0.043077
0.071141
0.067633
0.049774
0.030321
0.03638
0.054558
0.057747
0.029364
0.0044891
0.0019378
-0.0025269
0.013738
-0.0066727
-0.049726
-0.067266
-0.021343
-0.011456
-0.037607
-0.068541
-0.088952
-0.056104
-0.046536
-0.061206
0.0095917
0.02171
-0.0082673
-0.023256
-0.0098618
0.019797
0.01597
-0.0089051
-0.010819
0.02777
0.034467
0.05105
0.058066
0.0032135
0.0013
0.029364
0.063169
0.11515
0.13716
0.14545
0.13429
0.16235
0.12312
0.034148
0.012781
-0.0105
0.046904
0.033829
0.0051269
-0.0098618
-0.058336
-0.078427
-0.087038
-0.082573
-0.10553
-0.10522
-0.030272
-0.0038025
0.033191
0.063806
0.059023
0.068271
0.08039
0.084536
0.072098
0.07146
0.067952
0.060617
0.060617
0.10271
0.1193
0.044353
0.026494
0.028407
0.0067215
0.0044891
-0.010181
-0.031548
-0.046218
-0.021661
-0.027083
-0.049726
-0.04558
-0.062163
-0.042072
0.011824
0.016289
0.02777
0.052007
0.037018
0.0060837
0.036699
0.045629
0.031278
0.025537
0.0028946
0.012462
0.044353
0.015013
-0.013689
-0.014327
0.011824
0.011505
0.047861
0.034467
0.026175
0.078157
0.087087
0.10782
0.072736
0.013738
0.023305
0.025856
0.093465
0.083579
0.038612
-0.023256
-0.021024
-0.0069916
-0.012413
-0.0018891
-0.013689
-0.0069916
-0.0038025
-0.0050782
-0.0069916
-0.009224
-0.0098618
-0.038883
0.0028946
0.034786
0.011186
0.0051269
-0.042391
-0.023256
0.0131
0.017883
0.017564
0.030959
0.042439
0.017246
0.050412
0.046585
0.026494
0.0041702
-0.088633
-0.070136
-0.04271
-0.05132
-0.036012
-0.061844
-0.043985
-0.0031647
0.013419
-0.028678
0.030002
0.085492
0.094422
0.1649
0.1649
0.10495
0.093146
0.11706
0.092508
0.10813
0.10909
0.097292
0.15087
0.11706
0.12025
0.15278
0.10335
0.047861
0.04818
0.032872
0.081346
0.094741
0.043396
-0.024851
0.028407
0.035423
0.023624
-0.0050782
-0.059931
-0.042391
0.038931
0.052645
0.03064
0.023943
-0.012094
-0.033461
-0.0069916
0.011505
-0.01337
-0.022299
-0.066947
-0.0089051
-0.010819
-0.064077
-0.081298
-0.11032
-0.12467
-0.090227
-0.097881
-0.14604
-0.0982
-0.032823
-0.055147
-0.056742
-0.05132
-0.049407
-0.070136
-0.081935
-0.086719
-0.097243
-0.089908
-0.078427
-0.068222
-0.019429
-0.0082673
0.023305
-0.0089051
-0.021343
0.0076782
0.025856
0.048818
0.043715
-0.0034836
-0.0025269
0.04818
0.059661
0.0067215
-0.0079484
-0.01911
0.0067215
0.03638
0.041483
0.063806
0.058704
0.05105
0.05679
0.11132
0.11962
0.082941
0.088362
0.063487
0.11101
0.1531
0.18053
0.16554
0.14959
0.12727
0.20445
0.21242
0.18244
0.19041
0.20923
0.23666
0.24016
0.21082
0.14481
0.12504
0.071141
0.053601
0.050093
0.050412
-0.048131
-0.082254
-0.040158
-0.028678
0.0051269
-0.01337
-0.039202
-0.043028
-0.039202
-0.02517
-0.016559
-0.023256
-0.02517
-0.018153
-0.0025269
-0.03952
-0.033142
-0.08353
-0.081617
-0.071093
-0.052915
-0.083849
-0.055785
-0.028359
-0.02804
-0.041753
-0.027402
-0.046536
-0.081617
-0.13647
-0.091503
-0.069179
-0.091822
-0.097243
-0.11159
-0.084806
-0.06025
-0.068222
-0.092778
-0.078427
-0.061206
-0.052277
0.008635
0.0057648
-0.014964
0.017246
0.0051269
0.020435
0.041164
0.029045
0.0067215
-0.011775
0.0095917
0.030959
0.06859
0.035423
0.044672
0.064444
0.069866
0.073055
0.066995
0.015332
0.004808
0.052326
0.066995
0.080709
0.061255
0.037337
0.058704
0.082941
0.06572
0.07433
0.064763
0.11579
0.099524
0.11037
0.10877
0.078476
0.087725
0.11292
0.15087
0.14959
0.14959
0.12185
0.094422
0.077201
0.092827
0.11547
0.10845
0.09187
0.10271
0.043715
0.047542
0.037975
-0.032504
-0.081935
-0.11702
-0.067903
-0.091503
-0.13806
-0.16485
-0.16262
-0.16007
-0.132
-0.084806
-0.091184
-0.088633
-0.078109
-0.082573
-0.066309
-0.067266
-0.10043
-0.092141
-0.070774
-0.032823
-0.054509
-0.078109
-0.11096
-0.070774
-0.026445
-0.055466
-0.026126
0.02777
0.043715
0.020435
0.057109
0.069228
0.03351
0.01597
-0.0015702
0.060617
0.078795
0.03925
0.034467
0.0131
0.0054459
0.022986
0.025218
0.00066221
-0.00061343
0.040526
0.049137
0.063169
0.043077
0.043715
0.050412
0.024899
0.036061
0.029045
0.056153
0.021391
-0.024851
0.023624
0.052007
0.084536
0.035742
0.090595
0.20572
0.17606
0.11898
0.079114
0.067314
0.061255
0.063806
0.070503
0.098568
0.11419
0.02171
-0.011456
-0.015602
-0.048131
-0.033142
-0.04558
-0.058336
-0.075557
-0.080341
-0.055147
-0.022299
-0.054509
-0.10968
-0.077152
-0.05132
-0.073644
-0.10617
-0.13296
-0.11287
-0.060887
-0.026126
-0.03091
-0.036331
-0.017516
-0.065033
-0.021661
-0.014645
-0.083849
-0.073644
-0.079384
-0.0095429
-0.0044404
-0.041434
-0.044942
-0.053552
-0.035694
-0.027721
0.012143
0.0022568
-0.012094
0.02777
0.043396
0.059979
0.042121
0.02777
-0.0041214
0.010867
0.026494
0.0016189
-0.032823
-0.053234
-0.019429
-0.029634
-0.02804
0.013419
0.0019378
0.0019378
0.011824
0.037018
0.054239
0.031915
0.0041702
-0.024213
0.044991
0.10208
0.09506
0.098568
0.051688
0.086449
0.14704
0.098568
0.15533
0.15597
0.11643
0.11579
0.12472
0.082941
0.11196
0.16044
0.074012
0.082303
0.068909
-0.036331
-0.032823
-0.053552
-0.071093
-0.063439
-0.067266
-0.12754
-0.090546
-0.054828
-0.071093
-0.071093
-0.079065
-0.13583
-0.15752
-0.13998
-0.11893
-0.1218
-0.1167
-0.10745
-0.10936
-0.076195
-0.046855
-0.016878
-0.032823
-0.056423
-0.046855
-0.026764
-0.014964
-0.012413
-0.040158
-0.077471
-0.046536
-0.058017
-0.098838
-0.12244
-0.12084
-0.10745
-0.075557
-0.085443
-0.097243
-0.10617
-0.087357
-0.0864
-0.023575
-0.0031647
-0.0028458
0.031915
0.0073593
0.052007
0.084854
0.019478
0.0044891
0.064125
0.060617
0.081346
0.10431
0.067314
0.085811
0.12823
0.060298
0.052007
0.050731
-0.00093234
-0.03091
-0.021343
0.024899
-0.012732
0.0060837
-0.030272
-0.046855
-0.035375
-0.040158
0.008316
0.045629
0.074649
0.030002
0.019159
0.062531
0.058066
-0.014964
-0.066628
-0.025488
0.0089539
-0.0085862
-0.051639
-0.093416
-0.091184
-0.065033
-0.08927
-0.11191
-0.11829
-0.1202
-0.1438
-0.10011
-0.09533
-0.10936
-0.12467
-0.15975
-0.13487
-0.10872
-0.093097
-0.11128
-0.12595
-0.093416
-0.014964
0.015332
-0.046218
-0.027402
0.017246
0.0016189
0.020754
0.017564
-0.014645
-0.026445
-0.039839
-0.030591
-0.039202
-0.038245
-0.10426
-0.095011
-0.064077
-0.043347
-0.0095429
0.050412
0.070503
0.079433
0.096335
0.10813
0.1008
0.075925
0.057428
0.13397
0.16905
0.12759
0.12408
0.03064
0.0019378
0.026813
0.054239
0.0035324
-0.005716
0.034786
-0.0082673
0.028088
0.019159
-0.019748
-0.091822
-0.091822
-0.064714
-0.03378
0.022986
-0.0085862
-0.057698
-0.073006
-0.07779
-0.073325
-0.039202
-0.040158
-0.028359
-0.01624
0.0035324
-0.0038025
-0.08066
-0.099476
-0.093097
-0.045261
-0.069498
-0.092778
-0.094054
-0.087676
-0.093097
-0.085762
-0.066309
-0.072368
-0.067266
-0.062482
-0.027402
0.0057648
-0.017516
-0.040796
-0.072368
-0.039839
-0.0095429
-0.031229
-0.049088
-0.10139
-0.047812
-0.0105
-0.04271
-0.074919
-0.059931
-0.036331
-0.035056
0.017246
0.0079971
-0.013689
-0.031867
-0.086081
-0.043985
-0.014327
0.0070404
-0.02804
-0.079065
-0.052915
-0.019748
-0.01337
-0.066947
-0.067585
-0.03378
-0.03665
0.0041702
-0.0034836
-0.040477
-0.055785
-0.034099
0.058385
0.12472
0.12599
0.078795
0.076882
0.090276
0.076882
0.096016
0.095378
0.12567
0.148
0.1177
0.11419
0.10271
-0.024213
-0.085762
-0.041115
-0.052277
-0.10043
-0.099157
-0.11159
-0.12276
-0.083211
-0.087357
-0.099476
-0.10075
-0.097243
-0.10617
-0.065033
-0.064077
-0.10809
-0.1269
-0.14189
-0.061844
-0.046855
-0.10107
-0.1151
-0.13711
-0.13519
-0.094692
-0.072049
-0.081617
-0.046218
-0.025807
-0.022299
0.041802
0.029045
-0.01911
-0.049407
-0.099476
-0.072049
-0.028678
-0.0066727
-0.043028
-0.040158
0.0003433
0.013738
0.039888
0.0025757
-0.019429
0.0089539
0.025218
0.038931
0.048499
-0.0050782
-0.044942
0.018202
0.059342
0.024262
-0.01911
-0.075238
-0.081935
-0.05132
-0.052277
-0.052915
-0.040796
-0.032186
-0.050363
-0.03378
-0.011775
-0.040158
-0.034418
-0.052596
-0.037607
-0.047174
-0.053234
-0.051639
-0.053871
-0.031548
0.024899
0.052007
0.092827
0.071779
0.061574
0.045629
0.081984
0.060936
-0.0038025
-0.037288
-0.014008
0.058385
0.021391
-0.029953
-0.080022
-0.10043
-0.098519
-0.12084
-0.099476
-0.12754
-0.13296
-0.1151
-0.085762
-0.056423
-0.075557
-0.10617
-0.10426
-0.05132
-0.056104
-0.086081
-0.073325
-0.096286
-0.06312
-0.016878
-0.017197
0.012781
0.040526
0.066995
0.061893
0.10016
0.095378
0.047861
0.038612
0.045947
0.10112
0.15087
0.12408
0.11132
0.035423
0.037337
0.10399
0.13078
0.076882
0.066995
0.089
0.060617
0.074649
0.075287
0.057747
0.026494
0.011505
0.015013
-0.020067
-0.044942
-0.0982
-0.085125
-0.002208
-0.022299
0.014694
-0.020386
-0.047812
-0.067585
-0.065033
-0.054509
-0.072687
-0.082254
-0.11542
-0.1218
-0.089908
-0.11542
-0.11765
-0.17633
-0.18686
-0.15879
-0.18431
-0.17059
-0.12052
-0.08066
-0.094373
-0.074919
-0.081298
-0.066309
-0.070774
-0.063439
-0.032186
-0.015921
-0.018153
-0.017197
-0.036969
-0.036969
-0.014645
0.074012
0.08613
0.10941
0.13333
0.10877
0.13524
0.10813
0.085492
0.12025
0.068271
0.13046
0.12855
0.1177
0.082941
0.063806
0.03351
0.050093
0.072736
0.016289
-0.010819
0.026175
0.053601
0.081346
0.040526
-0.020386
-0.068222
-0.032186
-0.024213
-0.05132
-0.027721
-0.056742
-0.085443
-0.073963
-0.044304
0.044991
0.015013
-0.055785
-0.055785
-0.049407
-0.053552
-0.095011
-0.11096
-0.13647
-0.10745
-0.11128
-0.10681
-0.11255
-0.18016
-0.16294
-0.12882
-0.1285
-0.15752
-0.12467
-0.09246
-0.09246
-0.043985
-0.045899
-0.059931
-0.038564
-0.058655
-0.043347
-0.034099
-0.034099
-0.050044
-0.028678
-0.025488
0.012462
0.049774
-0.018791
-0.037288
0.025537
0.074968
0.10367
0.066358
0.032872
0.023624
0.044034
0.090595
0.026175
0.016289
-0.0076295
0.0067215
0.042758
0.012462
0.03351
0.058704
0.070185
0.046266
0.048818
0.12153
0.12121
0.075925
0.059342
0.11228
0.099843
0.08613
0.095697
0.060617
0.080071
0.12886
0.10654
0.078795
0.094422
0.032872
0.017883
0.059023
0.022986
-0.0089051
0.011824
-0.03665
-0.014008
-0.031229
-0.074282
-0.12276
-0.11446
-0.12116
-0.11415
-0.081617
-0.11446
-0.11446
-0.11223
-0.12148
-0.089908
-0.11446
-0.15305
-0.18973
-0.16453
-0.12339
-0.12467
-0.13456
-0.1757
-0.15114
-0.11829
-0.11255
-0.072368
-0.079384
-0.071093
-0.049726
-0.02198
-0.0015702
0.018521
0.01597
-0.0063538
0.029364
0.035104
0.0028946
0.016289
-0.0105
-0.013689
0.052326
0.078795
0.057109
0.049137
0.075925
0.084536
0.10718
0.1228
0.099205
0.10367
0.088681
0.089638
0.10495
0.16873
0.13237
0.078795
0.082941
0.086768
0.11037
0.013738
-0.026126
-0.0073105
0.052645
0.052963
-0.037288
-0.096286
-0.10139
-0.091503
-0.0982
-0.099794
-0.038883
-0.066947
-0.034099
-0.029953
-0.040158
-0.02517
-0.011137
-0.036969
-0.014327
0.036061
0.032872
-0.025488
-0.073006
-0.11223
-0.071411
-0.097562
-0.1438
-0.14189
-0.17251
-0.17984
-0.12945
-0.12212
-0.13711
-0.12467
-0.0864
-0.072687
-0.04845
-0.058017
-0.065352
-0.032504
-0.051639
-0.032186
-0.0050782
-0.0079484
-0.048769
-0.058655
-0.018472
-0.0041214
0.0076782
-0.0063538
-0.02517
0.0003433
0.0073593
0.019478
-0.00029452
-0.038883
-0.059612
-0.04271
-0.014008
-0.014645
0.013738
-0.034418
-0.069179
-0.05132
-0.039839
-0.020067
-0.017835
-0.017835
0.0092728
0.080071
0.097292
0.099205
0.11324
0.10622
0.15087
0.16841
0.15119
0.15757
0.15183
0.17479
0.2223
0.2172
0.14864
0.13237
0.15342
0.22422
0.26344
0.17861
0.06859
0.047223
0.011824
0.014694
0.035742
0.056153
0.064125
-0.0028458
-0.062482
-0.084487
-0.04845
-0.079703
-0.093097
-0.10394
-0.1218
-0.10968
-0.11574
-0.1454
-0.17888
-0.18048
-0.14954
-0.16166
-0.16326
-0.19355
-0.16039
-0.11829
-0.12148
-0.080341
-0.091503
-0.093735
-0.084487
-0.084168
-0.071411
-0.1033
-0.098838
-0.09533
-0.048131
-0.055147
-0.083211
-0.09246
-0.12563
-0.098838
-0.026764
-0.00093234
-0.009224
-0.015921
0.017246
0.0054459
0.020754
0.035742
0.008635
0.015332
0.056471
0.065082
0.034786
0.028088
0.012143
-0.0089051
0.01884
0.03925
0.044991
0.0070404
-0.01337
0.011824
0.013738
0.075287
0.083898
-0.00061343
-0.0028458
0.073055
0.14226
0.1547
0.20476
0.14321
0.15757
0.18882
0.19743
0.20987
0.23953
0.21593
0.20285
0.17383
0.19201
0.14385
0.04531
-0.031548
-0.057698
-0.085443
-0.11478
-0.14253
-0.18941
-0.17793
-0.18622
-0.20503
-0.20025
-0.18718
-0.18112
-0.20727
-0.16645
-0.19196
-0.21556
-0.20503
-0.23948
-0.18335
-0.16581
-0.17633
-0.17219
-0.17665
-0.16198
-0.12212
-0.060569
-0.073963
-0.052277
-0.044304
0.016289
0.054239
0.050731
0.019797
0.016927
0.03638
0.064444
0.055834
0.043715
-0.0085862
-0.029315
-0.0063538
-0.00061343
0.037975
0.034467
0.017246
0.018521
0.0038513
0.022348
0.014375
-0.0012513
-0.014327
0.026175
0.045629
0.021072
0.0076782
-0.017516
0.015332
0.059661
0.052007
0.084854
0.056153
0.027132
0.051369
0.10208
0.095378
0.12025
0.16937
0.089
0.097292
0.19584
0.15629
0.10208
0.061893
0.097292
0.12025
0.079752
0.039569
0.033829
0.064763
0.027451
0.033191
-0.00061343
-0.08927
-0.14189
-0.16836
-0.18941
-0.20025
-0.20153
-0.2044
-0.18718
-0.17984
-0.18813
-0.13456
-0.13296
-0.12307
-0.10745
-0.02198
-0.015921
-0.020067
-0.04271
-0.056742
-0.002208
0.010548
-0.02198
-0.012732
-0.027402
-0.022618
0.011186
0.022029
0.039569
0.054558
0.017246
0.0016189
0.024262
0.033829
0.031278
0.011505
-0.039839
0.0016189
0.028088
0.0073593
-0.015602
-0.045261
-0.051958
-0.052596
-0.023894
-0.013051
-0.027083
-0.00029452
0.071141
0.12249
0.099843
0.10718
0.095697
0.11579
0.1547
0.16107
0.13205
0.10495
0.074649
0.069547
0.05679
0.081346
0.03925
0.058704
0.069228
0.061893
0.018202
-0.041434
-0.086081
-0.085762
-0.049088
-0.061525
-0.068222
-0.088633
-0.13998
-0.11606
-0.0982
-0.13838
-0.11797
-0.10936
-0.12626
-0.11351
-0.066309
-0.072368
-0.10266
-0.11096
-0.14412
-0.10298
-0.052277
-0.045261
-0.079703
-0.10235
-0.1218
-0.096924
-0.10426
-0.11829
-0.13073
-0.10522
-0.094054
-0.057698
-0.03952
-0.090546
-0.072368
-0.056742
-0.053552
-0.032823
0.017246
0.036699
0.11037
0.16426
0.1885
0.23538
0.23251
0.17542
0.19839
0.21114
0.25866
0.22836
0.13173
0.11388
0.087725
0.066995
0.067314
0.087406
-0.0031647
-0.029953
-0.029634
-0.034099
-0.014008
0.0099106
0.01884
0.016927
0.025218
-0.0047593
-0.065671
-0.036969
-0.027402
-0.023575
-0.0063538
-0.064714
-0.09246
-0.11032
-0.10649
-0.061206
-0.028996
-0.056104
-0.050682
-0.023894
-0.034099
0.034786
0.061893
0.02777
0.041164
-0.032504
-0.032504
-0.040796
-0.086081
-0.11925
-0.12307
-0.12945
-0.12084
-0.074282
-0.097881
-0.14349
-0.13105
-0.11542
-0.088314
-0.077471
-0.10553
-0.092778
-0.031548
-0.018472
-0.035694
-0.029634
-0.038883
-0.038883
-0.01911
-0.025807
0.043396
0.035742
0.0131
-0.01337
0.037337
0.043715
0.019159
-0.022618
-0.0031647
0.042439
0.023305
-0.02804
-0.0069916
-0.0044404
-0.012094
0.019159
0.027132
0.028088
0.056471
0.058704
0.093146
0.10877
0.12057
0.11643
0.082941
0.061574
0.074012
0.060936
0.0073593
0.03925
0.034148
0.050731
0.027132
0.026813
0.022667
-0.002208
0.03064
0.021072
0.11101
0.10941
0.045947
0.054877
0.089319
0.09793
0.067952
0.041164
-0.00029452
0.0032135
0.020116
-0.024851
-0.016559
-0.018791
-0.0982
-0.14508
-0.11287
-0.089589
-0.13743
-0.1757
-0.18877
-0.13232
-0.14859
-0.16932
-0.1572
-0.17314
-0.14954
-0.11478
-0.10394
-0.11
-0.10266
-0.085125
-0.081617
-0.032186
-0.022299
-0.063758
-0.066947
-0.078746
-0.061844
-0.087038
-0.087676
-0.07779
-0.058655
-0.010181
0.025537
0.052326
0.060617
0.10558
0.10718
0.099205
0.11962
0.10367
0.052007
0.1008
0.14991
0.1598
0.14417
0.070503
-0.025488
-0.00061343
0.031596
-0.0015702
0.010548
0.033191
0.016608
0.013419
0.016289
0.058704
0.12312
0.13046
0.082622
0.075606
0.064763
0.054239
0.054239
0.030959
0.042758
0.094103
0.055196
0.0032135
-0.0060349
0.0044891
-0.042072
-0.033142
-0.055147
-0.10043
-0.1049
-0.12403
-0.11319
-0.11446
-0.11989
-0.11351
-0.12307
-0.11064
-0.090865
-0.06025
-0.10522
-0.097562
-0.066628
-0.045899
-0.030272
-0.075557
-0.099157
-0.043985
-0.050363
-0.070455
-0.068222
-0.046855
-0.095011
-0.087995
-0.065352
-0.072049
-0.051639
-0.076833
-0.094373
-0.092778
-0.070136
-0.051958
-0.047812
-0.052596
-0.11064
-0.074282
-0.046536
-0.081298
-0.068541
-0.074919
-0.050682
-0.0034836
-0.0063538
0.012143
0.040845
0.039569
0.060298
0.10048
0.080709
0.058066
0.055834
0.034148
0.082941
0.098568
0.080071
0.049455
0.053601
0.082303
0.089319
0.11483
0.11388
0.15151
0.15023
0.12663
0.16267
0.19201
0.10813
0.081346
0.096973
0.11037
0.10016
0.063806
-0.022299
-0.022618
0.020754
0.088681
0.11388
0.099843
0.060936
0.035104
0.03925
0.047542
0.034467
-0.009224
-0.036012
0.042121
0.018202
-0.031548
-0.053552
-0.095968
-0.13328
-0.14923
-0.15018
-0.1269
-0.13392
-0.14093
-0.1639
-0.15241
-0.13806
-0.14221
-0.13456
-0.17442
-0.14253
-0.10968
-0.12658
-0.10235
-0.1151
-0.14827
-0.10809
-0.043666
-0.087038
-0.092778
-0.053871
-0.036331
-0.0076295
-0.021343
-0.056423
-0.04558
-0.01624
0.01023
0.039888
0.026494
-0.035375
-0.029634
0.010867
0.01023
0.052963
0.05392
0.044034
0.065082
0.072736
0.059342
0.016927
0.0051269
-0.026445
0.027132
0.027132
-0.017516
-0.014645
-0.025488
-0.020705
0.028088
0.026175
0.029364
0.045947
0.078157
0.088362
0.12057
0.11228
0.097611
0.10654
0.052645
0.075287
0.14768
0.14736
0.090914
0.092508
0.15183
0.16235
0.15629
0.034148
-0.0034836
0.059661
0.06572
0.086449
0.029045
-0.027721
-0.021024
-0.073325
-0.11478
-0.13743
-0.14795
-0.15178
-0.16358
-0.1572
-0.15114
-0.12307
-0.12403
-0.11064
-0.091822
-0.06599
-0.054828
-0.09246
-0.11606
-0.11829
-0.093416
-0.084168
-0.11351
-0.095968
-0.12786
-0.13105
-0.099157
-0.10235
-0.058974
-0.070455
-0.058017
-0.055466
-0.029315
-0.022618
0.035104
0.028088
-0.0089051
0.030321
0.020116
-0.002208
-0.0031647
-0.020386
0.0054459
0.050731
0.050731
0.013738
0.03638
0.065082
0.079752
0.11388
0.13556
0.10176
0.069228
0.066677
0.12185
0.13588
0.13779
0.13843
0.12408
0.10399
0.098249
0.10239
0.052007
0.072417
0.059661
0.0089539
-0.0012513
-0.018153
-0.036969
-0.080979
-0.060887
-0.059931
-0.066947
-0.046536
-0.08927
-0.066947
-0.020386
-0.043347
-0.0105
0.018521
-0.009224
-0.013689
0.057109
0.011505
0.018202
-0.027721
-0.090227
-0.091503
-0.055785
-0.028996
-0.087676
-0.14636
-0.13966
-0.098519
-0.070455
-0.098838
-0.083211
-0.017835
-0.031548
0.0022568
0.0067215
-0.01911
-0.023256
-0.0085862
0.030321
0.078157
0.056153
-0.024213
-0.017835
0.031596
0.031278
0.0016189
0.023305
0.030002
0.031278
0.0003433
0.020754
0.013419
-0.019429
-0.050682
-0.02517
-0.030591
-0.084806
-0.10266
-0.132
-0.11446
-0.080022
-0.071093
-0.061525
-0.058655
-0.049407
-0.084168
-0.061206
-0.048769
-0.064714
-0.036969
-0.040158
0.0038513
0.013738
0.004808
0.036699
0.026813
0.045947
0.079752
0.10877
0.12567
0.14513
0.14321
0.13078
0.15438
0.19328
0.14864
0.12631
0.11547
0.12185
0.14258
0.12599
0.07146
0.0060837
0.03351
0.093146
0.12025
0.046904
-0.014645
-0.027402
-0.06886
-0.062163
-0.043985
-0.091822
-0.1202
-0.1285
-0.15752
-0.14508
-0.14699
-0.21875
-0.24554
-0.21237
-0.18686
-0.15592
-0.16485
-0.13806
-0.11128
-0.081935
-0.061844
-0.085125
-0.10235
-0.12531
-0.081935
-0.05132
-0.063758
-0.06312
-0.069817
-0.057698
-0.02198
0.0076782
0.0095917
0.011505
0.049774
0.023943
0.049137
0.034467
0.0070404
0.01023
-0.013051
0.011186
-0.0034836
-0.0044404
-0.036331
-0.04271
0.029364
0.028407
0.10208
0.072417
0.028407
0.021391
0.036061
0.09793
0.10144
0.097611
0.11164
0.16076
0.16554
0.12057
0.12823
0.148
0.16745
0.15342
0.17861
0.21082
0.20763
0.19647
0.18404
0.14066
0.10813
0.10112
0.11451
0.05392
-0.020705
-0.072049
-0.059612
-0.064395
-0.13966
-0.14891
-0.13519
-0.1269
-0.1151
-0.10522
-0.067266
-0.039839
-0.021661
-0.061525
-0.050044
-0.018472
-0.055466
-0.056423
-0.056423
-0.080022
-0.09246
-0.11223
-0.098838
-0.10043
-0.091184
-0.11702
-0.14476
-0.11351
-0.10171
-0.080341
-0.10011
-0.12212
-0.13456
-0.10872
-0.086719
-0.11861
-0.1202
-0.1403
-0.11574
-0.080341
-0.072687
-0.058017
-0.070136
-0.096286
-0.087038
-0.053552
-0.041434
-0.047812
-0.032823
-0.054509
-0.029953
-0.0031647
-0.0060349
0.028088
-0.0028458
0.0044891
0.10112
0.18053
0.1649
0.17255
0.24463
0.23729
0.27716
0.26695
0.21433
0.27142
0.27333
0.29693
0.29023
0.23984
0.14736
0.13173
0.13556
0.10176
0.091233
0.032553
0.0022568
0.045947
0.025218
-0.02517
-0.098519
-0.13902
-0.14093
-0.10904
-0.087357
-0.12499
-0.1521
-0.18462
-0.19579
-0.16039
-0.13169
-0.086081
-0.069179
-0.091822
-0.11383
-0.10043
-0.081298
-0.094373
-0.1167
-0.17091
-0.11128
-0.088952
-0.15528
-0.17601
-0.18718
-0.18112
-0.16708
-0.14253
-0.14317
-0.13264
-0.11446
-0.13296
-0.06886
-0.05419
-0.090865
-0.066309
-0.074601
-0.052277
-0.041434
-0.032186
-0.038564
-0.034418
0.054239
0.10909
0.16394
0.15597
0.15119
0.14385
0.15183
0.18435
0.15948
0.089638
0.070503
0.13142
0.14226
0.067952
-0.010819
-0.044942
-0.043985
-0.044623
-0.061844
-0.053871
-0.087038
-0.066628
-0.027402
-0.0060349
-0.0066727
0.039888
0.046904
0.032872
0.083579
0.14417
0.13365
0.087725
0.023305
0.082941
0.11164
0.14736
0.11419
0.097611
0.13492
0.10654
0.1126
0.10112
0.042758
0.0019378
-0.026445
0.0060837
-0.017835
-0.061525
-0.080979
-0.12882
-0.14508
-0.10203
-0.05132
-0.10585
-0.11223
-0.10553
-0.11797
-0.083849
-0.086719
-0.10585
-0.11064
-0.094054
-0.085443
-0.098838
-0.099476
-0.12371
-0.12882
-0.11478
-0.093097
-0.061206
-0.058017
-0.03952
-0.016878
0.038294
0.054239
0.020754
0.044034
0.016927
0.033191
0.043077
0.035423
0.025537
-0.014645
0.0070404
0.042758
0.034467
0.010867
-0.033461
-0.03665
-0.036331
0.014694
0.027451
0.030959
0.021072
0.008635
0.046585
0.079752
0.075287
0.070185
0.031915
0.081346
0.12344
0.15119
0.17893
0.13652
0.13843
0.13939
0.16171
0.15725
0.096016
0.075925
0.067952
0.074968
0.095697
0.05392
-0.019429
-0.067585
-0.06599
-0.095011
-0.062482
-0.050682
-0.029953
0.0025757
-0.058017
-0.063758
-0.095968
-0.1556
-0.18112
-0.14699
-0.15114
-0.15241
-0.15465
-0.2028
-0.16995
-0.12052
-0.13774
-0.14763
-0.16708
-0.14253
-0.12754
-0.08066
-0.070774
-0.068222
-0.04558
-0.04845
-0.0098618
-0.0041214
-0.036969
-0.070136
-0.10936
-0.095968
-0.064077
-0.012094
-0.033142
-0.047493
-0.022618
-0.017516
-0.0018891
-0.013689
-0.049726
-0.028359
-0.0031647
0.035104
0.038294
0.07752
0.096016
0.077201
0.066995
0.059661
0.12249
0.16586
0.13779
0.12472
0.12823
0.11706
0.10526
0.11643
0.064763
0.081028
0.066677
0.061574
0.067633
0.058704
0.10909
0.13556
0.10112
0.069228
0.093784
0.10973
0.14832
0.13333
0.084854
0.041483
0.027451
0.0057648
0.01023
0.017246
-0.090227
-0.17346
-0.18399
-0.14923
-0.08927
-0.097243
-0.15688
-0.17601
-0.14667
-0.11989
-0.086719
-0.10394
-0.14349
-0.12658
-0.11574
-0.096286
-0.091184
-0.084168
-0.12084
-0.10649
-0.084806
-0.094373
-0.053234
-0.054828
-0.055466
-0.034099
-0.01624
0.01023
-0.0028458
-0.0034836
-0.027083
2.4388e-05
0.0064026
-0.018472
-0.02517
-0.059612
-0.032504
0.011824
-0.011775
-0.0069916
0.0003433
0.019478
0.026494
0.084536
0.092189
0.067314
0.032872
-0.0050782
0.041164
0.10973
0.038612
0.028726
0.045629
0.06572
0.097292
0.097292
0.10654
0.15214
0.11292
0.072417
0.13046
0.10686
0.043715
0.13173
0.17064
0.16394
0.078476
0.037018
-0.0012513
-0.01624
-0.014964
-0.014645
-0.005716
-0.026126
-0.051639
-0.032504
-0.052277
-0.10841
-0.11606
-0.11733
-0.13487
-0.11319
-0.094054
-0.12212
-0.11415
-0.12339
-0.1151
-0.0982
-0.071411
-0.04845
-0.035056
-0.037288
-0.043666
-0.0012513
0.0028946
-0.055466
-0.092141
-0.13679
-0.13583
-0.12658
-0.11861
-0.093735
-0.13169
-0.12913
-0.11191
-0.081935
-0.088633
-0.081617
-0.050363
-0.036012
0.03638
0.060936
0.058704
0.058385
0.063487
0.080071
0.069866
0.086449
0.10144
0.15151
0.16139
0.099524
0.13524
0.11419
0.10941
0.13588
0.15693
0.20221
0.17925
0.084536
0.075287
0.12504
0.12504
0.063806
0.07146
0.040207
0.035423
0.11005
0.11579
0.096973
0.05105
0.041164
0.042121
0.059023
0.026175
-0.0079484
0.047542
-0.0038025
-0.014645
-0.022618
-0.03378
-0.084806
-0.11191
-0.11829
-0.10968
-0.0982
-0.12052
-0.09246
-0.078746
-0.1049
-0.087038
-0.10872
-0.14795
-0.16485
-0.17793
-0.15241
-0.12563
-0.12052
-0.15975
-0.19132
-0.18781
-0.14189
-0.080979
-0.12052
-0.12435
-0.082573
-0.049407
-0.0082673
0.0073593
-0.046536
-0.052915
-0.015602
0.0092728
-0.012413
0.0073593
-0.0073105
0.008316
0.031596
0.023305
0.032872
-0.0018891
0.0028946
0.0073593
0.022348
0.025856
-0.0031647
-0.018472
-0.055466
0.0079971
0.052963
0.014694
-0.0047593
-0.022618
0.015013
0.089957
0.15055
0.15087
0.19169
0.22039
0.22868
0.22294
0.18786
0.13939
0.12121
0.14832
0.19424
0.14672
0.11834
0.12504
0.087725
0.07433
0.049455
0.086449
0.030321
0.0070404
0.048499
0.038612
0.082941
0.10048
0.042439
-0.011137
-0.028359
-0.094054
-0.12626
-0.10777
-0.12403
-0.11446
-0.11638
-0.15752
-0.14572
-0.18686
-0.20918
-0.21014
-0.19387
-0.15752
-0.16134
-0.17857
-0.21014
-0.15433
-0.11638
-0.13169
-0.14508
-0.15592
-0.13774
-0.11319
-0.084806
-0.071411
-0.049088
-0.005716
-0.015921
0.021072
0.0041702
-0.011137
-0.0050782
-0.021343
0.004808
-0.0089051
-0.019429
-0.052915
-0.073006
-0.045899
-0.024213
0.028088
0.047861
0.020754
0.07433
0.096016
0.093465
0.063487
0.046904
0.11898
0.17
0.20859
0.16713
0.16171
0.17479
0.17383
0.17925
0.16745
0.21688
0.18404
0.14609
0.076882
0.13652
0.17702
0.17925
0.1193
0.027451
0.076882
0.053282
0.030002
0.016289
-0.0063538
-0.050044
-0.040158
-0.049726
-0.058974
-0.063439
-0.060887
-0.073006
-0.055785
-0.10266
-0.17506
-0.18367
-0.20248
-0.1741
-0.17474
-0.19196
-0.21875
-0.23342
-0.21779
-0.21365
-0.1757
-0.18558
-0.17538
-0.13551
-0.11415
-0.098838
-0.1049
-0.14093
-0.089908
-0.054828
-0.017516
-0.041115
-0.049088
-0.046218
0.012781
0.050412
0.040845
0.059342
0.050093
0.041483
0.048499
0.061893
0.066677
0.053282
0.029683
0.017883
0.029683
0.026813
0.0016189
0.0025757
0.0032135
0.0019378
0.023624
0.083898
0.070185
0.051369
0.081028
0.079114
0.093784
0.059661
0.049774
0.089
0.040526
0.052326
0.067314
0.049774
0.069866
0.082303
0.13524
0.10845
0.13014
0.14577
0.12344
0.14672
0.16331
0.15406
0.17383
0.13971
0.083579
0.052326
0.035104
-0.0015702
-0.10649
-0.12595
-0.10809
-0.10681
-0.1387
-0.13934
-0.17538
-0.14221
-0.1454
-0.13679
-0.11478
-0.13583
-0.15146
-0.17984
-0.14795
-0.13296
-0.13647
-0.15401
-0.18973
-0.15975
-0.13169
-0.1151
-0.11829
-0.11446
-0.096605
-0.074919
-0.033142
0.0022568
-0.024851
-0.018153
-0.044304
-0.012094
0.008316
-0.0073105
-0.023894
-0.043028
-0.032504
0.0022568
0.025856
-0.0098618
-0.011775
0.013419
0.021391
0.072736
0.029045
0.026813
0.016289
0.0073593
0.066039
0.080071
0.077201
0.047861
0.081028
0.1126
0.074649
0.11037
0.12823
0.11451
0.083898
0.082941
0.15884
0.12249
0.07433
0.056471
0.1311
0.066039
0.013419
0.033191
0.025218
0.15214
0.15406
0.12121
0.10144
0.055196
0.070503
0.091233
0.13014
0.10813
0.019797
0.010548
-0.034737
-0.052277
-0.0034836
-0.036012
-0.11702
-0.18686
-0.19961
-0.17857
-0.1521
-0.16932
-0.14253
-0.14827
-0.16166
-0.12116
-0.11829
-0.14476
-0.14859
-0.13328
-0.10171
-0.11128
-0.11702
-0.12595
-0.13009
-0.097881
-0.069817
-0.022299
-0.022937
-0.02804
-0.0066727
0.044353
0.065082
0.04531
0.026494
0.0025757
0.028726
0.042758
0.02777
0.0032135
-0.059612
-0.052915
0.03638
0.025856
0.0057648
-0.023256
-0.014964
-0.011456
0.015651
0.013738
0.019797
0.073374
0.098568
0.064763
0.058704
0.054877
0.032553
-0.0105
0.0060837
0.051688
0.055196
0.0073593
0.0070404
0.0028946
0.013738
0.09187
0.067952
-0.0012513
-0.00093234
-0.022618
0.02458
0.03638
0.022667
-0.014008
0.0057648
0.073693
0.086449
0.081028
0.049774
0.004808
-0.0082673
-0.012094
0.015013
-0.0079484
-0.044623
-0.096605
-0.055785
-0.033461
-0.043666
-0.047812
-0.061844
-0.06025
-0.039202
-0.036969
-0.021343
-0.012094
0.010867
0.012143
0.036061
0.017564
-0.012413
-0.012094
-0.048769
-0.044304
-0.016878
-0.011775
-0.039202
-0.07779
-0.092141
-0.055466
-0.02517
-0.051958
-0.046855
0.022348
0.020435
0.013738
-0.0095429
-0.067903
-0.079703
-0.053871
-0.055147
-0.078746
-0.050363
-0.059612
-0.099157
-0.095649
-0.04271
-0.0060349
-0.042391
-0.026126
0.031915
0.019159
0.050731
0.059342
0.042439
0.010867
0.066358
0.074649
0.069228
0.064125
0.043077
0.053282
0.039569
0.030959
0.041164
0.026813
0.0099106
-0.0098618
0.031278
0.045629
-0.0015702
-0.061206
-0.085125
-0.03952
-0.031548
-0.052915
-0.063439
-0.09246
-0.088952
-0.050044
-0.021024
-0.020705
0.045947
0.037337
-0.0034836
0.030959
0.03351
0.008316
0.0064026
0.0076782
0.025856
-0.01624
-0.005716
-0.059293
-0.05132
-0.012413
0.0044891
0.061893
0.044991
-0.04558
-0.018153
0.031278
0.046266
0.011505
-0.0044404
0.01023
0.057109
0.026175
-0.054828
-0.040477
-0.047812
-0.080979
-0.040796
-0.028678
-0.0076295
-0.015283
-0.032823
-0.036331
-0.0085862
-0.00061343
-0.048769
-0.041434
-0.035056
0.014056
0.031596
0.021072
0.0054459
-0.030591
-0.014008
0.046266
0.032553
0.04818
0.064125
0.091552
0.05105
0.053601
0.05679
0.037337
0.058704
-0.009224
0.020116
0.061893
0.022029
-0.0025269
-0.01337
-0.023894
-0.022937
0.023624
-0.022299
-0.017835
-0.025807
0.0038513
0.040207
-0.0076295
-0.055147
-0.09246
-0.083211
-0.074282
-0.064714
-0.047812
-0.074601
-0.044942
-0.057698
-0.066628
-0.016559
-0.0069916
-0.023894
-0.060887
-0.052915
-0.0015702
-0.02198
-0.067585
-0.12722
-0.062482
-0.057379
-0.10011
-0.13615
-0.15879
-0.13998
-0.095968
-0.071411
-0.044942
-0.052915
-0.027721
-0.021024
0.016927
0.013419
-0.0066727
0.011186
0.03064
0.069228
0.034148
0.039569
0.03925
0.014694
0.028088
0.059023
0.090914
0.086768
0.05392
0.031596
0.076563
0.083579
0.076882
0.043715
0.020754
0.0070404
-0.0041214
-0.026126
-0.035056
-0.08927
-0.078427
-0.051958
-0.029634
-0.002208
-0.0069916
-0.01624
0.011505
0.015651
-0.0012513
-0.047493
-0.052596
-0.041434
0.037975
0.072736
0.040845
0.017883
-0.022937
-0.014964
0.064763
0.081665
0.079114
0.096335
0.11069
0.18659
0.19041
0.15055
0.13205
0.11866
0.080709
0.069547
0.075606
0.042121
0.023305
0.016289
-0.016878
-0.03952
-0.041115
-0.12148
-0.15018
-0.15592
-0.12754
-0.089589
-0.12084
-0.16645
-0.16581
-0.12084
-0.097881
-0.13009
-0.13232
-0.14859
-0.16103
-0.11925
-0.0982
-0.061844
-0.079703
-0.085443
-0.063758
-0.021024
-0.0031647
-0.020067
-0.035056
-0.046536
-0.02517
-0.016878
-0.049088
-0.053871
-0.081935
-0.053871
-0.025807
-0.0098618
-0.0082673
-0.031229
-0.0047593
0.010548
0.033829
0.015332
0.0070404
-0.0089051
-0.012732
0.063487
0.058066
0.061893
0.018202
0.0095917
0.054877
0.066995
0.11132
0.089319
0.068909
0.059342
0.025537
0.050731
0.046266
0.02458
0.024899
0.052645
0.10622
0.10558
0.15884
0.16394
0.10144
0.081346
0.11164
0.16044
0.16713
0.14768
0.14609
0.18531
0.14321
0.068909
-0.009224
-0.040796
-0.044304
-0.058655
-0.14253
-0.13806
-0.17123
-0.17665
-0.1556
-0.15528
-0.13966
-0.14859
-0.14699
-0.1556
-0.10458
-0.11606
-0.15911
-0.16134
-0.18048
-0.16358
-0.14763
-0.15273
-0.15624
-0.19196
-0.16772
-0.13105
-0.091822
-0.097562
-0.088314
-0.045899
-0.017197
0.028088
0.035423
0.021072
0.03925
0.063806
0.084536
0.09506
0.099843
0.068271
0.071779
0.090914
0.10144
0.15501
0.14034
0.11101
0.14321
0.14449
0.16586
0.19424
0.16394
0.1346
0.17415
0.24527
0.17989
0.14545
0.034148
0.049774
0.09793
0.05679
0.016289
0.023305
0.03638
-0.0041214
-0.0098618
-0.088952
-0.13137
-0.10203
-0.12595
-0.10617
-0.079703
-0.010181
-0.015921
-0.021661
0.014375
0.043396
0.07146
0.040207
0.0057648
0.029045
0.060298
0.072098
0.019478
-0.061844
-0.086081
-0.095011
-0.071411
-0.13456
-0.15401
-0.1792
-0.18813
-0.16071
-0.13966
-0.097243
-0.11638
-0.14349
-0.11733
-0.096924
-0.070455
-0.074282
-0.099794
-0.14795
-0.12499
-0.097562
-0.12435
-0.11446
-0.14253
-0.1505
-0.11446
-0.097243
-0.080022
-0.077471
-0.038883
-0.014327
0.025218
0.031278
0.037337
0.032553
0.0057648
0.044991
0.099524
0.10463
0.090914
0.072417
0.11101
0.13524
0.10431
0.10208
0.081984
0.053601
0.084854
0.079433
0.043077
0.013738
-0.015283
-0.044304
-0.031867
-0.029953
-0.030591
-0.046855
0.02458
0.036699
0.057747
0.12727
0.10782
0.13652
0.13524
0.1464
0.16394
0.15693
0.10144
-0.0034836
0.055515
0.13397
0.039888
-0.034099
-0.087676
-0.10043
-0.10107
-0.11096
-0.10235
-0.1151
-0.094054
-0.085762
-0.058336
-0.052915
-0.066628
-0.083211
-0.11223
-0.084806
-0.0864
-0.095649
-0.091184
-0.12754
-0.1285
-0.10011
-0.063439
-0.080979
-0.091822
-0.062801
-0.052277
-0.023575
-0.034099
-0.060569
-0.046536
-0.020067
0.0073593
0.035423
-0.00061343
-0.036331
-0.0079484
0.038931
0.13684
0.16012
0.19488
0.22581
0.27333
0.27907
0.26025
0.24909
0.19041
0.19073
0.22103
0.19073
0.14385
0.15214
0.12631
0.13365
0.10048
0.038612
-0.0047593
-0.020386
-0.017197
0.0099106
0.01597
-0.02804
-0.075557
-0.10522
-0.12658
-0.027402
0.0041702
-0.10777
-0.17665
-0.22927
-0.21588
-0.17857
-0.1623
-0.19292
-0.21046
-0.17091
-0.13328
-0.10841
-0.12595
-0.15847
-0.14699
-0.13551
-0.098838
-0.095011
-0.072687
-0.08927
-0.092778
-0.06312
-0.033461
-0.0047593
-0.032504
-0.053552
-0.0044404
0.0035324
0.014694
-0.00061343
-0.017197
-0.022618
-0.022937
0.026175
0.026494
0.0019378
-0.031229
-0.011456
0.0013
0.0022568
0.037656
0.024262
0.059342
0.10016
0.20891
0.20572
0.19584
0.18244
0.16076
0.14098
0.15406
0.1228
0.069547
0.08039
0.089319
0.12599
0.12185
0.05679
0.013738
0.004808
0.055515
0.08039
0.013738
-0.051958
-0.057698
-0.048131
0.0131
0.010548
-0.018791
-0.040796
-0.066628
-0.048769
-0.065352
-0.014008
-0.058974
-0.088633
-0.079703
-0.058655
-0.04845
-0.099157
-0.13456
-0.16326
-0.13966
-0.10745
-0.076833
-0.053871
-0.086081
-0.079065
-0.055785
0.0041702
0.021391
-0.03378
0.0003433
-0.0028458
0.045947
0.079114
0.061255
0.031915
0.0028946
0.043396
0.053282
-0.014008
-0.035375
-0.085443
-0.10968
-0.092778
-0.073963
-0.096605
-0.10139
-0.065352
-0.051639
-0.018791
-0.021024
-0.041115
-0.033461
-0.040796
-0.002208
0.008635
0.022986
0.029364
0.03064
0.045629
0.063487
0.11037
0.057109
0.025856
0.028088
0.038612
0.098249
0.081665
0.05679
0.050731
0.047861
0.078795
0.073055
0.058066
0.035742
0.04818
0.097292
0.061893
0.017883
0.018202
0.059023
0.06572
0.057747
0.0044891
-0.051958
-0.077152
-0.087038
-0.064077
-0.01911
-0.054828
-0.070774
-0.12244
-0.11223
-0.088952
-0.10107
-0.1033
-0.083211
-0.044304
-0.065671
-0.045261
-0.079703
-0.10266
-0.10841
-0.15847
-0.11478
-0.081298
-0.064077
-0.073644
-0.077471
-0.033142
-0.005716
0.044034
0.052326
0.094103
0.20445
0.20668
0.18021
0.16267
0.12249
0.10399
0.14704
0.15725
0.14545
0.12249
0.043077
0.0013
0.059023
0.044353
0.028407
-0.023256
-0.032823
-0.032504
0.032553
0.075287
0.025537
0.042121
0.01884
0.030321
0.057109
0.048499
0.046266
0.02171
-0.002208
0.058066
0.049455
0.03351
0.0032135
-0.0060349
-0.050682
-0.021024
-0.023894
-0.1049
-0.1403
-0.20408
-0.20312
-0.17538
-0.1808
-0.19068
-0.19866
-0.16485
-0.15592
-0.13392
-0.14859
-0.13105
-0.1151
-0.10235
-0.062482
-0.044304
-0.043985
-0.0098618
0.0064026
0.02458
0.014056
-0.016878
-0.027721
-0.020386
-0.014327
-0.057698
0.023943
0.074012
0.096335
0.074649
0.070822
0.042121
0.018521
-0.010819
-0.042072
0.0070404
0.044353
0.038931
0.031278
-0.016878
-0.012094
0.017246
0.040207
0.064763
0.062531
0.12408
0.12344
0.16394
0.17351
0.12695
0.16745
0.18372
0.21401
0.16745
0.14832
0.10686
0.093784
0.069228
0.10112
0.13237
0.063169
0.038931
0.021391
0.0060837
0.019478
-0.034099
-0.11957
-0.10904
-0.11765
-0.10713
-0.11861
-0.13551
-0.12563
-0.13583
-0.14221
-0.15273
-0.11096
-0.13743
-0.13041
-0.11638
-0.080341
-0.094692
-0.10553
-0.079384
-0.0982
-0.088633
-0.089908
-0.13232
-0.13009
-0.17474
-0.15847
-0.11542
-0.088314
-0.086081
-0.065033
-0.050682
-0.051639
-0.02517
-0.025488
-0.050044
-0.027402
-0.049407
-0.012094
0.019797
0.01597
-0.019748
-0.040158
-0.027402
-0.011137
0.032872
0.0060837
0.0054459
0.027132
0.021391
0.057747
0.080709
0.052007
0.056471
0.066995
0.12886
0.15725
0.15725
0.19456
0.21082
0.1936
0.25388
0.27971
0.23793
0.20763
0.18946
0.23347
0.27588
0.18659
0.12886
0.079433
0.05105
0.043396
-0.005716
-0.052915
-0.068541
-0.052277
-0.027402
-0.026445
-0.01624
-0.062801
-0.087038
-0.085443
-0.073006
-0.08353
-0.089908
-0.10075
-0.132
-0.099794
-0.089589
-0.16836
-0.20599
-0.19515
-0.20344
-0.19611
-0.15847
-0.169
-0.16613
-0.12563
-0.11829
-0.081298
-0.069498
-0.11415
-0.1033
-0.096924
-0.045899
-0.051639
-0.055466
-0.073325
-0.081298
-0.050682
-0.011775
0.046266
0.034148
0.028407
0.024262
0.051688
0.066358
0.043396
0.034786
0.055515
0.10973
0.18595
0.13142
0.076563
0.037337
0.014694
0.081984
0.11483
0.13524
0.10654
0.062212
0.038294
0.070503
0.042121
0.019159
0.026175
-0.015921
-0.022618
-0.019748
-0.036331
-0.058017
-0.080979
-0.0034836
0.025856
0.058704
0.067314
0.061893
0.06285
0.049774
0.046904
0.03351
0.030002
0.010548
0.0099106
0.029683
-0.032504
-0.053871
-0.095968
-0.096605
-0.086081
-0.083211
-0.070136
-0.11223
-0.10011
-0.1033
-0.082573
-0.058655
-0.085443
-0.12722
-0.1521
-0.11223
-0.088314
-0.11255
-0.11574
-0.13328
-0.14061
-0.10362
-0.091184
-0.078427
-0.076833
-0.052277
-0.058655
-0.018472
-0.0047593
-0.021024
-0.0047593
-0.026445
0.0131
0.073374
0.06572
0.069547
0.063806
0.037975
0.063487
0.098886
0.092189
0.096335
0.11005
0.12759
0.15629
0.1767
0.17096
0.1295
0.11005
0.10686
0.066995
0.064763
0.08613
0.089
0.074012
0.1008
0.12344
0.1193
0.087725
0.073693
0.05679
0.047542
0.020116
0.043396
0.013738
0.086449
0.096016
0.014694
-0.020067
-0.050682
-0.046855
0.018202
0.015013
0.0070404
0.0131
-0.011137
-0.059293
-0.080341
-0.042072
-0.08353
-0.095011
-0.13583
-0.093735
-0.090546
-0.12595
-0.062482
-0.043347
-0.055466
-0.059293
-0.052277
-0.049088
-0.023894
0.042439
0.050093
0.085173
0.0028946
-0.050682
-0.017197
-0.051639
-0.015283
-0.034099
-0.082573
-0.1269
-0.12913
-0.14476
-0.13615
-0.064077
-0.057698
-0.056423
-0.02517
0.066039
0.08613
0.069547
0.03351
-0.0047593
0.059023
0.11802
0.087406
0.091552
0.050412
0.0070404
0.065401
0.068909
0.042121
0.010867
-0.0060349
-0.026445
-0.019748
-0.025488
-0.061844
-0.079065
-0.083849
-0.026764
-0.03665
-0.079065
-0.093416
-0.12467
-0.10075
-0.035056
-0.021024
-0.034418
-0.043028
-0.017835
-0.010819
0.01023
-0.015283
-0.072049
-0.10235
-0.11255
-0.084487
-0.11191
-0.11574
-0.11957
-0.13743
-0.13774
-0.11797
-0.076195
-0.11128
-0.15528
-0.10713
-0.069498
-0.034099
-0.03378
-0.047493
-0.039839
-0.0041214
0.025218
-0.0073105
0.023305
0.021391
-0.014964
-0.036331
-0.037607
-0.032504
-0.031867
-0.0050782
0.01023
0.029364
0.0067215
-0.045261
-0.036012
-0.037607
-0.039202
-0.0073105
-0.0018891
0.0013
-0.0085862
0.0095917
0.059661
0.11037
0.1346
0.13205
0.19456
0.18627
0.22964
0.20253
0.20732
0.19902
0.13237
0.14385
0.1362
0.1665
0.18021
0.12855
0.10558
0.077201
0.067633
0.033829
0.00098112
0.0070404
0.02171
0.03638
-0.033461
-0.055785
-0.05132
-0.048769
-0.06025
-0.087995
-0.10394
-0.17027
-0.17601
-0.13009
-0.1218
-0.046855
-0.072687
-0.052915
-0.054509
-0.072368
-0.076833
-0.085443
-0.064714
-0.054509
-0.031229
-0.041753
-0.080341
-0.094692
-0.12148
-0.10522
-0.0864
-0.062163
-0.067903
-0.06312
-0.069179
-0.047493
-0.002208
-0.0066727
0.011824
0.024899
-0.014327
0.032234
0.060617
0.062531
0.037656
0.0044891
0.016608
0.030002
0.10144
0.10239
0.072098
0.10048
0.11834
0.16107
0.17
0.096973
0.090595
0.13301
0.14066
0.12472
0.12249
0.094422
0.063169
0.044672
0.038294
0.066358
0.026175
-0.0089051
-0.032823
-0.044304
-0.048131
-0.098838
-0.14508
-0.14731
-0.082892
-0.046536
-0.073963
-0.11191
-0.14444
-0.090227
-0.018791
-0.017835
-0.017516
-0.0031647
0.0028946
-0.0044404
0.0076782
-0.011775
-0.057061
-0.058017
-0.063758
-0.040158
-0.055147
-0.050363
-0.060569
-0.11829
-0.10553
-0.091822
-0.074601
-0.071093
-0.057379
-0.010181
0.011824
0.017564
0.010548
0.013419
0.0025757
-0.019748
0.0016189
-0.0044404
0.0051269
-0.028359
-0.041753
-0.025488
-0.011775
0.025218
0.016289
-0.0041214
0.004808
0.03064
0.069547
0.026813
0.0076782
-0.0082673
0.037018
0.057747
0.064444
0.096654
0.10367
0.062531
0.072098
0.13014
0.10654
0.07433
0.11643
0.11164
0.19041
0.19552
0.10909
0.051688
0.0070404
0.011505
0.0073593
-0.0082673
-0.042072
-0.073644
-0.079703
-0.066947
-0.056742
-0.044304
-0.066309
-0.065033
-0.10171
-0.11957
-0.11861
-0.11478
-0.10362
-0.078427
-0.082892
-0.1049
-0.11702
-0.13838
-0.17793
-0.14859
-0.068541
-0.037288
-0.0864
-0.11223
-0.077471
-0.053552
-0.032186
-0.02198
-0.031867
-0.032823
-0.014327
0.028726
0.0054459
-0.026445
-0.072368
-0.052277
-0.00093234
0.029683
0.025856
-0.014645
-0.022937
-0.038883
0.015013
0.031915
-0.018153
-0.026126
-0.015283
0.0028946
0.0044891
-0.011775
-0.0105
-0.021343
0.022348
0.069547
0.12886
0.093146
0.090914
0.14162
0.14003
0.13301
0.12057
0.097611
0.11069
0.069547
0.084536
0.1413
0.14321
0.069228
0.019478
0.0003433
0.0051269
0.06572
0.03638
-0.002208
-0.0069916
-0.051639
-0.017516
0.024899
-0.011775
-0.061206
-0.070136
-0.058336
-0.058655
-0.057379
-0.10298
-0.065033
0.0028946
0.032553
0.028726
-0.013689
