-0.010181
0.004808
-0.017835
-0.0041214
0.0019378
0.026175
0.026175
0.0032135
-0.0063538
-0.033142
0.0064026
0.012143
-0.0085862
-0.028996
-0.049088
-0.038564
-0.020386
0.0025757
-0.010819
-0.016878
-0.00029452
0.0089539
0.031596
0.022348
-0.0025269
-0.014008
-0.01911
0.01597
0.0028946
-0.011456
-0.03665
-0.043028
-0.028359
-0.01911
0.010548
-0.0105
-0.0095429
0.0038513
0.018521
0.034467
0.013419
-0.0053971
-0.026126
-0.00061343
0.01884
-0.0038025
-0.01911
-0.045899
-0.039202
-0.021343
-0.0105
0.0028946
-0.015283
-0.0025269
0.0038513
0.025856
0.026494
0.0019378
-0.0069916
-0.032186
0.0073593
0.011505
-0.009224
-0.030272
-0.049407
-0.039202
-0.021343
-0.00061343
-0.011775
-0.017516
-0.00061343
0.0060837
0.03064
0.019478
-0.0047593
-0.017516
-0.020067
0.013419
0.0003433
-0.014327
-0.039202
-0.044623
-0.029953
-0.021024
0.010548
-0.014645
-0.013051
0.0016189
0.017246
0.032234
0.011186
-0.0050782
-0.027721
-0.0018891
0.016289
-0.0047593
-0.021024
-0.047812
-0.040158
-0.022937
-0.0095429
0.0019378
-0.017835
-0.0031647
0.0019378
0.025856
0.027132
0.00066221
-0.0069916
-0.03378
0.0070404
0.010867
-0.010181
-0.030591
-0.049088
-0.039202
-0.021024
0.0041702
-0.012732
-0.01911
2.4388e-05
0.0076782
0.029045
0.01884
-0.0066727
-0.017835
-0.021343
0.014056
-0.00029452
-0.015921
-0.042072
-0.048131
-0.032504
-0.022299
0.0099106
-0.016878
-0.014964
-0.00061343
0.01597
0.031915
0.0095917
-0.0066727
-0.030591
-0.0031647
0.01597
-0.0060349
-0.021343
-0.047493
-0.041434
-0.023894
-0.0105
-0.00061343
-0.016559
-0.0028458
0.0016189
0.024262
0.02458
2.4388e-05
-0.010181
-0.034737
0.0054459
0.0089539
-0.011456
-0.032504
-0.051001
-0.040158
-0.022299
0.0038513
-0.01337
-0.019429
-0.00093234
0.0057648
0.028088
0.017883
-0.0060349
-0.022937
-0.022618
0.012143
-0.0025269
-0.017516
-0.045261
-0.047812
-0.033142
-0.024532
0.0076782
-0.021024
-0.015921
-0.0028458
0.014375
0.03064
0.008316
-0.009224
-0.031229
-0.0044404
0.014375
-0.0069916
-0.022299
-0.049088
-0.042072
-0.023575
-0.0079484
0.0019378
-0.017516
-0.0038025
0.0032135
0.026494
0.026494
0.0022568
-0.0063538
-0.032186
0.0089539
0.012143
-0.0073105
-0.029634
-0.047493
-0.035375
-0.018153
0.0067215
-0.010181
-0.015921
0.0032135
0.011505
0.032553
0.021072
-0.0025269
-0.016878
-0.015602
0.017246
0.0019378
-0.012094
-0.038245
-0.043028
-0.027402
-0.016878
0.011505
-0.010819
-0.0095429
0.0016189
0.019478
0.034148
0.012781
-0.0050782
-0.027721
0.00066221
0.017883
-0.005716
-0.019748
-0.045899
-0.040477
-0.02198
-0.0076295
0.0041702
-0.016559
-0.0028458
0.0032135
0.027451
0.026494
0.0025757
-0.0079484
-0.032823
0.0092728
0.0099106
-0.0073105
-0.03091
-0.04845
-0.036331
-0.019748
0.0073593
-0.011775
-0.016559
0.0022568
0.011186
0.031278
0.019159
-0.0031647
-0.019748
-0.01624
0.016608
-0.00093234
-0.01337
-0.042072
-0.044623
-0.030272
-0.020386
0.010548
-0.017516
-0.01337
-0.0018891
0.016289
0.030321
0.0092728
-0.0079484
-0.031867
-0.0034836
0.014375
-0.0095429
-0.023894
-0.050363
-0.044942
-0.026764
-0.011456
-0.002208
-0.021343
-0.0076295
-0.002208
0.022986
0.022029
-0.0028458
-0.012413
-0.036969
0.0054459
0.0067215
-0.013689
-0.035056
-0.051958
-0.03952
-0.022937
0.00098112
-0.014645
-0.020386
-0.0031647
0.0060837
0.02777
0.015332
-0.0089051
-0.022937
-0.020386
0.011505
-0.0028458
-0.01624
-0.045899
-0.046855
-0.032823
-0.022618
0.0057648
-0.017197
-0.014964
-0.0018891
0.013738
0.02777
0.0060837
-0.0095429
-0.033461
-0.0053971
0.014056
-0.0095429
-0.025488
-0.05132
-0.044304
-0.02517
-0.0105
-0.0038025
-0.018472
-0.0069916
-0.00029452
0.023943
0.022986
-0.002208
-0.010181
-0.036331
0.0067215
0.0057648
-0.01337
-0.034099
-0.049726
-0.038883
-0.024532
2.4388e-05
-0.01337
-0.019429
-0.0018891
0.0073593
0.029364
0.017883
-0.0063538
-0.021024
-0.016559
0.014694
-0.0018891
-0.014645
-0.041434
-0.043985
-0.02804
-0.019429
0.013419
-0.01624
-0.011137
0.00066221
0.019159
0.031596
0.0095917
-0.0073105
-0.030591
0.0003433
0.015332
-0.0069916
-0.021343
-0.049726
-0.042072
-0.025807
-0.0076295
-0.0025269
-0.020067
-0.0047593
2.4388e-05
0.024899
0.022348
-0.0015702
-0.012094
-0.034099
0.0057648
0.0060837
-0.012732
-0.034737
-0.052277
-0.039202
-0.023894
0.0016189
-0.014964
-0.022937
-0.0038025
0.0067215
0.028088
0.014694
-0.0082673
-0.022618
-0.017516
0.012781
-0.0050782
-0.018153
-0.044623
-0.046855
-0.030591
-0.022937
0.0070404
-0.016559
-0.01337
-0.0015702
0.014694
0.027132
0.0057648
-0.010181
-0.033142
-0.0034836
0.011824
-0.0098618
-0.026126
-0.052915
-0.045899
-0.026764
-0.011775
-0.005716
-0.021343
-0.0053971
-0.0015702
0.021072
0.019159
-0.0034836
-0.012413
-0.036969
0.004808
0.004808
-0.014645
-0.036969
-0.052915
-0.039839
-0.023575
0.0038513
-0.016559
-0.021024
-0.0031647
0.0070404
0.027132
0.016927
-0.0069916
-0.023894
-0.017835
0.013738
-0.0038025
-0.01911
-0.043985
-0.045899
-0.030591
-0.021661
0.0092728
-0.01911
-0.013051
-0.00061343
0.017564
0.029683
0.0076782
-0.0076295
-0.032186
2.4388e-05
0.013419
-0.0098618
-0.024213
-0.050682
-0.043666
-0.024851
-0.0085862
-0.0050782
-0.021024
-0.0066727
-0.00029452
0.023624
0.019159
-0.0038025
-0.011775
-0.034418
0.0060837
0.004808
-0.014327
-0.036012
-0.051958
-0.038245
-0.022299
0.0035324
-0.015921
-0.020067
-0.0025269
0.0079971
0.031596
0.016289
-0.0073105
-0.021343
-0.015921
0.014694
-0.0038025
-0.016559
-0.044304
-0.04558
-0.028359
-0.021024
0.0067215
-0.016559
-0.012094
-0.0012513
0.016927
0.030002
0.0054459
-0.0089051
-0.031867
-0.0018891
0.0131
-0.010181
-0.024851
-0.050044
-0.043985
-0.023894
-0.0079484
-0.005716
-0.01911
-0.0050782
0.0016189
0.023305
0.021391
-0.00093234
-0.0105
-0.031548
0.01023
0.0070404
-0.012094
-0.034099
-0.04845
-0.035694
-0.022299
0.0064026
-0.014008
-0.019748
-0.0012513
0.0089539
0.029683
0.016608
-0.0053971
-0.021343
-0.012413
0.013419
-0.0041214
-0.018153
-0.045899
-0.045261
-0.03091
-0.021661
0.0044891
-0.023256
-0.017835
-0.0066727
0.012462
0.02171
-0.00029452
-0.014964
-0.039202
-0.0098618
0.004808
-0.016878
-0.033142
-0.057379
-0.05132
-0.030591
-0.014645
-0.012094
-0.027402
-0.0095429
-0.0034836
0.020435
0.017246
-0.005716
-0.012732
-0.034099
0.0051269
0.0054459
-0.012094
-0.034418
-0.046855
-0.036012
-0.021343
0.0070404
-0.011775
-0.014008
0.0028946
0.012781
0.035104
0.020435
-0.002208
-0.017835
-0.0098618
0.019478
0.00098112
-0.013689
-0.042391
-0.042391
-0.027721
-0.018791
0.0070404
-0.015921
-0.0098618
-0.00061343
0.017883
0.028407
0.004808
-0.009224
-0.034099
-0.0018891
0.012462
-0.0105
-0.027402
-0.052277
-0.044623
-0.026126
-0.010181
-0.010181
-0.021024
-0.0063538
-0.00061343
0.022986
0.019159
-0.005716
-0.014645
-0.03378
0.0054459
0.0025757
-0.015283
-0.03952
-0.053552
-0.040477
-0.026445
0.00098112
-0.019429
-0.023256
-0.0047593
0.0051269
0.02458
0.011505
-0.0105
-0.027402
-0.01624
0.01023
-0.009224
-0.021343
-0.048769
-0.047812
-0.032823
-0.023575
0.0060837
-0.024213
-0.014327
-0.0038025
0.015013
0.026494
0.0016189
-0.0095429
-0.034099
-0.00093234
0.012781
-0.0098618
-0.026126
-0.050044
-0.043028
-0.02517
-0.0053971
-0.0063538
-0.019429
-0.0028458
0.0025757
0.026175
0.022986
-0.0012513
-0.0098618
-0.029315
0.0095917
0.0060837
-0.011137
-0.033461
-0.046536
-0.034737
-0.020386
0.0070404
-0.01337
-0.017197
0.0013
0.010867
0.031278
0.016608
-0.0047593
-0.021024
-0.011456
0.01597
-0.0034836
-0.015283
-0.044942
-0.04271
-0.027721
-0.019748
0.0073593
-0.015921
-0.009224
0.00098112
0.018521
0.029045
0.0051269
-0.0063538
-0.032186
0.00098112
0.014056
-0.009224
-0.025488
-0.050682
-0.04271
-0.024851
-0.0060349
-0.009224
-0.019748
-0.0044404
0.00098112
0.024899
0.020754
-0.0038025
-0.012732
-0.03091
0.0092728
0.0028946
-0.014008
-0.037607
-0.051001
-0.036331
-0.02517
0.0054459
-0.016559
-0.021024
-0.0018891
0.0095917
0.028407
0.014056
-0.0073105
-0.027083
-0.012413
0.012781
-0.0060349
-0.018791
-0.045899
-0.045261
-0.029634
-0.019429
0.0070404
-0.019429
-0.0098618
-0.0028458
0.017883
0.028407
0.0041702
-0.0082673
-0.033142
0.0025757
0.012781
-0.0089051
-0.027083
-0.050682
-0.040477
-0.024213
-0.0038025
-0.0082673
-0.021661
-0.0044404
0.0016189
0.023624
0.020116
-0.0047593
-0.014645
-0.03091
0.0089539
0.0022568
-0.014964
-0.038883
-0.05132
-0.039202
-0.025488
0.0032135
-0.01911
-0.02198
-0.0044404
0.0067215
0.026813
0.012143
-0.011456
-0.028359
-0.014327
0.011186
-0.0073105
-0.020386
-0.04845
-0.047493
-0.031867
-0.022937
0.0038513
-0.020067
-0.013689
-0.0038025
0.015013
0.023943
-0.0012513
-0.012094
-0.037288
-0.0041214
0.0073593
-0.015921
-0.033461
-0.057379
-0.047493
-0.030591
-0.012732
-0.015921
-0.025488
-0.0095429
-0.0044404
0.019478
0.0131
-0.010181
-0.021024
-0.034099
0.0051269
-0.002208
-0.017197
-0.041753
-0.052915
-0.038245
-0.027402
0.0032135
-0.018472
-0.021024
-0.0044404
0.0092728
0.028726
0.012143
-0.009224
-0.026445
-0.0098618
0.011824
-0.005716
-0.018472
-0.04558
-0.043985
-0.027083
-0.018791
0.0073593
-0.018472
-0.0098618
2.4388e-05
0.021072
0.028088
0.0067215
-0.0069916
-0.032823
0.0022568
0.013738
-0.0079484
-0.025488
-0.049088
-0.041753
-0.022299
-0.0012513
-0.0079484
-0.017835
-0.002208
0.0032135
0.026813
0.021391
-0.0012513
-0.011775
-0.027083
0.012781
0.0038513
-0.013689
-0.037288
-0.048131
-0.034099
-0.022937
0.0057648
-0.014964
-0.01911
-0.00061343
0.0095917
0.029045
0.012781
-0.0085862
-0.027083
-0.0095429
0.014375
-0.0063538
-0.020067
-0.046855
-0.044623
-0.028996
-0.017835
0.0028946
-0.017516
-0.0105
-0.002208
0.017883
0.025537
0.0025757
-0.0095429
-0.036012
-0.00061343
0.01023
-0.010819
-0.029634
-0.053234
-0.043347
-0.025807
-0.0085862
-0.01337
-0.02198
-0.0066727
-0.00061343
0.023624
0.016927
-0.0063538
-0.01624
-0.029315
0.0092728
0.00098112
-0.014008
-0.039839
-0.050682
-0.035375
-0.023256
0.0054459
-0.015921
-0.020067
-0.002208
0.011186
0.029045
0.012462
-0.0073105
-0.027402
-0.009224
0.014375
-0.0063538
-0.020705
-0.047174
-0.045261
-0.027721
-0.016878
0.0044891
-0.020386
-0.0095429
-0.0012513
0.019797
0.026813
0.0019378
-0.010181
-0.036012
0.00098112
0.011505
-0.011775
-0.029634
-0.051639
-0.042072
-0.024213
-0.0015702
-0.010819
-0.021343
-0.0038025
0.0051269
0.026813
0.020116
-0.0028458
-0.013051
-0.026445
0.011824
0.0041702
-0.012094
-0.036331
-0.047174
-0.032186
-0.02198
0.008635
-0.014008
-0.015283
0.0013
0.014375
0.031915
0.015332
-0.0076295
-0.024532
-0.005716
0.017246
-0.0034836
-0.016878
-0.044304
-0.043347
-0.024851
-0.015921
0.0054459
-0.015283
-0.0076295
0.00066221
0.022348
0.02777
0.0032135
-0.0073105
-0.034099
0.0035324
0.012781
-0.009224
-0.027083
-0.05132
-0.040477
-0.022299
-0.0025269
-0.010181
-0.017197
-0.0028458
0.0041702
0.027451
0.01884
-0.0044404
-0.014327
-0.026764
0.01023
2.4388e-05
-0.014964
-0.041115
-0.04845
-0.035056
-0.023256
0.0070404
-0.017835
-0.019429
-0.0018891
0.011186
0.028726
0.010548
-0.0089051
-0.028996
-0.0085862
0.0131
-0.0063538
-0.021024
-0.04845
-0.044304
-0.026126
-0.015283
0.0041702
-0.019429
-0.0089051
2.4388e-05
0.021072
0.026813
0.0041702
-0.0076295
-0.034418
0.004808
0.012462
-0.0089051
-0.027083
-0.049088
-0.038245
-0.021024
0.00098112
-0.0105
-0.016878
-0.00029452
0.0060837
0.028726
0.02171
-0.0018891
-0.013689
-0.022618
0.013419
0.0044891
-0.012094
-0.036969
-0.046218
-0.030591
-0.020067
0.0095917
-0.014327
-0.015283
2.4388e-05
0.014056
0.031278
0.0131
-0.0069916
-0.026126
-0.0073105
0.015013
-0.0069916
-0.019429
-0.044942
-0.043347
-0.026445
-0.014645
0.0038513
-0.017197
-0.0066727
-0.00029452
0.022667
0.026494
0.00098112
-0.0073105
-0.036331
0.0051269
0.010867
-0.010181
-0.028678
-0.051639
-0.039839
-0.022299
-0.0015702
-0.012732
-0.018791
-0.00093234
0.0035324
0.026494
0.018202
-0.0041214
-0.016878
-0.024851
0.011186
0.00098112
-0.015283
-0.039839
-0.047493
-0.03378
-0.021024
0.008635
-0.017197
-0.018472
-0.0025269
0.012781
0.029045
0.010548
-0.0095429
-0.028678
-0.0076295
0.014375
-0.0079484
-0.022618
-0.049726
-0.045261
-0.02804
-0.014008
0.0019378
-0.022299
-0.0098618
-0.0031647
0.018521
0.023943
-0.00093234
-0.0105
-0.037607
2.4388e-05
0.0073593
-0.01337
-0.031867
-0.054828
-0.042072
-0.026126
-0.002208
-0.014645
-0.022299
-0.0044404
0.0016189
0.023943
0.015651
-0.0063538
-0.018791
-0.024532
0.008316
-0.0028458
-0.017835
-0.044304
-0.05132
-0.036012
-0.02517
0.0044891
-0.02198
-0.020705
2.4388e-05
0.015013
0.03638
0.032234
0.032234
0.0019378
0.020435
0.044991
0.025218
0.0095917
-0.01337
-0.009224
0.012143
0.024262
0.023624
0.00098112
0.008635
0.012781
0.024899
0.013738
-0.020386
-0.027083
-0.053234
-0.021343
-0.019748
-0.043028
-0.062801
-0.085762
-0.073006
-0.056423
-0.035694
-0.044623
-0.050363
-0.032186
-0.026126
-0.0018891
-0.011137
-0.032504
-0.041434
-0.046855
-0.01337
-0.022299
-0.036012
-0.06025
-0.067266
-0.050363
-0.03952
-0.0079484
-0.032823
-0.032186
-0.015921
0.0003433
0.016289
-0.0031647
-0.020067
-0.040477
-0.016559
0.0022568
-0.016878
-0.031229
-0.057698
-0.052277
-0.034099
-0.019429
-0.0044404
-0.027083
-0.013051
-0.005716
0.016927
0.019797
-0.002208
-0.011456
-0.03952
0.0003433
0.0070404
-0.0098618
-0.02804
-0.053234
-0.04558
-0.02804
-0.002208
-0.016878
-0.027721
-0.009224
-0.0044404
0.014375
0.0044891
-0.020386
-0.033461
-0.04271
-0.011775
-0.019748
-0.031867
-0.055466
-0.064395
-0.050363
-0.041753
-0.011456
-0.032504
-0.02804
-0.0085862
0.0057648
0.022986
0.0076782
2.4388e-05
-0.0082673
0.020754
0.037337
0.021391
0.012143
0.0089539
0.019478
0.03064
0.051369
0.066358
0.05392
0.059661
0.062212
0.07433
0.076882
0.056153
0.041164
0.021072
0.047861
0.036061
-0.0012513
-0.028359
-0.044942
-0.041753
-0.028996
-0.0085862
-0.020067
-0.03378
-0.027721
-0.027402
-0.012413
-0.021661
-0.039202
-0.058336
-0.066947
-0.03665
-0.049726
-0.065671
-0.089908
-0.096605
-0.079703
-0.068541
-0.036969
-0.060569
-0.058017
-0.040158
-0.022937
-0.0069916
-0.023256
-0.039839
-0.058336
-0.03091
-0.011456
-0.032186
-0.043985
-0.06886
-0.061844
-0.04271
-0.027721
-0.013689
-0.033142
-0.01911
-0.011137
0.012781
0.015332
-0.0073105
-0.017197
-0.041434
-0.00061343
0.0035324
-0.014327
-0.034737
-0.054509
-0.043028
-0.027083
-0.0012513
-0.01624
-0.020705
-0.0041214
0.004808
0.026813
0.015332
-0.005716
-0.019429
-0.019429
0.013419
-0.00061343
-0.014327
-0.040158
-0.044942
-0.028996
-0.020067
0.011505
-0.014964
-0.014964
0.00098112
0.017883
0.031596
0.011824
-0.0034836
-0.027083
-0.0018891
0.017883
-0.0047593
-0.019748
-0.045899
-0.039839
-0.021661
-0.009224
0.0025757
-0.014645
-0.0038025
0.0044891
0.026494
0.028088
0.0032135
-0.0050782
-0.031229
0.0099106
0.0131
-0.0085862
-0.027721
-0.04845
-0.038564
-0.020386
0.0016189
-0.011456
-0.017835
0.0003433
0.0073593
0.028726
0.018521
-0.0044404
-0.017516
-0.018791
0.0131
-0.0015702
-0.015283
-0.041115
-0.046218
-0.030272
-0.022618
0.0095917
-0.015602
-0.014327
-0.0015702
0.01597
0.028726
0.0079971
-0.0082673
-0.029634
-0.0028458
0.015013
-0.0089051
-0.021661
-0.048769
-0.04271
-0.025807
-0.010819
-0.0015702
-0.019748
-0.0047593
-0.00093234
0.022029
0.022348
-0.00029452
-0.010181
-0.035694
0.0044891
0.008635
-0.012732
-0.03378
-0.051958
-0.041434
-0.026445
0.00066221
-0.016878
-0.020386
-0.0044404
0.0038513
0.024262
0.013419
-0.010181
-0.026445
-0.027721
0.0025757
-0.012413
-0.026126
-0.051001
-0.056742
-0.043347
-0.037288
-0.009224
-0.033142
-0.028678
-0.014327
0.0013
0.016608
-0.0044404
-0.019748
-0.038883
-0.0085862
0.01023
-0.012094
-0.027083
-0.049407
-0.042072
-0.021024
-0.0076295
0.0025757
-0.012413
-0.00029452
0.0060837
0.028407
0.029683
0.0057648
-0.0025269
-0.028678
0.01023
0.014694
-0.005716
-0.027083
-0.049088
-0.039202
-0.019748
0.0051269
-0.009224
-0.017197
0.0013
0.012781
0.031915
0.025537
-0.0034836
-0.020067
-0.015283
0.020116
0.01023
-0.012732
-0.039839
-0.039839
-0.026764
-0.019429
0.008635
-0.015602
-0.012732
-0.0028458
0.011824
0.023943
0.014056
0.0041702
-0.018472
0.0038513
0.023305
0.0057648
-0.0063538
-0.033142
-0.02804
-0.0053971
0.010548
0.019478
0.0003433
0.014375
0.019159
0.038612
0.022029
-0.00029452
-0.0089051
-0.031867
0.0079971
0.0022568
-0.02198
-0.046855
-0.065033
-0.053234
-0.036969
-0.011775
-0.028359
-0.034099
-0.016878
-0.0063538
0.01597
0.0044891
-0.01624
-0.030272
-0.028678
0.00066221
-0.01337
-0.028359
-0.053552
-0.053552
-0.038883
-0.032504
-0.00093234
-0.029315
-0.022299
-0.009224
0.0089539
0.023943
-0.00093234
-0.014964
-0.038245
-0.0076295
0.010548
-0.012094
-0.027083
-0.051958
-0.045899
-0.024851
-0.011456
-0.0041214
-0.020386
-0.0050782
-0.0012513
0.023305
0.021072
0.0013
-0.0105
-0.033461
0.008635
0.008635
-0.0047593
-0.027721
-0.043347
-0.032504
-0.016559
0.0070404
-0.0098618
-0.014327
0.0025757
0.013419
0.034467
0.022029
-0.002208
-0.019748
-0.015283
0.012781
-0.0041214
-0.019748
-0.044942
-0.046855
-0.032504
-0.024213
0.0057648
-0.023256
-0.016878
-0.0066727
0.0131
0.024899
0.0035324
-0.011137
-0.036331
-0.0041214
0.013419
-0.0089051
-0.01337
-0.039839
-0.036012
-0.017197
-0.00061343
0.0060837
-0.0089051
0.0076782
0.010548
0.035742
0.034467
0.012143
0.00066221
-0.023256
0.014694
0.008316
-0.010819
-0.034099
-0.049088
-0.038883
-0.023575
-0.00029452
-0.022937
-0.024851
-0.0044404
0.0044891
0.02458
0.011505
-0.0079484
-0.021024
-0.020705
0.0070404
-0.0044404
-0.014964
-0.042391
-0.044304
-0.024851
-0.016878
0.015013
-0.0095429
-0.010181
0.0041702
0.022986
0.042121
0.017246
0.0038513
-0.021343
0.01023
0.028088
0.0051269
-0.01337
-0.038564
-0.031867
-0.014008
0.0019378
0.0064026
-0.0073105
0.008635
0.010548
0.032234
0.02777
0.0060837
-0.00061343
-0.020386
0.020435
0.015651
-0.0018891
-0.02198
-0.036331
-0.026126
-0.010181
0.013738
-0.0044404
-0.0082673
0.0079971
0.020116
0.039569
0.024262
0.0044891
-0.011456
-0.0044404
0.022986
0.0067215
-0.0076295
-0.035694
-0.03378
-0.020705
-0.0079484
0.021391
-0.0047593
0.0003433
0.010867
0.027451
0.040526
0.017246
0.00098112
-0.017516
0.011186
0.027451
0.0041702
-0.010819
-0.035375
-0.026764
-0.0085862
0.011505
0.012143
-0.0012513
0.015013
0.020754
0.044034
0.041164
0.022986
0.025218
-0.0028458
0.034786
0.031915
0.01597
-0.0044404
-0.015921
-0.0063538
0.0067215
0.034148
0.01597
0.013419
0.026494
0.036061
0.05679
0.042439
0.018202
0.0016189
0.0089539
0.03638
0.022348
0.0099106
-0.011456
-0.014327
-0.005716
0.0038513
0.031278
0.0089539
0.0131
0.02458
0.045947
0.055515
0.032872
0.012143
-0.014645
0.019478
0.03638
0.019478
-0.0073105
-0.033142
-0.022299
-0.0031647
0.015013
0.017883
0.0060837
0.01884
0.024899
0.048499
0.045629
0.023624
0.012781
-0.005716
0.034148
0.03351
0.01884
-0.0034836
-0.017835
-0.0047593
0.0092728
0.034148
0.01884
0.013738
0.030321
0.044353
0.064125
0.049774
0.031596
0.014694
0.020435
0.045947
0.039569
0.030002
-0.00093234
2.4388e-05
0.014056
0.021072
0.044991
0.02171
0.026175
0.034786
0.049774
0.055196
0.027132
0.0070404
-0.018472
0.011824
0.017883
-0.0073105
-0.022618
-0.052915
-0.047174
-0.031548
-0.01337
-0.017835
-0.027721
-0.0098618
-0.0073105
0.0131
0.0057648
-0.018791
-0.023575
-0.03665
-0.00061343
-0.0047593
-0.020705
-0.041753
-0.062163
-0.052277
-0.034099
-0.005716
-0.027083
-0.031548
-0.012413
-0.0095429
0.0095917
-0.00061343
-0.025488
-0.040477
-0.03091
-0.0098618
-0.027083
-0.03952
-0.065033
-0.062163
-0.04271
-0.032504
-0.009224
-0.035375
-0.017197
-0.0089051
0.0051269
0.01884
0.0025757
-0.0069916
-0.041434
-0.0050782
0.012781
-0.009224
-0.029953
-0.053871
-0.046855
-0.029953
-0.009224
-0.012413
-0.033142
-0.021024
-0.014008
0.0067215
-0.002208
-0.028678
-0.044623
-0.061206
-0.024851
-0.029315
-0.047493
-0.073325
-0.0864
-0.072368
-0.058974
-0.03378
-0.049726
-0.054828
-0.042072
-0.032504
-0.012732
-0.024213
-0.045261
-0.061525
-0.049407
-0.022618
-0.04271
-0.056104
-0.084168
-0.084168
-0.064395
-0.051958
-0.031229
-0.056742
-0.052915
-0.041753
-0.02198
-0.01624
-0.042072
-0.052596
-0.073963
-0.041434
-0.027721
-0.047812
-0.06025
-0.079703
-0.068541
-0.04558
-0.014008
-0.021661
-0.024851
0.0025757
0.0057648
0.026494
0.025856
0.0044891
-0.0034836
-0.021024
0.01597
0.0095917
-0.0095429
-0.036012
-0.05419
-0.041753
-0.02517
0.0013
-0.022937
-0.037288
-0.024532
-0.0073105
0.0131
0.0032135
-0.018153
-0.038883
-0.026126
-0.0018891
-0.020067
-0.030272
-0.052915
-0.049088
-0.032186
-0.02198
0.0041702
-0.017835
0.0003433
0.0095917
0.028407
0.034786
0.010548
0.008635
-0.012732
0.028088
0.034786
0.015332
-0.0031647
-0.02804
-0.023256
-0.013689
0.0057648
0.0035324
-0.0089051
0.0057648
0.0073593
0.019478
0.0032135
-0.02198
-0.038883
-0.051001
-0.019748
-0.026126
-0.043347
-0.063758
-0.074601
-0.060887
-0.044942
-0.020386
-0.035056
-0.036331
-0.018791
-0.0063538
0.014694
0.0016189
-0.01911
-0.035375
-0.01911
0.0067215
-0.012094
-0.022299
-0.049407
-0.046855
-0.029315
-0.01911
0.004808
-0.016878
-0.0082673
0.0003433
0.021072
0.028726
0.0060837
-0.0053971
-0.031229
0.0028946
0.014375
-0.0089051
-0.022937
-0.048769
-0.040158
-0.020067
0.0016189
-0.0060349
-0.015283
2.4388e-05
0.0070404
0.02777
0.020754
-0.0025269
-0.012094
-0.024213
0.011186
0.0038513
-0.012413
-0.036012
-0.045899
-0.032186
-0.021024
0.0092728
-0.013051
-0.01337
0.0032135
0.013738
0.030959
0.014056
-0.0076295
-0.026126
-0.009224
0.012781
-0.0073105
-0.021343
-0.050044
-0.045899
-0.032186
-0.022299
-0.0012513
-0.026126
-0.015602
-0.0053971
0.023305
0.029045
0.0016189
-0.0073105
-0.03378
0.0035324
0.015013
-0.0063538
-0.020386
-0.037288
-0.031229
-0.021343
-0.0041214
-0.012413
-0.014327
0.0022568
-0.0018891
0.01884
0.0099106
-0.0069916
-0.017835
-0.034737
0.0019378
-0.005716
-0.012413
-0.038883
-0.050044
-0.031548
-0.017197
0.010548
-0.0028458
-0.0063538
0.010867
0.02458
0.041164
0.023943
0.0044891
-0.01337
0.0035324
0.023305
0.0044891
-0.0085862
-0.034099
-0.031229
-0.014964
-0.0053971
0.011505
-0.0079484
0.00098112
0.0095917
0.027132
0.029683
0.014375
-0.0012513
-0.028678
0.0041702
0.015013
-0.0066727
-0.02198
-0.045899
-0.040477
-0.022299
-0.0063538
-0.011456
-0.017835
-0.002208
0.0019378
0.023624
0.013738
-0.014964
-0.023894
-0.034099
0.00098112
-0.0050782
-0.02198
-0.049088
-0.058655
-0.04271
-0.02804
0.0019378
-0.020386
-0.021024
-0.0069916
0.0057648
0.026175
0.011186
-0.013051
-0.030272
-0.0085862
0.011824
-0.0089051
-0.019748
-0.046218
-0.043028
-0.02804
-0.01624
0.0025757
-0.018791
0.00098112
0.022029
0.034148
0.033829
0.0076782
-0.0018891
-0.024851
0.014375
0.020116
-0.00061343
-0.017197
-0.03952
-0.035694
-0.028359
-0.002208
-0.0079484
-0.023575
-0.012094
-0.009224
0.014375
0.0070404
-0.017197
-0.024851
-0.03665
-0.0028458
-0.011456
-0.022618
-0.045899
-0.052596
-0.03665
-0.027083
-0.0015702
-0.018791
-0.01624
-0.00093234
0.0099106
0.024899
0.0067215
-0.012094
-0.032186
-0.012413
0.010867
-0.0098618
-0.028678
-0.054509
-0.047493
-0.028359
-0.017516
-0.00061343
-0.017197
-0.0073105
0.0019378
0.021391
0.02171
-0.00029452
-0.0050782
-0.025488
0.008316
0.012143
-0.0053971
-0.02517
-0.04271
-0.028996
-0.012094
0.0054459
-0.0025269
-0.012094
0.0051269
0.010548
0.032234
0.02458
0.00066221
-0.011456
-0.021024
0.014375
0.0025757
-0.012094
-0.035056
-0.045261
-0.03091
-0.021024
0.0073593
-0.011775
-0.014008
0.0003433
0.015013
0.030321
0.012143
-0.0050782
-0.026126
-0.0063538
0.015332
-0.0069916
-0.018472
-0.043985
-0.039839
-0.02198
-0.011137
0.0051269
-0.017516
-0.0069916
-0.00029452
0.022348
0.026494
2.4388e-05
-0.011775
-0.038245
-0.0015702
0.0054459
-0.014327
-0.033142
-0.051639
-0.041753
-0.02517
-0.0034836
-0.0089051
-0.013689
-0.00093234
0.0051269
0.027132
0.020435
-0.0025269
-0.0095429
-0.016559
0.0131
-0.0031647
-0.0095429
-0.028359
-0.039202
-0.029634
-0.017835
0.0054459
-0.014645
-0.016559
-0.0025269
0.010548
0.021391
0.0032135
-0.01911
-0.045261
-0.022618
-0.0053971
-0.025488
-0.040796
-0.065671
-0.061844
-0.041115
-0.029634
-0.014645
-0.031867
-0.017835
-0.010181
0.0092728
0.014694
-0.0050782
-0.013051
-0.039202
-0.0025269
0.0057648
-0.012413
-0.030591
-0.047812
-0.036012
-0.020705
0.0025757
-0.0089051
-0.015283
0.0038513
0.0099106
0.030002
0.022348
-0.0015702
-0.014008
-0.020705
0.010867
-0.0012513
-0.013689
-0.037288
-0.041753
-0.025807
-0.018791
0.011505
-0.012413
-0.009224
0.0038513
0.016927
0.035104
0.017564
-0.0025269
-0.024851
-0.00029452
0.014375
-0.0079484
-0.022299
-0.045899
-0.042072
-0.026126
-0.015283
-0.002208
-0.021343
-0.011456
-0.0053971
0.016927
0.018202
-0.0066727
-0.014964
-0.040796
-0.0038025
0.0044891
-0.014327
-0.034418
-0.052915
-0.041115
-0.023894
-0.0012513
-0.0098618
-0.015602
0.0022568
0.008635
0.029045
0.021072
-0.0012513
-0.012094
-0.014645
0.018202
0.0057648
-0.0085862
-0.026445
-0.022299
-0.011775
-0.0060349
0.022348
0.0041702
0.0051269
0.016927
0.032234
0.049774
0.03064
0.008316
-0.015602
0.0038513
0.020435
0.0016189
-0.014964
-0.043028
-0.040158
-0.024532
-0.01337
0.0025757
-0.017516
-0.012413
-0.0047593
0.018202
0.01884
-0.0060349
-0.017516
-0.039839
-0.0034836
0.0060837
-0.012413
-0.03665
-0.054509
-0.043347
-0.016878
0.0054459
-0.0105
-0.015283
0.0060837
0.012462
0.03351
0.02171
-0.0038025
-0.013051
-0.015283
0.014694
0.0013
-0.012732
-0.038245
-0.041434
-0.025807
-0.017197
0.0131
-0.011456
-0.010819
0.0035324
0.019478
0.03351
0.013419
-0.0044404
-0.026126
-0.0018891
0.017246
-0.0047593
-0.019429
-0.045261
-0.037288
-0.014327
-0.0038025
0.008635
-0.0089051
0.0032135
0.008316
0.032234
0.031915
0.0073593
-0.00093234
-0.026445
0.010548
0.014694
-0.0066727
-0.029634
-0.046855
-0.036969
-0.023256
-0.0012513
-0.011456
-0.017516
-0.0015702
0.0054459
0.024899
0.015013
-0.0098618
-0.020705
-0.021024
0.010867
-0.0025269
-0.01624
-0.040477
-0.045261
-0.027083
-0.018791
0.01023
-0.012732
-0.011775
0.00098112
0.018202
0.032234
0.012143
-0.0038025
-0.024532
0.00066221
0.019478
-0.0018891
-0.014008
-0.037607
-0.025488
0.00098112
0.01023
0.020116
0.0032135
0.016608
0.020435
0.039888
0.038612
0.015651
0.0070404
-0.018153
0.011505
0.0099106
-0.0060349
-0.028359
-0.050682
-0.043347
-0.029315
-0.0028458
-0.017835
-0.024851
-0.0079484
-0.00061343
0.019478
0.0092728
-0.013051
-0.02517
-0.023256
0.0025757
-0.011775
-0.02198
-0.047812
-0.051001
-0.034418
-0.024213
0.0044891
-0.019429
-0.011775
0.0003433
0.013419
0.02777
0.01023
-0.0050782
-0.029634
-0.005716
0.0131
-0.0063538
-0.018791
-0.043985
-0.038883
-0.018153
-0.010819
-0.0047593
-0.015921
0.0016189
0.0041702
0.026813
0.026813
0.0013
-0.0079484
-0.030272
0.0092728
0.013419
-0.0041214
-0.022937
-0.039202
-0.02804
-0.010819
0.012143
-0.0012513
-0.0069916
0.010548
0.020116
0.043077
0.03064
0.0035324
-0.0095429
-0.0073105
0.01884
0.0060837
-0.0031647
-0.028678
-0.029315
-0.015921
-0.0082673
0.017246
-0.0044404
-0.0041214
0.01023
0.02458
0.041483
0.028726
0.0076782
-0.019429
0.0038513
0.030321
0.0073593
-0.0079484
-0.035056
-0.028359
-0.0085862
0.0095917
0.010867
-0.012094
0.0032135
0.0060837
0.027132
0.026813
-0.0044404
-0.013689
-0.034737
-0.00061343
-0.005716
-0.022937
-0.04271
-0.061525
-0.044942
-0.029634
-0.0066727
-0.016878
-0.022618
-0.0038025
0.0044891
0.023305
0.011824
-0.0098618
-0.021024
-0.017197
0.014056
-0.0053971
-0.019748
-0.043347
-0.043347
-0.023894
-0.017835
0.0073593
-0.014645
-0.011456
0.0016189
0.017564
0.030959
0.0131
-0.0044404
-0.027083
-0.0015702
0.017246
-0.0050782
-0.019429
-0.041115
-0.038564
-0.018153
-0.0038025
2.4388e-05
-0.01337
0.0019378
0.0038513
0.027451
0.025537
-0.00029452
-0.0079484
-0.028678
0.0095917
0.0092728
-0.0085862
-0.029315
-0.044304
-0.033142
-0.016878
0.0089539
-0.0031647
-0.011137
0.0038513
0.0131
0.031915
0.020116
-0.0012513
-0.012732
0.0003433
0.024899
0.0051269
-0.0082673
-0.03665
-0.037926
-0.019429
-0.01337
0.014694
-0.0063538
-0.0031647
0.0035324
0.01597
0.026175
0.0025757
-0.012413
-0.038564
-0.013051
0.0019378
-0.018153
-0.03378
-0.058655
-0.052277
-0.032823
-0.015283
-0.012413
-0.023256
-0.0079484
-0.002208
0.020754
0.019478
-0.0050782
-0.012094
-0.03091
0.0073593
0.0076782
-0.0076295
-0.02804
-0.043666
-0.033142
-0.014964
0.013419
-0.0018891
-0.0063538
0.0099106
0.01597
0.03638
0.026813
0.0013
-0.011775
-0.0066727
0.022986
0.0051269
-0.005716
-0.035694
-0.037288
-0.01911
-0.011775
0.01884
-0.0076295
-0.002208
0.0060837
0.024899
0.036699
0.016289
0.00098112
-0.023575
0.0016189
0.020754
0.00098112
-0.017197
-0.03952
-0.03378
-0.014327
0.00098112
0.0044891
-0.0095429
0.0051269
0.01023
0.029683
0.027132
0.0013
-0.0066727
-0.028359
0.01023
0.0095917
-0.0089051
-0.028359
-0.046218
-0.033142
-0.017835
0.0095917
-0.0025269
-0.0076295
0.0095917
0.028407
0.051369
0.033829
0.0054459
-0.0085862
0.0016189
0.03064
0.015651
-0.0012513
-0.026126
-0.027083
-0.012413
-0.0095429
0.014694
-0.0050782
-0.0053971
0.0041702
0.021391
0.028407
0.0079971
-0.0079484
-0.034737
-0.011775
0.0035324
-0.013051
-0.030272
-0.054509
-0.048769
-0.029634
-0.014645
-0.015283
-0.026126
-0.0085862
-0.0041214
0.017564
0.016289
-0.0066727
-0.014645
-0.033142
0.0035324
0.0019378
-0.012094
-0.033461
-0.045899
-0.034418
-0.020067
0.0092728
-0.0076295
-0.01337
0.0044891
0.016608
0.034148
0.024262
2.4388e-05
-0.015921
-0.0047593
0.021391
0.0025757
-0.0089051
-0.034418
-0.034737
-0.014645
-0.0079484
0.01597
-0.0066727
-0.0038025
0.008316
0.029364
0.037337
0.015651
0.0016189
-0.02517
0.0019378
0.01884
0.0035324
-0.014327
-0.037288
-0.032186
-0.009224
0.0067215
0.0057648
-0.0060349
0.010548
0.018521
0.03925
0.032234
0.0073593
-0.0034836
-0.021661
0.013738
0.012143
-0.0105
-0.033461
-0.046218
-0.035375
-0.020705
0.0067215
-0.0095429
-0.014327
-0.0025269
0.0089539
0.027132
0.01597
-0.0076295
-0.021024
-0.0098618
0.015332
-0.0050782
-0.017516
-0.042391
-0.042391
-0.020705
-0.014964
0.008316
-0.011456
-0.0069916
0.0035324
0.02171
0.033191
0.012143
0.0016189
-0.016559
0.0095917
0.020435
2.4388e-05
-0.014327
-0.036969
-0.028678
-0.011775
0.008635
0.0067215
-0.0053971
0.0076782
0.008635
0.033829
0.028088
0.00098112
-0.0085862
-0.026126
0.008316
0.0044891
-0.0095429
-0.033142
-0.044304
-0.033461
-0.020705
0.0092728
-0.012094
-0.014008
0.0035324
0.014375
0.03064
0.014375
-0.0076295
-0.020705
-0.0105
0.013738
-0.0060349
-0.017516
-0.043666
-0.041115
-0.022299
-0.014645
0.011824
-0.011456
-0.0044404
0.0044891
0.024262
0.032234
0.01023
-0.0031647
-0.029953
0.00098112
0.015332
-0.0076295
-0.023575
-0.04845
-0.040158
-0.020705
-0.0041214
-0.0066727
-0.015283
0.0041702
0.0079971
0.03064
0.028726
0.0016189
-0.0034836
-0.01624
0.020116
0.017564
0.00066221
-0.021343
-0.029953
-0.01624
-0.0041214
0.021072
0.0054459
0.00066221
0.018521
0.026813
0.042121
0.03064
0.0051269
-0.010819
0.0003433
0.023624
0.0054459
-0.0063538
-0.034418
-0.032504
-0.015283
-0.011137
0.0131
-0.0041214
0.0003433
0.0070404
0.026494
0.032234
0.010867
-0.00093234
-0.026445
0.0019378
0.015651
-0.0028458
-0.02198
-0.043985
-0.036331
-0.015921
0.00098112
-0.0025269
-0.0095429
0.0067215
0.015013
0.044034
0.036699
0.0070404
0.0051269
-0.0066727
0.023943
0.018521
0.0013
-0.022299
-0.027721
-0.018153
-0.0073105
0.020116
2.4388e-05
-0.0082673
0.0054459
0.018521
0.033191
0.022029
-0.0015702
-0.018791
-0.005716
0.016289
-0.0028458
-0.016878
-0.043347
-0.04271
-0.023256
-0.016559
0.0028946
-0.020067
-0.012094
-0.0076295
0.0092728
0.018202
-0.0031647
-0.015921
-0.047812
-0.019748
0.0013
-0.017835
-0.036331
-0.057698
-0.05132
-0.031229
-0.011456
-0.014645
-0.018153
2.4388e-05
0.0057648
0.028407
0.025218
-0.00029452
-0.0069916
-0.01624
0.016608
0.017564
0.0064026
-0.017516
-0.029953
-0.017835
-0.0047593
0.023624
0.0099106
0.00098112
0.017883
0.029683
0.042439
0.028407
0.0019378
-0.022937
-0.0053971
0.016608
-0.0069916
-0.019429
-0.049088
-0.049407
-0.03091
-0.024851
-0.0044404
-0.022618
-0.012413
-0.0085862
0.013419
0.019159
-0.0015702
-0.012413
-0.037288
-0.0076295
0.0092728
-0.01337
-0.029634
-0.050682
-0.039202
-0.012732
0.0054459
-0.0047593
-0.012732
0.0051269
0.013419
0.037656
0.02777
0.0016189
-0.0047593
-0.014327
0.017246
0.0073593
-0.0066727
-0.03091
-0.044304
-0.032504
-0.021024
0.0073593
-0.014327
-0.019748
0.00098112
0.012781
0.029045
0.013738
-0.0085862
-0.027083
-0.0063538
0.015013
-0.0041214
-0.017516
-0.043666
-0.041115
-0.020067
-0.013689
0.008635
-0.011456
-0.0066727
-0.0038025
0.019797
0.024262
0.00098112
-0.0063538
-0.031548
-0.0047593
0.0070404
-0.014327
-0.029315
-0.051639
-0.044623
-0.020705
0.0057648
-0.0012513
-0.0105
0.0041702
0.0099106
0.034786
0.028407
0.0028946
-0.00093234
-0.0098618
0.023305
0.015013
-0.00029452
-0.023575
-0.030591
-0.020705
-0.0085862
0.020754
0.013419
0.013738
0.011505
0.020435
0.042439
0.029045
0.0032135
-0.01624
0.0003433
0.023943
-0.0012513
-0.011775
-0.043666
-0.043028
-0.020067
-0.015921
0.0057648
-0.013051
-0.011456
-0.0044404
0.023305
0.031596
0.011824
-0.0031647
-0.029953
0.0041702
0.017883
-0.0015702
-0.020067
-0.040158
-0.031548
-0.014645
0.011824
0.012781
0.0013
0.016608
0.027132
0.049137
0.032872
0.0038513
0.0019378
-0.0038025
0.028407
0.015651
-0.00029452
-0.024851
-0.032823
-0.02198
-0.018791
0.010548
-0.011775
-0.018153
-0.00061343
0.0131
0.026494
0.011505
-0.0079484
-0.02804
-0.0095429
0.011186
-0.0098618
-0.021024
-0.047493
-0.041434
-0.016878
-0.0095429
0.0044891
-0.012094
0.0013
0.0038513
0.026175
0.03064
0.0057648
-0.002208
-0.03091
-0.002208
0.0095917
-0.011775
-0.025807
-0.06025
-0.049088
-0.031229
-0.012413
-0.02198
-0.038245
-0.0076295
-0.0028458
0.017564
0.012143
-0.011775
-0.019429
-0.028678
0.024899
0.010548
-0.0038025
-0.028678
-0.027721
0.0044891
0.0070404
0.034148
0.018202
0.015332
0.026813
0.042758
0.054558
0.025218
-0.0041214
-0.01624
0.008635
0.026175
0.0070404
-0.02517
-0.059612
-0.048131
-0.013051
-0.0031647
0.011505
-0.021661
-0.0105
0.010867
0.031596
0.016289
-0.00093234
-0.0025269
-0.025488
0.010548
0.023943
-0.027721
-0.039839
-0.024851
-0.03378
-0.030272
-0.026126
-0.02198
-0.011456
0.034148
0.037975
0.081346
0.067314
0.038294
0.012781
0.02171
0.049455
0.037975
0.022986
0.0089539
0.013419
0.015332
-0.020067
-0.0018891
-0.03952
-0.042391
-0.040477
-0.035056
-0.024532
-0.039839
-0.061525
-0.11096
-0.066947
-0.031867
-0.049088
-0.05419
-0.10266
-0.10203
-0.069817
-0.023575
0.012781
0.0022568
-0.002208
-0.016878
0.019159
0.041802
0.0131
0.014694
-0.017197
0.018521
0.039569
0.022348
-0.0060349
-0.023894
-0.017835
0.017564
0.058385
0.051369
0.035104
0.03638
0.039888
0.062531
0.06859
0.036699
0.024899
-0.015602
0.0060837
-0.0089051
-0.018153
-0.043347
-0.06025
-0.061525
-0.028996
-0.015921
-0.012413
-0.057061
-0.061206
-0.028996
-0.013689
0.016289
0.0057648
-0.03378
0.0028946
0.014694
0.040526
0.022986
-0.028678
-0.061844
-0.012094
0.025537
0.0051269
-0.018791
-0.0034836
0.010548
0.03638
0.043396
0.042121
0.033829
0.035423
0.092508
0.095378
0.052326
0.048818
0.066039
0.091552
0.10303
0.1346
0.11802
0.09187
0.12631
0.10208
0.084854
0.035104
-0.0063538
-0.028678
-0.046536
-0.025488
-0.043985
-0.04845
-0.13105
-0.11797
-0.068541
-0.095968
-0.10266
-0.12148
-0.10904
-0.076833
-0.046855
-0.0060349
-0.0044404
-0.015921
-0.15497
-0.22481
-0.17761
-0.1438
-0.058655
-0.082573
-0.10968
-0.12945
-0.10203
-0.066628
-0.053234
-0.031229
-0.047174
0.035423
0.10399
0.14513
0.07752
0.019478
0.1244
0.21082
0.1665
0.059023
0.040207
0.049774
0.070503
0.087725
0.01023
0.0025757
0.018521
-0.0053971
-0.0095429
-0.051958
-0.10235
-0.10011
-0.089589
-0.077471
-0.070136
-0.10553
-0.10617
-0.096924
-0.0066727
-0.014008
0.0044891
-0.045899
-0.0076295
0.063169
0.044672
0.080071
0.16777
0.12855
-0.013051
0.012781
2.4388e-05
0.0073593
0.028726
0.038612
-0.034099
0.044672
0.079114
0.045947
-0.026764
-0.028678
0.092508
0.19073
0.1547
0.16586
0.18946
0.17383
0.21816
0.21178
0.20221
0.18372
0.22741
0.22422
0.1311
0.12727
0.10271
0.13397
0.091552
0.10686
0.0025757
-0.032823
-0.048131
-0.019748
-0.10809
-0.16262
-0.15305
-0.11861
-0.086081
-0.12307
-0.11957
-0.13902
-0.1049
-0.062163
-0.051639
-0.056742
-0.04271
-0.065352
-0.088314
-0.069179
-0.11542
-0.13169
-0.0864
-0.14763
-0.18431
-0.17888
-0.169
-0.17984
-0.22002
-0.1977
-0.09533
-0.11574
-0.12658
-0.13105
-0.020067
0.0022568
0.018521
-0.025807
-0.023256
0.087725
0.09187
0.092827
0.062212
0.061893
0.12631
0.19009
0.15246
0.11037
0.18914
0.18531
0.1936
0.24048
0.23092
0.11228
0.099843
0.10144
0.11196
0.052326
0.03638
-0.0079484
-0.024213
0.0064026
-0.03665
-0.087038
0.008635
0.11643
0.10813
-0.040477
-0.067585
-0.10011
-0.04845
0.11611
0.16171
0.19615
0.25356
0.21943
0.1818
0.18563
0.15501
0.15342
0.12695
0.23315
0.12185
0.10654
0.066995
-0.027721
-0.077152
-0.11542
-0.10171
-0.16804
-0.22895
-0.25064
-0.39
-0.36608
-0.27711
-0.16198
-0.19228
-0.27551
-0.22768
-0.21588
-0.12244
-0.072368
-0.088314
-0.029634
0.014694
0.037018
0.053282
0.13237
0.087087
-0.042391
-0.0060349
0.10941
0.13365
0.06285
0.11515
0.18499
0.14736
0.16586
0.087725
0.02458
-0.036331
0.09187
0.053282
0.10463
0.15948
-0.002208
-0.13392
-0.16134
-0.087357
-0.051001
-0.025488
0.014375
0.0099106
-0.0038025
-0.082573
-0.18877
-0.18335
-0.11478
-0.018472
-0.13774
-0.14221
-0.21173
-0.22417
-0.17697
-0.20599
-0.1521
-0.1674
-0.1623
-0.073963
-0.015921
-0.059293
-0.094054
-0.17155
-0.15337
-0.0073105
0.071779
0.020435
0.086449
0.086768
-0.046218
0.03064
0.021391
0.079433
0.066995
0.0054459
-0.023575
0.023305
0.07433
0.029045
0.019478
-0.059612
-0.14221
-0.066947
-0.0034836
0.044353
-0.10809
-0.061206
-0.032823
-0.078427
-0.063439
-0.040477
0.050412
0.074012
0.099524
0.098249
-0.040477
-0.053552
0.050412
0.13269
0.046585
-0.047812
-0.086081
-0.0089051
-0.033142
-0.089589
-0.076833
-0.070774
-0.048769
-0.10362
-0.075557
-0.026764
-0.075238
-0.074282
-0.0076295
0.052007
0.067314
0.15246
0.16554
0.11132
0.052326
0.043396
0.085492
0.13747
0.19615
0.24367
0.22932
0.19105
0.14672
0.072417
-0.002208
0.044353
0.038612
-0.041753
-0.0066727
0.0028946
-0.032823
-0.10171
-0.12913
-0.12595
-0.11
-0.091822
-0.026764
-0.055785
-0.10617
-0.13296
-0.13519
-0.15114
-0.15178
-0.088952
-0.078427
-0.13041
-0.18271
-0.24235
-0.19898
-0.10904
-0.079065
-0.18718
-0.22863
-0.13232
-0.10266
-0.029953
0.011186
-0.046536
-0.013051
0.10048
0.10622
0.08613
0.10016
0.1413
0.15693
0.15757
0.20859
0.266
0.22262
0.22071
0.18244
0.17574
0.16012
0.056153
0.062212
0.067314
0.089
0.061255
-0.020705
0.041164
-0.02517
-0.026126
0.11324
0.083898
-0.067266
-0.11478
-0.044304
0.037018
0.084217
0.11898
0.23028
0.19966
0.097611
-0.087995
-0.080341
0.014694
0.11101
0.090595
0.20732
0.20508
0.24654
0.21274
0.022348
-0.0034836
0.11706
0.14066
0.18244
0.1649
0.073374
0.069866
0.035423
-0.084487
-0.16868
-0.1792
-0.18718
-0.21524
-0.29369
-0.26276
-0.28986
-0.32335
-0.33483
-0.33324
-0.28285
-0.30294
-0.33643
-0.3275
-0.2551
-0.19324
-0.15592
-0.13519
-0.15178
-0.091184
-0.053234
-0.054509
-0.05132
0.0070404
0.0038513
-0.040477
0.042121
0.053282
0.061574
0.12567
0.075606
0.046266
0.048818
0.052645
0.056153
0.15597
0.3234
0.33329
0.30331
0.24399
0.31096
0.34636
0.37124
0.39739
0.37251
0.42609
0.46436
0.28194
0.27811
0.27492
0.22517
0.21943
0.19679
0.15087
0.15246
0.091552
-0.022299
-0.028996
-0.04558
-0.067266
-0.078746
-0.13232
-0.14954
-0.29401
-0.29656
-0.29178
-0.29688
-0.33993
-0.36959
-0.3849
-0.34536
-0.3157
-0.34408
-0.38777
-0.41328
-0.35397
-0.34376
-0.34727
-0.33674
-0.34121
-0.33132
-0.25223
-0.23342
-0.25223
-0.26531
-0.28699
-0.22672
-0.14508
-0.032504
-0.0098618
0.055834
0.21688
0.32149
0.24048
0.2223
0.17192
0.20476
0.31734
0.49976
0.42226
0.37538
0.30682
0.27875
0.30299
0.27588
0.29023
0.2947
0.24208
0.078476
0.09793
0.15214
0.19711
0.16777
0.041802
0.058704
0.026494
-0.066947
-0.094054
-0.057698
-0.03378
-0.00029452
0.069228
-0.040477
-0.030591
0.035104
-0.040796
0.0019378
0.11738
0.023943
-0.073644
-0.12084
-0.064714
-0.037926
-0.069817
-0.16772
-0.24809
-0.25191
-0.19802
-0.28763
-0.38139
-0.31315
-0.31633
-0.28699
-0.26021
-0.25319
-0.2634
-0.20567
-0.16039
-0.13679
-0.1387
-0.13041
-0.15082
-0.06312
0.016289
-0.00029452
0.017246
0.022029
-0.034737
-0.074282
-0.026126
0.020754
0.054877
0.056153
0.015013
-0.0044404
-0.012094
-0.035375
-0.0028458
-0.023256
0.03638
0.17351
0.31096
0.37729
0.27269
0.12791
0.096654
0.23697
0.35306
0.41269
0.40089
0.28959
0.12727
0.052963
0.1598
0.1059
0.029045
0.024899
-0.046855
-0.052915
-0.10777
-0.15369
-0.079703
-0.1336
-0.085443
0.0051269
-0.0066727
-0.013689
0.030002
0.1413
0.24463
0.26057
0.1531
0.14066
0.19679
0.18563
0.23283
0.16777
0.24463
0.10845
-0.055785
-0.093097
-0.028678
-0.064714
-0.20854
-0.21875
-0.21747
-0.3141
-0.35397
-0.39542
-0.36066
-0.30071
-0.2213
-0.24107
-0.31123
-0.27934
-0.24713
-0.24011
-0.21173
-0.20727
-0.19738
-0.22832
-0.19355
-0.14125
-0.20057
-0.24235
-0.22449
-0.18207
-0.15146
-0.0864
-0.072368
-0.055147
0.017564
-0.011137
0.013738
0.081346
0.046266
0.012143
0.054877
0.10845
0.12025
0.093784
0.029045
0.032872
0.084217
0.11611
0.15661
0.21369
0.24877
0.20381
0.17192
0.16394
0.25292
0.33775
0.30873
0.30363
0.34987
0.24144
0.30713
0.29151
0.23889
0.21529
0.12918
0.0028946
0.021072
0.064125
0.053601
0.010548
-0.072687
-0.15146
-0.31251
-0.30517
-0.29465
-0.25925
-0.21907
-0.22002
-0.37438
-0.368
-0.23852
-0.14349
-0.21269
-0.21747
-0.2044
-0.18239
-0.11478
-0.0041214
0.015013
-0.09533
-0.013689
-0.060887
-0.12371
-0.046218
-0.022937
-0.035375
-0.061844
-0.11574
-0.13966
-0.13583
-0.15497
-0.13424
-0.091184
-0.1049
-0.1403
-0.12499
-0.17538
-0.12467
-0.10235
-0.093097
-0.088314
-0.080022
-0.039202
0.0025757
0.030321
0.11451
0.2998
0.36294
0.3049
0.24271
0.26121
0.35146
0.43661
0.49976
0.50741
0.40313
0.25388
0.288
0.37538
0.29438
0.21529
0.148
0.069547
-0.00093234
-0.062163
-0.15911
-0.18399
-0.24426
-0.25096
-0.24554
-0.27169
-0.27009
-0.25478
-0.31952
-0.31697
-0.27169
-0.18239
-0.17601
-0.17187
-0.19451
-0.13551
-0.093097
-0.077471
-0.072049
-0.0982
-0.095011
-0.12339
-0.091184
-0.097881
-0.13009
-0.17665
-0.2162
-0.19196
-0.15497
-0.11989
-0.12754
-0.12818
-0.087357
-0.091822
-0.074282
-0.04558
-0.03378
-0.045899
-0.0047593
0.11292
0.26695
0.23538
0.19615
0.19328
0.22932
0.23187
0.26568
0.266
0.40536
0.42322
0.27748
0.25483
0.17192
0.14672
0.08613
0.073055
0.044353
0.01597
-0.04558
-0.099794
-0.078427
-0.034737
0.028726
0.046585
-0.039202
-0.037288
0.050412
0.077201
0.10813
0.10399
0.18372
0.13524
0.11898
0.11643
0.059342
0.10463
0.078476
0.036061
0.0044891
-0.023256
-0.073963
-0.13456
-0.11733
-0.1505
-0.13456
-0.11064
-0.1859
-0.19993
-0.18271
-0.19292
-0.19547
-0.12148
-0.099157
-0.069498
-0.10139
-0.082254
-0.054509
-0.051958
-0.018472
0.056471
0.078157
0.028407
-0.012094
-0.091822
-0.082892
0.0025757
0.01884
-0.059612
-0.11351
-0.16485
-0.15018
-0.11223
-0.036331
0.030959
0.021391
0.008635
-0.013051
0.0057648
0.010867
0.025218
0.17415
0.18435
0.17192
0.13078
0.11643
0.14098
0.14258
0.12376
0.096016
0.13173
0.16107
0.16076
0.11866
0.10813
0.11228
0.042439
0.042758
0.060617
0.14034
0.20094
0.12376
0.067314
-0.015921
0.015013
0.079433
0.070822
0.064444
0.080071
0.042121
0.040526
0.066677
0.047861
0.031278
-0.019429
-0.12882
-0.10553
-0.097562
-0.069498
-0.12595
-0.1859
-0.22194
-0.19132
-0.1403
-0.10203
-0.08927
-0.10745
-0.17155
-0.22289
-0.19929
-0.1623
-0.12722
-0.15847
-0.11861
-0.14827
-0.20535
-0.17442
-0.1674
-0.19706
-0.13838
-0.075557
-0.047812
0.0041702
-0.024213
-0.028678
-0.00093234
-0.0050782
-0.016559
0.02458
0.059342
0.078157
0.071779
0.039569
-0.00061343
-0.020386
-0.024851
-0.01624
0.041802
0.047542
0.037975
0.090276
0.068271
0.05679
0.081028
0.091233
0.099843
0.15087
0.20763
0.32212
0.29406
0.28545
0.25292
0.35146
0.47807
0.45351
0.33424
0.40249
0.39643
0.33424
0.29693
0.24048
0.29534
0.21465
0.10845
0.029364
-0.0034836
-0.063758
-0.17187
-0.21556
-0.18781
-0.24043
-0.30166
-0.23023
-0.22832
-0.34057
-0.34121
-0.27169
-0.29529
-0.28125
-0.23788
-0.18048
-0.16453
-0.12244
-0.18558
-0.18654
-0.13838
-0.097562
0.040207
-0.01337
-0.048131
-0.056742
-0.04271
-0.0015702
0.014694
0.025218
-0.058017
-0.083211
-0.084487
-0.097562
-0.087357
-0.011775
0.054877
0.11866
0.15055
0.10973
0.094741
0.11802
0.17255
0.24559
0.24399
0.22135
0.037975
0.031596
0.27365
0.27748
0.14768
0.066039
-0.010819
-0.022299
-0.018153
-0.046536
-0.06312
-0.074282
-0.049088
-0.050682
-0.058336
-0.092778
-0.089908
-0.20472
-0.14125
-0.073325
0.015332
-0.0069916
-0.066309
-0.12977
-0.050044
0.023305
0.12536
0.084854
0.050093
0.044353
0.011824
0.12025
0.14449
0.10558
0.055515
0.041802
0.013419
-0.034737
-0.0031647
-0.067903
-0.075876
-0.11128
-0.13711
-0.21779
-0.21652
-0.14157
-0.081935
-0.15688
-0.19036
-0.22098
-0.16964
-0.17857
-0.039202
0.067314
0.026494
0.015013
-0.027083
-0.0076295
0.084217
0.18946
0.24399
0.17383
0.084217
0.012781
0.037337
2.4388e-05
-0.022618
-0.090546
-0.11191
-0.10011
-0.11765
-0.15082
-0.18909
-0.21683
-0.20727
-0.16836
-0.11702
-0.086719
-0.030272
0.01597
0.03351
0.059979
0.037337
0.022029
0.020116
0.12886
0.16012
0.089957
0.072098
0.10558
0.043715
0.061255
0.087725
0.11037
0.050093
0.03925
0.076882
0.14513
0.055196
0.017883
0.090595
0.072417
0.089638
0.046904
0.1126
0.13939
0.14481
0.098568
0.067314
0.091552
0.094741
0.070822
0.06859
0.080709
0.038612
-0.068222
-0.11542
-0.10681
-0.12212
-0.15528
-0.21588
-0.24777
-0.28986
-0.29879
-0.30039
-0.29911
-0.29146
-0.31474
-0.31506
-0.29114
-0.21939
-0.11478
-0.13966
-0.095649
-0.11255
-0.094054
-0.074919
-0.038564
0.018521
0.04531
0.079752
0.10208
0.038294
-0.005716
0.10686
0.069866
0.070822
0.037975
0.023624
0.0044891
0.018521
-0.028996
0.04818
0.17096
0.29183
0.23347
0.17574
0.19169
0.23921
0.30969
0.42258
0.44746
0.34732
0.2341
0.18053
0.23634
0.22167
0.16171
0.10813
0.020754
-0.10203
-0.10298
-0.18048
-0.21237
-0.23756
-0.23597
-0.24426
-0.29879
-0.26244
-0.20599
-0.17155
-0.17825
-0.2382
-0.28094
-0.28317
-0.21588
-0.17888
-0.22034
-0.26308
-0.26371
-0.23852
-0.16932
-0.16964
-0.17314
-0.15688
-0.078109
-0.036331
-0.043347
-0.021661
0.024899
0.059661
0.066995
0.12025
0.085492
0.10239
0.14672
0.13397
0.11292
0.055196
0.072098
0.070503
0.0013
0.071779
0.28385
0.25866
0.1413
0.060617
0.052645
0.069228
0.09793
0.21593
0.23283
0.17287
0.061574
0.1126
0.13524
0.04818
0.069547
0.02171
0.030321
0.042758
0.075606
0.0032135
-0.058974
-0.057061
-0.010819
-0.0076295
-0.022618
0.051369
-0.00093234
-0.021024
-0.061206
-0.047493
-0.039839
0.028407
-0.058336
-0.072049
-0.04558
-0.1151
-0.16932
-0.20982
-0.21301
-0.1808
-0.17761
-0.22353
-0.29401
-0.2854
-0.24904
-0.21556
-0.14636
-0.19706
-0.17282
-0.13774
-0.11574
-0.11574
-0.09246
-0.099794
-0.10171
-0.04271
-0.0095429
0.0131
-0.043347
-0.10522
-0.11542
-0.044942
-0.0031647
0.066677
0.03351
0.008316
0.0073593
0.052645
0.081984
0.094422
0.10973
0.12472
0.16331
0.22039
0.25164
0.22422
0.23538
0.34955
0.38686
0.37474
0.32117
0.27492
0.2593
0.25802
0.34604
0.30012
0.18435
0.10686
0.1464
0.14959
0.059661
-0.074919
-0.10203
-0.081298
-0.037926
-0.083849
-0.060569
-0.15624
-0.16804
-0.091184
-0.080022
-0.10107
-0.096605
-0.14476
-0.24904
-0.24586
-0.18462
-0.19834
-0.25032
-0.2567
-0.2634
-0.29369
-0.30358
-0.28923
-0.28317
-0.2618
-0.24617
-0.24203
-0.22895
-0.22608
-0.22481
-0.22863
-0.1741
-0.11287
-0.081298
-0.059612
-0.06025
-0.029315
0.023624
0.055834
0.060617
0.071141
0.11419
0.14226
0.18531
0.1716
0.1346
0.13556
0.13301
0.16681
0.14672
0.11706
0.1295
0.21178
0.1531
0.18244
0.28003
0.28354
0.22677
0.26408
0.31702
0.36486
0.26408
0.21752
0.23889
0.26121
0.30331
0.22964
0.040845
-0.10553
-0.027402
0.093784
0.046904
-0.0085862
-0.13105
-0.16772
-0.18048
-0.13806
-0.11861
-0.19898
-0.26722
-0.27583
-0.21109
-0.18175
-0.18175
-0.24362
-0.2551
-0.25447
-0.22895
-0.21205
-0.21237
-0.1505
-0.11574
-0.15943
-0.10936
-0.080341
-0.057061
-0.057379
-0.073325
0.0092728
0.026494
0.008635
0.0060837
-0.021343
0.028407
0.0079971
0.020754
0.056471
0.061574
0.081665
0.0003433
0.0041702
0.091233
0.11292
0.11069
0.070503
0.082622
0.15693
0.16363
0.15501
0.21369
0.29246
0.24463
0.20349
0.10654
0.14832
0.28513
0.15757
0.066677
0.050412
-0.053234
-0.032504
-0.067585
-0.15305
-0.22768
-0.26435
-0.31091
-0.33483
-0.31984
-0.2787
-0.24745
-0.22289
-0.22226
-0.1639
-0.11861
-0.14125
-0.13998
-0.11319
-0.090865
-0.050682
0.0099106
0.015651
0.0089539
-0.03378
0.032553
0.070503
0.093146
0.021072
0.0041702
0.082941
0.057109
0.020435
-0.019429
-0.0018891
-0.016878
-0.002208
0.045629
0.030002
-0.023256
-0.012413
0.054877
0.13524
0.1649
0.16809
0.12185
0.12886
0.24527
0.25133
0.29597
0.36422
0.32882
0.14194
0.095378
0.21816
0.27269
0.13556
0.028088
0.037337
-0.0079484
-0.041753
-0.046218
-0.14285
-0.17187
-0.16007
-0.16995
-0.19132
-0.25
-0.31155
-0.29082
-0.24203
-0.25734
-0.24203
-0.27711
-0.2669
-0.26053
-0.22289
-0.17251
-0.16868
-0.13041
-0.043666
-0.12435
-0.080022
-0.049088
-0.050682
-0.09533
-0.067266
0.0131
0.0051269
-0.029634
-0.058974
0.039569
0.019478
0.0044891
0.042439
0.059342
0.055196
0.13237
0.16426
0.1177
0.14034
0.10271
0.13971
0.16394
0.18053
0.14385
0.093784
0.018521
0.054877
0.11069
0.12855
0.098886
0.082941
0.057428
0.037975
0.061893
0.046266
0.010867
-0.023894
0.019478
0.048818
0.01884
0.028088
0.027451
-0.019748
-0.012094
0.012462
0.052963
0.058385
0.094103
0.11643
0.10877
0.084217
-0.0073105
0.025856
0.057428
0.048499
0.031278
-0.027402
-0.071093
-0.071093
-0.096605
-0.04845
-0.04271
-0.06886
-0.081935
-0.094054
-0.14317
-0.12626
-0.132
-0.0864
-0.055466
-0.11096
-0.086081
-0.073325
-0.10585
-0.14476
-0.14572
-0.10649
-0.11319
-0.1049
-0.04271
-0.049726
-0.033142
-0.039839
-0.0085862
0.019797
-0.017197
-0.018791
-0.031548
-0.03091
-0.002208
0.027132
0.0092728
-0.020067
-0.016878
0.0095917
0.060936
0.073055
0.080071
0.11419
0.10016
0.11962
0.11706
0.1193
0.10399
0.17861
0.21114
0.20094
0.13205
0.11292
0.12886
0.059661
0.11866
0.20987
0.1598
0.12536
0.07752
0.1193
0.18372
0.1598
0.093465
0.059979
0.09187
0.027132
0.047542
-0.025488
-0.060887
-0.097243
-0.10904
-0.11191
-0.13934
-0.22257
-0.26531
-0.27743
-0.27998
-0.28221
-0.32239
-0.3546
-0.37565
-0.31793
-0.26563
-0.25447
-0.26021
-0.23597
-0.19993
-0.19196
-0.11446
-0.035375
-0.020386
-0.017835
-0.014645
0.041164
0.028726
0.0025757
0.05105
0.056153
0.039569
0.038612
-0.011775
-0.04845
-0.04845
-0.041115
-0.014645
-0.0041214
-0.023256
0.019159
0.075287
0.12472
0.20381
0.24431
0.17925
0.16618
0.23283
0.28354
0.29438
0.27014
0.25037
0.25707
0.27971
0.2542
0.2172
0.12472
0.13046
0.099843
0.14768
0.13556
0.12599
0.10176
0.075606
0.030959
0.044034
0.036699
-0.0105
0.12472
0.083579
0.059023
0.04531
0.043396
0.019159
-0.024851
-0.048769
-0.016559
-0.10904
-0.22098
-0.23055
-0.1859
-0.18813
-0.18526
-0.22321
-0.28476
-0.30453
-0.34663
-0.31091
-0.23852
-0.27583
-0.29656
-0.27009
-0.2162
-0.20727
-0.21492
-0.20854
-0.19387
-0.12148
-0.078427
-0.090227
-0.06599
-0.047493
0.0131
0.10144
0.15884
0.13971
0.097292
0.098249
0.11005
0.16905
0.20763
0.18148
0.063487
0.023305
0.064444
0.054239
0.025856
-0.014645
-0.055785
-0.084168
-0.096286
0.021072
0.052963
0.14577
0.2172
0.10112
0.14098
0.14577
0.13779
0.19328
0.25388
0.29055
0.16299
0.1665
0.23602
0.12567
0.089319
0.10495
0.076244
0.011824
-0.039839
-0.098838
-0.10043
-0.14795
-0.15465
-0.16358
-0.19961
-0.20025
-0.21907
-0.23023
-0.2398
-0.24299
-0.21301
-0.15465
-0.11223
-0.099476
-0.14061
-0.11925
-0.092778
-0.015921
-0.012732
-0.021024
-0.02198
-0.011456
0.052007
0.064763
0.085173
0.069866
0.093465
0.095378
0.11101
0.13333
0.14066
0.068909
0.12759
0.15948
0.16394
0.18563
0.089638
-0.028678
0.041164
0.071141
0.02171
-0.019429
-0.054509
-0.044304
-0.059293
-0.055147
-0.044942
-0.078109
-0.075238
0.017883
0.04531
-0.018791
-0.041434
-0.048131
-0.068541
0.019478
0.075925
0.069547
-0.014008
-0.048131
0.015651
0.011824
0.046904
0.056153
0.044353
0.029364
0.050093
0.086449
0.039569
-0.017197
-0.023256
-0.049726
-0.021024
-0.021024
-0.0073105
-0.08353
-0.18494
-0.13519
-0.084487
-0.074282
-0.020705
-0.026445
-0.017835
-0.015283
-0.01337
-0.009224
-0.043028
0.004808
0.066995
0.061574
0.041164
0.045947
0.0044891
-0.023575
0.028407
0.038294
0.015332
-0.051639
-0.043985
0.030959
0.059342
0.07433
0.12185
0.097611
0.072098
0.16394
0.17415
0.14672
0.13524
0.12344
0.14704
0.19998
0.19807
0.13014
0.03064
0.025218
-0.002208
-0.019429
-0.087676
-0.18144
-0.21875
-0.18686
-0.18048
-0.21396
-0.309
-0.29242
-0.17251
-0.11542
-0.17187
-0.17219
-0.13487
-0.088952
-0.051639
-0.066947
-0.079703
-0.061206
-0.10235
-0.10841
-0.06599
-0.056104
-0.09533
-0.12435
-0.14731
-0.14667
-0.13934
-0.11542
-0.11319
-0.11797
-0.10936
-0.094373
-0.0034836
0.085173
-0.0050782
-0.009224
0.0095917
0.073055
0.11675
0.15533
0.18818
0.22358
0.21401
0.15597
0.19265
0.25228
0.27748
0.25037
0.24973
0.30522
0.26185
0.24463
0.24208
0.20253
0.21561
0.1716
0.067952
0.050731
0.10622
0.16681
0.11802
0.087087
0.01023
0.061255
0.10431
0.081665
0.10718
0.089638
0.0016189
-0.05132
-0.0982
-0.09533
-0.11925
-0.17187
-0.16198
-0.18686
-0.17857
-0.24075
-0.31059
-0.32367
-0.30613
-0.30517
-0.28636
-0.26021
-0.25447
-0.21715
-0.19228
-0.1438
-0.097562
-0.078427
-0.087038
-0.053552
-0.0085862
0.033191
0.070822
0.022986
-0.0018891
0.015332
0.031915
0.030959
0.0076782
-0.032823
-0.072368
-0.069498
-0.01911
-0.035694
-0.0060349
-0.005716
-0.043347
-0.044304
-0.027083
0.017564
0.04818
0.093465
0.16586
0.18212
0.15374
0.014056
0.048499
0.11547
0.059342
0.095378
0.1464
0.043715
0.016927
-0.026126
0.0054459
0.082303
0.03925
0.018202
0.010867
0.080071
0.27365
0.25324
0.082941
0.028726
0.044034
0.067633
0.090595
0.14098
0.14832
0.045629
-0.047812
-0.018472
0.0028946
-0.020386
-0.11064
-0.12882
-0.13679
-0.15688
-0.19228
-0.26308
-0.27966
-0.25829
-0.22098
-0.21556
-0.228
-0.25574
-0.2433
-0.20663
-0.15273
-0.12882
-0.14189
-0.1438
-0.10235
-0.059293
-0.033142
-0.010819
-0.011137
-0.053234
-0.030272
0.0073593
0.0054459
0.013738
-0.0031647
-0.020705
-0.00061343
0.028088
0.078157
0.049137
0.066995
0.070822
0.12472
0.093146
0.083898
0.12344
0.13046
0.10367
0.094422
0.14226
0.11451
-0.0034836
-0.026445
0.15087
0.34285
0.32659
0.26855
0.2695
0.24176
0.24941
0.31989
0.33679
0.30426
0.25228
0.25675
0.24335
0.18978
0.14672
0.090276
0.063487
0.031915
0.0003433
-0.076514
-0.1387
-0.15497
-0.20248
-0.20631
-0.22002
-0.23278
-0.25542
-0.22385
-0.1639
-0.18813
-0.25542
-0.31697
-0.26786
-0.22257
-0.22257
-0.24394
-0.27551
-0.22959
-0.17825
-0.15752
-0.19451
-0.2382
-0.24745
-0.22034
-0.17155
-0.13774
-0.12945
-0.10904
-0.071093
-0.052277
0.0073593
0.03351
0.032872
0.030959
0.10877
0.18085
0.20636
0.16458
0.080709
0.015013
0.076882
0.11993
0.090276
0.084217
0.0028946
-0.025807
0.030321
0.096973
0.13301
0.13779
0.32372
0.23315
0.23602
0.22103
0.24495
0.23666
0.23857
0.28385
0.33329
0.31893
0.14864
0.15438
0.11069
0.13684
0.10399
0.029364
-0.011456
-0.078427
-0.10394
-0.04271
-0.056742
-0.10649
-0.10617
-0.11446
-0.095649
-0.14317
-0.18367
-0.18781
-0.15784
-0.1454
-0.1674
-0.1808
-0.18973
-0.16517
-0.15401
-0.16772
-0.1757
-0.1792
-0.18494
-0.14412
-0.15273
-0.17984
-0.16198
-0.14221
-0.11861
-0.12212
-0.02517
-0.023256
-0.033461
-0.040477
-0.0095429
0.0070404
0.057747
0.050731
0.018202
0.020435
-0.0038025
0.095697
0.096016
0.036699
0.0032135
0.037656
0.043715
0.078795
0.10877
0.16681
0.17
0.15278
0.21848
0.21146
0.19265
0.12121
0.11388
0.20317
0.27748
0.26568
0.18435
0.099843
0.069547
0.096335
0.11993
0.15406
0.087406
0.021072
0.079752
0.11483
0.042121
-0.081617
-0.10777
-0.070774
-0.042072
0.004808
0.01597
-0.080979
-0.19866
-0.19898
-0.095011
-0.057061
-0.056742
-0.13105
-0.18909
-0.16134
-0.11096
-0.12212
-0.16103
-0.18271
-0.20089
-0.19547
-0.18558
-0.19674
-0.19355
-0.19515
-0.18654
-0.1674
-0.12913
-0.14572
-0.1218
-0.068541
-0.02804
-0.023575
0.050731
0.029045
0.022667
0.13492
0.13811
0.10782
0.13014
0.18691
0.17224
0.17383
0.20349
0.17479
0.13429
0.093784
0.10303
0.21338
0.18244
0.084854
0.10718
0.12057
0.098886
0.11388
0.031278
0.061255
0.029045
-0.013689
0.012781
0.025856
0.092189
0.077838
-0.0105
-0.061206
-0.085762
-0.067585
-0.040477
-0.10841
-0.17665
-0.12339
-0.10075
-0.062482
-0.029315
-0.04558
-0.021343
0.027451
0.071141
0.081665
0.088681
0.14864
0.12376
0.063806
0.058385
-0.036331
-0.056423
-0.025807
-0.0041214
-0.04558
-0.11957
-0.18654
-0.14285
-0.15911
-0.16134
-0.16326
-0.19483
-0.1674
-0.1336
-0.036969
-0.0063538
-0.058974
-0.043347
-0.078746
-0.088633
-0.056104
-0.078746
-0.06025
-0.0082673
0.012143
-0.03091
0.020116
0.04531
0.01597
0.040845
0.12408
0.1531
0.19169
0.14226
0.052007
-0.020067
0.078795
0.1665
0.16299
0.047861
0.030959
0.074968
0.14991
0.19902
0.088044
0.084217
0.078476
0.090595
0.065401
0.072736
0.10622
0.14034
0.061255
0.046904
0.042758
-0.026445
-0.10394
-0.11064
-0.13519
-0.1505
-0.12052
-0.17123
-0.17027
-0.1387
-0.14891
-0.12244
-0.080979
-0.13073
-0.16645
-0.11159
-0.072049
-0.052596
-0.10522
-0.10522
-0.095011
-0.060569
-0.0015702
0.0022568
-0.028996
-0.03378
-0.043028
-0.05419
-0.066628
-0.084168
-0.090546
-0.090227
-0.045261
-0.019429
-0.022937
-0.04558
-0.088314
-0.10553
-0.081298
-0.0018891
0.025537
0.050731
0.094103
0.18818
0.148
0.12472
0.1429
0.22326
0.22836
0.17861
0.18085
0.2054
0.18085
0.13397
0.084536
0.065082
0.14577
0.16331
0.10654
0.074649
0.02171
0.037018
-0.047493
-0.02198
0.071779
0.090595
-0.028678
0.014056
0.14959
0.085492
0.0131
-0.030591
0.031915
0.045629
0.067314
0.09793
0.055196
0.047223
-0.013689
-0.014964
-0.031867
-0.092141
-0.083849
-0.091822
-0.10362
-0.14604
-0.16581
-0.13998
-0.13743
-0.12722
-0.169
-0.13392
-0.093416
-0.074282
-0.041753
-0.046218
-0.10043
-0.11096
-0.087357
-0.044942
-0.044304
-0.084168
-0.10298
-0.11542
-0.08927
-0.11606
-0.10936
-0.10553
-0.090546
-0.087357
-0.075557
-0.067903
-0.087357
-0.12307
-0.12084
-0.10043
-0.055466
-0.042391
-0.034418
0.015651
0.012143
0.088362
0.1598
0.18467
0.13588
0.15406
0.18563
0.26376
0.28258
0.2542
0.23984
0.2341
0.17192
0.19743
0.14577
0.12823
0.089319
0.06285
0.052326
0.017883
-0.021024
-0.046218
-0.028359
-0.038245
-0.051001
-0.059931
-0.041115
-0.060887
-0.064077
-0.051958
-0.048769
-0.06599
-0.15401
-0.15273
-0.083849
-0.049088
-0.048769
-0.055466
-0.070455
-0.045899
0.008635
0.050093
0.043077
0.017564
0.02777
-0.062163
-0.012094
0.053282
0.050412
2.4388e-05
-0.069179
-0.073006
-0.017197
-0.052277
-0.071093
-0.039839
-0.10235
-0.078109
-0.07779
-0.084168
-0.074919
-0.13774
-0.1049
-0.011456
-0.041115
-0.082892
-0.046218
0.0057648
-0.0015702
-0.06886
-0.044304
0.0076782
0.049774
0.030321
0.026175
-0.0047593
-0.04271
-0.065033
-0.02198
0.055515
0.057109
0.03064
-0.01337
0.0013
0.025856
0.028726
0.084854
0.11292
0.13237
0.16713
0.20923
0.19328
0.18659
0.17255
0.17192
0.20987
0.24399
0.29023
0.22677
0.12727
0.15214
0.13939
0.10048
0.073693
-0.059293
-0.073325
0.029045
-0.06025
-0.14923
-0.21205
-0.2331
-0.32207
-0.33164
-0.36385
-0.36385
-0.35779
-0.33228
-0.32399
-0.27583
-0.17282
-0.15465
-0.11478
-0.06886
-0.035375
0.012462
0.019797
0.036699
0.040526
0.069866
0.20158
0.2054
0.13397
0.13556
0.11611
0.073055
0.069228
0.10431
0.084217
0.027132
0.0032135
0.025218
0.0092728
-0.02804
-0.063758
-0.071411
-0.064077
-0.031548
0.0054459
0.030959
0.008316
-0.015602
0.032872
0.058704
0.11005
0.14258
0.10558
0.12918
0.14736
0.011824
0.08613
0.14321
0.078157
0.093465
-0.012094
-0.064714
-0.084806
-0.11478
-0.13232
-0.11989
-0.12435
-0.056423
0.0099106
-0.067903
-0.064714
0.011186
-0.0085862
-0.015921
-0.0085862
0.01597
0.084854
0.01597
-0.012094
-0.027402
-0.0038025
-0.048131
-0.031229
-0.028996
-0.046855
-0.037607
-0.044623
-0.057061
-0.082573
-0.10075
-0.089589
-0.054509
-0.044304
-0.043666
-0.07779
-0.062482
-0.044304
0.0095917
0.033191
0.0041702
0.016289
0.028088
0.036699
0.046904
0.076882
0.013738
0.004808
-0.0044404
0.031915
0.045629
0.017883
0.055515
0.070822
-0.015921
-0.039202
-0.013689
0.0044891
0.0057648
-0.0069916
-0.049088
0.0076782
0.05679
0.020754
-0.04271
-0.043666
-0.052596
-0.03952
-0.04558
-0.017197
0.015651
0.017246
0.043077
0.086768
0.090595
0.081028
0.11005
0.15342
0.10239
0.099843
0.12631
0.13556
0.088362
0.12504
0.13843
-0.00029452
-0.046218
-0.10043
-0.056104
-0.015283
0.034148
0.017564
-0.027083
-0.014645
-0.066947
-0.11606
-0.099476
0.0016189
-0.025807
0.043396
0.0064026
-0.028678
-0.07779
-0.066309
-0.054509
-0.014008
-0.094373
0.0054459
-0.017516
-0.0089051
0.03925
-0.0098618
-0.057379
-0.10553
-0.14508
-0.13169
-0.12212
-0.04558
-0.06599
-0.14572
-0.1977
-0.18144
-0.13041
-0.1167
-0.12754
-0.11191
-0.06312
-0.027402
-0.0073105
-0.01624
0.014056
0.062212
0.033191
0.085492
0.13046
0.11228
0.078476
0.062212
0.066995
0.10271
0.10367
0.096016
0.10399
0.054239
0.088681
0.11419
0.093784
0.034148
0.057109
0.014375
0.15214
0.097292
0.028726
0.0025757
0.044034
0.050412
0.14226
0.13811
0.030321
0.008316
-0.03378
0.06285
0.10431
0.078476
0.017564
-0.019748
-0.017835
-0.066628
-0.01911
-0.0038025
-0.015283
-0.044942
-0.014964
-0.027721
-0.046855
-0.070455
-0.06599
-0.040477
-0.058974
-0.029953
-0.078427
-0.19196
-0.19674
-0.14891
-0.14476
-0.16421
-0.18909
-0.2264
-0.22449
-0.20695
-0.16485
-0.15082
-0.14636
-0.1336
-0.1454
-0.10713
-0.076514
-0.071093
-0.029953
-0.014327
0.0076782
0.0054459
0.02171
0.0060837
0.029364
0.019478
0.087406
0.12918
0.11419
0.11292
0.13843
0.14704
0.13907
0.12408
0.082622
0.10367
0.15214
0.14545
0.19073
0.24271
0.17255
0.18212
0.24303
0.22709
0.20604
0.20732
0.22549
0.2357
0.19456
0.089638
0.12089
0.13078
0.13205
0.069547
0.030959
-0.078746
-0.15879
-0.16007
-0.038245
-0.050044
-0.12499
-0.17984
-0.14763
-0.13615
-0.15018
-0.16039
-0.15241
-0.15752
-0.17123
-0.19706
-0.17219
-0.17601
-0.19387
-0.17761
-0.19196
-0.19611
-0.1926
-0.14476
-0.089908
-0.095649
0.0038513
0.093146
0.09187
0.10495
0.090276
0.061893
0.12727
0.23283
0.23155
0.16841
0.080071
0.081665
0.14832
0.10048
0.075925
0.050412
0.035742
-0.041115
-0.099157
-0.093416
-0.1269
-0.14189
-0.14699
-0.12658
-0.12722
-0.096924
-0.03665
-0.032823
-0.0073105
-0.01624
-0.0060349
0.02777
0.034467
0.063487
0.072736
0.098886
0.080071
0.061574
0.064763
0.008635
-0.0082673
0.037656
0.038931
0.004808
-0.064714
-0.080979
-0.059612
0.038294
0.017246
-0.11893
-0.12371
-0.030591
-0.032186
-0.049407
-0.038245
-0.033461
-0.019748
-0.044304
-0.08927
-0.072049
0.004808
0.12727
0.069228
0.068271
0.14098
0.1126
0.082303
0.17192
0.22805
0.17383
0.12823
0.11643
0.058385
0.030321
0.075606
0.028407
-0.0082673
-0.044623
0.022348
0.030959
-0.005716
-0.058655
-0.039839
-0.010819
-0.02804
0.010548
0.025856
0.026813
-0.059293
-0.093416
-0.023575
0.0044891
-0.075238
-0.11383
-0.11574
-0.13169
-0.11574
-0.035694
-0.0060349
-0.05132
-0.082892
-0.080022
-0.070455
-0.062801
-0.076833
-0.0864
-0.13169
-0.073644
-0.048131
-0.090865
-0.12116
-0.12595
-0.13487
-0.16358
-0.11478
-0.056423
-0.091184
-0.075557
-0.010181
0.0035324
-0.0082673
-0.0012513
0.0016189
0.044034
0.10909
0.16267
0.15597
0.056153
0.035742
0.12567
0.15151
0.1767
0.22422
0.30395
0.2408
0.15278
0.11547
0.089957
0.052326
0.10271
0.16713
0.092189
-0.044623
-0.051001
-0.024213
-0.086081
-0.10713
-0.0076295
-0.034418
-0.087676
-0.10075
-0.067585
-0.047812
-0.035056
-0.043985
-0.017197
-0.023894
-0.056742
0.00066221
-0.019429
-0.0015702
-0.031548
-0.002208
0.021072
0.047861
-0.034737
0.025856
0.054558
0.07752
0.053601
0.032553
0.040207
0.020754
0.044991
0.0025757
-0.00061343
0.026813
0.013419
0.017246
0.010548
-0.0098618
-0.027083
-0.067903
-0.097562
-0.056742
-0.056423
-0.13456
-0.16708
-0.13679
-0.15401
-0.099476
-0.068541
-0.093735
-0.061206
-0.076195
-0.078427
-0.068222
-0.03378
0.037018
0.010867
0.022986
0.044034
0.072098
0.069228
-0.031229
-0.071093
-0.015283
0.023943
-0.027083
-0.083211
-0.15433
-0.14667
-0.060887
-0.038883
-0.0069916
-0.026126
-0.049088
-0.020705
0.029045
0.037656
0.021391
0.010867
-0.0089051
-0.0012513
0.019797
0.042758
-0.010819
0.0019378
0.020435
0.070822
0.095697
0.047861
0.015332
0.045629
0.11005
0.14672
0.082303
0.0131
0.072098
0.11101
0.086768
0.037337
0.078476
0.085811
0.090914
0.1228
0.097611
0.082303
0.065082
0.048818
0.09793
0.20126
0.22039
0.21401
0.10909
0.058704
0.020116
0.028407
0.026813
0.0028946
-0.082892
-0.094373
-0.10298
-0.10681
-0.11989
-0.17091
-0.19674
-0.21492
-0.13392
-0.046536
-0.13806
-0.169
-0.17633
-0.13806
-0.060569
-0.066628
-0.070774
-0.080979
-0.1033
-0.10872
-0.0050782
-0.027083
-0.028359
-0.026445
-0.021661
-0.0018891
-0.022937
-0.072049
-0.06025
-0.040158
0.033829
0.022348
-0.011775
-0.0015702
-0.031229
-0.010181
0.0079971
0.056471
0.06285
-0.0095429
-0.005716
0.056471
0.081028
0.03351
-0.03091
-0.08066
0.054239
0.15374
0.10112
0.027451
-0.017835
0.00066221
0.03925
0.037337
0.052007
0.087725
0.074968
0.067314
0.080709
0.096973
0.081665
0.045629
-0.00093234
0.0064026
0.040845
0.05679
0.025537
-0.031229
-0.010819
0.035104
0.022667
0.025856
0.1059
0.18372
0.084854
0.02777
0.029683
0.015651
0.0095917
0.042121
0.10399
0.026494
-0.066309
-0.085443
-0.12626
-0.092141
-0.11446
-0.11542
-0.13774
-0.14508
-0.14763
-0.15018
-0.11574
-0.12148
-0.132
-0.099476
-0.084806
-0.093416
-0.091503
-0.048131
-0.025488
-0.056423
-0.035694
0.00066221
-0.02517
-0.0031647
0.02171
0.040207
0.13843
0.058704
0.041483
0.011505
-0.012413
0.01884
0.079114
0.060298
-0.0095429
-0.036969
-0.027402
2.4388e-05
0.081028
0.10813
0.054239
0.069547
0.028407
0.022029
0.032872
0.057747
0.061893
0.099524
0.071141
-0.012413
0.0057648
0.072098
0.081028
0.030002
-0.0079484
0.044672
0.071779
0.072736
-0.019748
0.025856
0.049137
0.047861
0.029683
0.01023
-0.027402
-0.048131
-0.044304
0.022986
-0.037288
-0.087995
-0.10968
-0.13902
-0.10426
-0.067585
-0.063758
-0.083849
-0.13487
-0.094054
-0.083211
-0.1218
-0.11096
-0.070136
-0.048131
-0.046855
-0.087038
-0.10394
-0.066947
-0.020705
0.037656
0.049137
0.051369
0.081346
0.10654
0.11005
0.035742
0.073374
0.14768
0.096973
0.11706
0.11037
0.15725
0.14991
0.069547
0.013419
0.044991
0.091233
0.13429
0.078476
0.079433
0.074649
0.089319
0.057428
0.058066
-0.02198
-0.03378
-0.028678
-0.027721
-0.053871
-0.10139
-0.087038
-0.077152
-0.019429
-0.014964
-0.049407
-0.058655
-0.09533
-0.096286
-0.050682
-0.044304
-0.005716
-0.055785
-0.076833
-0.016559
-0.011775
-0.047493
-0.10649
-0.084487
-0.080979
-0.066947
-0.097562
-0.055466
-0.064714
-0.050682
-0.034737
-0.050682
-0.041753
-0.06312
-0.065671
-0.046855
-0.034737
-0.014327
-0.024851
-0.034099
-0.036969
0.12472
0.073055
0.026813
0.033191
0.037337
0.071779
0.11579
0.15023
0.074012
0.0044891
-0.0098618
0.014694
0.016927
-0.0018891
0.0044891
-0.013051
-0.078109
-0.091822
-0.079384
-0.020386
-0.028678
0.026494
0.0032135
0.044672
0.02458
-0.033142
-0.029634
0.052326
0.086768
0.076882
0.064444
-0.015602
-0.043028
-0.061844
-0.059931
-0.079065
-0.034099
-0.053552
-0.084168
-0.13774
-0.13264
-0.12244
-0.11223
-0.066309
-0.043028
-0.035694
-0.063439
-0.084168
-0.0063538
0.13397
0.16267
0.18372
0.15246
0.14864
0.15374
0.16363
0.24144
0.21019
0.15055
0.17351
0.13939
0.24208
0.24782
0.16076
0.11069
0.10718
0.08613
0.07146
0.020435
0.0013
-0.029953
-0.06599
-0.086719
-0.077152
-0.13456
-0.19068
-0.2449
-0.25064
-0.2634
-0.27679
-0.28062
-0.29018
-0.21683
-0.18558
-0.1167
-0.10011
-0.13456
-0.13169
-0.10458
-0.058974
-0.0063538
0.041164
0.040207
0.017246
-0.0076295
-0.031548
0.016927
0.14609
0.10813
0.083898
0.067952
0.14449
0.17032
0.12918
0.14481
0.17542
0.14768
0.10622
0.075925
0.07146
0.11483
0.13779
0.073374
-0.044942
-0.09533
-0.056423
-0.038245
-0.04271
-0.072368
-0.081298
-0.093416
-0.10777
-0.020386
-0.020705
-0.075876
-0.088314
-0.11957
-0.12403
-0.07173
-0.035056
-0.053234
-0.056104
-0.051639
-0.036331
0.0054459
-0.073963
-0.091822
-0.036012
-0.058974
-0.089589
-0.061525
-0.066628
-0.11733
-0.091503
-0.030272
-0.044304
-0.040477
-0.0038025
0.051688
0.030002
0.075925
0.18914
0.18722
0.13747
0.14832
0.2542
0.23538
0.2121
0.25133
0.2121
0.17861
0.19711
0.14736
0.054558
0.0028946
0.045947
0.13014
0.10239
0.029683
-0.0031647
-0.0015702
0.0064026
0.012143
0.024899
0.017564
-0.050044
-0.072049
-0.053871
-0.0012513
-0.088952
-0.17506
-0.12563
-0.091184
-0.14508
-0.1269
-0.10298
-0.14253
-0.13456
-0.15401
-0.14508
-0.1556
-0.14476
-0.13743
-0.097562
-0.1151
-0.14189
-0.10936
-0.11383
-0.083849
-0.06312
-0.032823
0.0019378
-0.0047593
0.051369
0.16426
0.14003
0.070185
0.090595
0.10431
0.066039
0.055834
0.075606
0.10845
0.11388
-0.036969
0.014056
0.0019378
-0.013689
-0.043347
-0.059612
-0.067903
-0.077152
-0.059293
-0.041753
-0.066309
-0.064714
-0.076514
-0.078746
-0.066947
-0.050682
-0.062482
-0.051958
-0.029634
0.049774
0.17255
0.089638
0.022667
0.059023
0.06572
0.06572
0.13907
0.16554
0.15055
0.064763
0.010867
-0.009224
0.011505
-0.014008
-0.031548
0.0025757
-0.032504
0.038931
0.020116
0.016289
0.052645
0.049137
0.055834
0.14353
0.092189
0.022986
0.09506
0.10495
0.11706
0.0079971
-0.037288
0.04818
0.058385
-0.021024
-0.11446
-0.062163
0.031596
0.01884
-0.023256
-0.061525
-0.088952
-0.069498
-0.075876
-0.046536
-0.044942
-0.040796
-0.034737
-0.10841
-0.11223
-0.10203
-0.074601
-0.086081
-0.11319
-0.062482
-0.043028
-0.050682
-0.093097
-0.099794
-0.10107
-0.074282
-0.052915
-0.041753
-0.035694
-0.099476
-0.094054
-0.050363
-0.0082673
-0.0044404
-0.014964
-0.051001
2.4388e-05
0.052007
0.048499
0.05105
0.094741
0.029683
0.064763
0.12312
0.065401
0.061574
0.017883
-0.038245
-0.029634
0.00066221
0.018202
0.0079971
0.043396
0.06572
0.044034
-0.035056
-0.031229
-0.047493
0.0073593
0.089638
0.13524
0.10016
0.059661
-0.023575
0.049455
0.07433
0.057109
0.060936
0.088044
0.071779
0.13397
0.14927
0.11579
0.017246
0.043077
0.081984
0.087406
0.11675
0.099524
-0.017516
-0.0079484
0.027132
0.044991
2.4388e-05
-0.047812
0.0044891
-0.023894
-0.067903
-0.11542
-0.10745
-0.18909
-0.22321
-0.13009
-0.10426
-0.12595
-0.18813
-0.18431
-0.19068
-0.13073
-0.078746
-0.067903
-0.060887
-0.016878
-0.017835
-0.033142
-0.042072
-0.0031647
0.026813
0.04531
0.080071
0.079114
0.0057648
-0.095649
-0.050363
0.031596
0.081665
0.018521
-0.042391
-0.059612
-0.06312
-0.05419
-0.022618
-0.0050782
-0.058336
-0.094692
-0.077471
-0.065352
-0.061844
-0.020067
-0.068222
-0.01337
0.029364
0.11101
0.070503
0.056153
0.077201
0.088362
0.11611
0.14513
0.1582
0.1075
0.096654
0.070185
0.070185
0.081665
0.064763
-0.043985
-0.025488
0.044034
0.084217
0.052007
0.084217
0.088362
0.096654
0.064763
0.047542
0.097611
0.085173
-0.024532
-0.0038025
0.11419
0.062212
-0.027083
-0.072049
-0.12467
-0.085125
-0.025807
-0.026126
-0.085443
-0.10809
-0.11191
-0.091822
-0.10649
-0.081298
-0.015283
0.060936
-0.0015702
-0.065352
-0.076833
-0.053234
-0.044942
-0.043985
-0.031229
-0.031229
-0.039839
-0.022618
-0.08353
-0.06025
-0.013689
-0.016559
-0.044942
-0.093416
-0.07779
-0.070774
-0.08066
-0.051001
-0.028996
2.4388e-05
0.025856
-0.010819
0.03638
0.055515
0.053601
0.032872
0.10239
0.12153
0.10686
0.030959
0.02458
0.068271
-0.0079484
-0.056104
0.030002
0.072417
0.098886
0.068909
0.078157
0.084854
0.039569
0.0016189
0.044034
0.088044
0.059023
0.075287
0.064125
0.037975
-0.080979
-0.12595
-0.062482
-0.02198
-0.064714
-0.11191
-0.10904
-0.094054
-0.10745
-0.13328
-0.12116
-0.11319
-0.069179
-0.095649
-0.021343
0.0070404
-0.01337
-0.0044404
-0.017835
0.0095917
0.043396
0.066039
0.047861
0.070822
0.042758
0.098249
0.10845
0.11547
0.1177
0.083898
0.027451
0.079433
0.059661
0.037018
0.0095917
-0.0098618
-0.090865
-0.045899
0.014375
0.0041702
0.013419
-0.061525
-0.051958
0.01023
0.073055
0.07146
0.033829
-0.0028458
-0.031867
-0.0028458
0.015332
0.0022568
-0.026445
-0.043985
-0.060569
-0.08066
-0.022618
-0.0073105
-0.094373
-0.16071
-0.14412
-0.10522
-0.10585
-0.13551
-0.15114
-0.17059
-0.1639
-0.14221
-0.11
-0.092778
-0.10936
-0.057698
-0.027721
0.026494
-0.022937
-0.04845
-0.0028458
0.05679
0.050731
0.059661
-0.0089051
0.051369
0.083579
0.08039
0.032234
0.10909
0.10686
0.17
0.13747
0.12567
0.17479
0.21625
0.26918
0.21943
0.207
0.21146
0.17989
0.15374
0.099205
0.14832
0.11706
0.0057648
-0.070774
-0.12945
-0.12244
-0.097562
-0.078746
-0.10107
-0.11351
-0.132
-0.17059
-0.17123
-0.13679
-0.093097
-0.12563
-0.15465
-0.09533
-0.088633
-0.064077
-0.075876
-0.058017
-0.040158
-0.055147
-0.074282
-0.031229
-0.020067
0.020754
-0.011137
-0.002208
-0.067903
-0.077152
-0.018791
-0.023575
-0.011775
-0.081935
-0.081617
-0.082892
-0.064714
-0.088633
-0.081617
-0.01624
0.030959
0.01884
-0.031867
0.041802
0.099843
0.13269
0.1177
0.064763
0.10208
0.10686
0.064125
0.050412
0.092508
0.099205
0.13365
0.11132
0.062531
0.050093
0.038612
0.026494
0.022029
0.015651
-0.021661
-0.035375
-0.024213
-0.036012
-0.025488
-0.0044404
0.028088
0.016289
0.064763
0.054239
0.066677
0.053601
0.055196
0.10016
0.10176
0.11005
0.069547
0.042121
-0.010819
-0.024851
-0.016878
-0.005716
-0.057379
-0.16421
-0.19387
-0.17059
-0.1623
-0.12722
-0.12531
-0.092778
-0.057698
-0.076833
-0.097881
-0.032186
-0.011137
-0.0034836
0.058385
0.056471
0.11515
0.15788
0.07146
0.048818
0.036061
0.092508
0.089957
0.06285
0.046266
0.045947
-0.0031647
-0.064395
-0.076195
-0.11893
-0.13264
-0.16421
-0.15178
-0.12818
-0.19898
-0.19866
-0.191
-0.12882
-0.026126
-0.036012
-0.094054
-0.06886
-0.02517
-0.00061343
0.015013
0.023624
0.030002
0.051688
0.02458
-0.032186
-0.014327
-0.012732
-0.0018891
0.008316
0.048499
0.12759
0.16905
0.26121
0.19201
0.16171
0.14481
0.18978
0.229
0.21369
0.26057
0.31032
0.23474
0.17511
0.063806
0.054239
0.10303
0.044991
0.0067215
-0.012094
-0.050682
-0.10235
-0.1521
-0.14412
-0.16708
-0.18048
-0.23182
-0.13998
-0.11861
-0.15369
-0.15784
-0.18431
-0.18973
-0.21173
-0.18144
-0.08066
-0.057061
-0.058336
-0.081298
0.018521
0.014694
-0.078746
-0.062801
-0.030272
-0.015921
0.00066221
0.0064026
-0.021024
-0.099157
-0.12212
-0.062482
-0.041753
-0.052915
-0.058017
-0.079065
-0.059293
-0.071093
-0.11096
-0.1167
-0.12467
-0.053871
0.02171
0.0131
0.0016189
0.0057648
0.086768
0.13939
0.19584
0.25579
0.35497
0.33871
0.22199
0.25675
0.25005
0.22422
0.25675
0.24814
0.2357
0.089
-0.029315
0.057428
0.076244
0.0051269
-0.02517
-0.060569
-0.087357
-0.10394
-0.10426
-0.11128
0.0064026
0.0016189
-0.067585
-0.13264
-0.10777
-0.081617
-0.069817
-0.04845
-0.10107
-0.15241
-0.1438
-0.092141
-0.044942
-0.035056
-0.074919
-0.11287
-0.066309
-0.019429
-0.017516
-0.043666
-0.020705
0.004808
0.0070404
-0.059293
-0.038245
-0.040158
-0.069179
-0.064077
-0.021343
0.0054459
0.01884
0.02458
0.02458
0.050412
-0.021343
-0.03665
0.016289
0.062531
0.062531
0.03064
0.02458
0.00098112
0.056153
0.06572
0.047542
0.079114
0.16809
0.046904
0.035742
0.058704
0.05392
-0.0015702
-0.0041214
0.065082
0.076244
0.074012
0.0092728
-0.066309
-0.078746
-0.079065
-0.074282
-0.042072
-0.03378
-0.039202
-0.090546
-0.11638
-0.067266
-0.015921
-0.017835
-0.06025
-0.089908
-0.090546
-0.096924
-0.11223
-0.13073
-0.10617
-0.093416
-0.072049
-0.06025
-0.084806
-0.095649
-0.061844
-0.072049
-0.075876
-0.029953
-0.0066727
0.0044891
-0.034737
-0.035056
0.015332
0.092189
0.11356
0.12855
0.11515
0.12791
0.14034
0.14226
0.23187
0.29151
0.17096
0.15757
0.25515
0.24208
0.17702
0.2003
0.24846
0.20445
0.15725
0.093146
0.092189
0.072417
0.034786
0.063487
0.053282
-0.022299
-0.068222
-0.053871
0.014694
-0.039839
-0.11765
-0.18367
-0.16262
-0.1387
-0.14285
-0.14412
-0.15656
-0.15146
-0.10904
-0.085762
-0.1218
-0.1454
-0.12626
-0.14731
-0.13487
-0.12116
-0.13296
-0.1269
-0.1336
-0.089589
-0.058655
-0.067266
-0.14699
-0.13806
-0.058336
-0.05132
-0.024532
-0.02804
-0.0095429
0.0057648
0.053601
0.11866
0.069547
0.064763
0.064125
0.14481
0.14959
0.13301
0.21593
0.21114
0.16267
0.18308
0.22581
0.20636
0.15406
0.16363
0.14258
0.14959
0.088681
0.080071
0.025856
-0.023575
-0.014327
-0.051639
-0.11032
-0.14636
-0.21014
-0.14125
-0.10011
-0.16134
-0.16517
-0.11096
-0.13711
-0.18462
-0.14572
-0.13902
-0.088314
-0.10585
-0.1218
-0.048131
-0.0053971
-0.030591
-0.046855
-0.036969
0.022029
0.034148
0.059661
0.098249
0.16363
0.092189
0.090595
0.079433
0.08613
0.058066
0.072417
0.052645
0.13811
0.12185
0.071779
0.06285
0.023305
0.081346
0.080709
0.062212
0.066358
0.051369
0.060617
0.043715
-0.03952
-0.083849
-0.10458
-0.087676
-0.1269
-0.14061
-0.14636
-0.17219
-0.1387
-0.064077
-0.091503
-0.11606
-0.078427
-0.0041214
0.039569
0.0057648
-0.019429
0.0070404
-0.020386
-0.049407
-0.012094
0.078157
0.064444
0.02171
-0.074919
-0.10203
-0.024213
-0.005716
-0.0073105
-0.0028458
0.014694
0.028726
0.03638
0.018521
-0.056742
-0.014964
0.013419
-0.0044404
0.017883
-0.017197
-0.065671
-0.091184
-0.039202
-0.034737
-0.034418
-0.022618
-0.00061343
0.050731
0.13907
0.14162
0.11196
0.064444
0.11611
0.1464
0.22071
0.17606
0.080071
0.051688
0.090914
0.07146
0.02777
-0.015283
-0.066309
-0.069817
-0.018472
-0.081298
-0.12595
-0.13998
-0.15943
-0.13838
-0.021343
0.027132
-0.015283
-0.058655
-0.034418
-0.024851
0.030959
0.099843
0.15055
0.087406
0.014375
0.019797
0.032872
0.023624
0.02171
-0.042072
-0.11893
-0.14189
-0.14093
-0.15401
-0.19228
-0.17091
-0.11255
-0.082892
-0.11574
-0.087995
-0.055147
0.03351
0.056153
0.037337
0.090276
0.12567
0.15725
0.10813
0.13492
0.092508
0.061893
0.024899
0.074968
0.071779
0.051688
-0.014008
-0.091184
-0.11319
-0.081298
-0.1049
-0.096924
-0.059612
-0.070774
-0.082254
-0.070455
-0.051639
-0.03952
-0.024851
-0.0076295
0.034467
-0.0063538
0.014375
0.12025
0.12025
0.13333
0.094422
0.17064
0.082941
0.062212
0.047861
0.022986
0.04531
0.089638
0.023943
-0.065033
-0.095011
-0.10394
-0.041115
-0.025807
0.040207
0.057747
-0.0015702
-0.020705
-0.002208
0.013738
0.035742
0.065082
0.11228
0.18914
0.12759
0.061255
0.1008
0.078157
0.078476
0.094422
0.015651
-0.057379
-0.013051
-0.028359
-0.017197
-0.073325
-0.10298
-0.15114
-0.17506
-0.15465
-0.11478
-0.15975
-0.23916
-0.21779
-0.15784
-0.15752
-0.1572
-0.064714
-0.055785
-0.11638
-0.016878
0.054558
0.081665
0.11643
0.048818
0.012143
-0.0015702
0.084217
0.098249
0.10208
0.13301
0.15151
0.05392
0.04818
0.053601
0.042121
0.0032135
-0.024532
0.0013
-0.014645
-0.049407
-0.069817
-0.042072
0.03064
-0.012413
-0.081617
-0.11797
-0.06886
-0.010819
0.0044891
0.012781
0.096654
0.1126
0.029045
-0.040158
0.025856
0.03925
0.022029
-0.041753
-0.033142
0.0057648
-0.096286
-0.11925
-0.10458
-0.10809
-0.079065
-0.076833
-0.049088
-0.052277
0.00098112
-0.0060349
0.015332
0.12599
0.15916
0.10399
0.1177
0.12982
0.15151
0.072098
0.10239
0.14066
0.11388
0.06572
0.035423
0.03351
-0.037288
-0.032504
0.0067215
0.023305
-0.012094
-0.038883
-0.091822
-0.13647
-0.14412
-0.093097
-0.005716
-0.040477
-0.093097
-0.075876
-0.033461
0.0038513
0.020754
0.019478
0.12536
0.13556
0.10558
0.029683
-0.0063538
0.029683
0.047861
0.18372
0.14226
0.046904
-0.0982
-0.095649
-0.068541
-0.020705
-0.053552
-0.11702
-0.10394
-0.13519
-0.14061
-0.15273
-0.17538
-0.16198
-0.18526
-0.18686
-0.13774
-0.13392
-0.13424
-0.15401
-0.10394
-0.065671
-0.011775
0.058066
0.13556
0.13269
0.12312
0.17479
0.26855
0.24782
0.26121
0.23666
0.20859
0.18946
0.19711
0.23729
0.229
0.10813
0.018521
0.0028946
-0.059612
-0.061206
0.016608
-0.0053971
-0.094692
-0.14093
-0.15943
-0.18526
-0.1572
-0.076195
-0.087038
-0.18558
-0.19611
-0.096286
-0.057698
-0.072049
-0.043347
-0.082892
-0.042391
-0.040477
-0.038883
0.0067215
-0.0053971
-0.098838
-0.11765
-0.021343
0.054558
0.06572
-0.015602
-0.055147
-0.036012
0.066358
0.077201
0.05679
0.072417
0.13875
0.11515
0.10686
0.08613
0.083579
0.087725
0.0044891
-0.020386
0.071141
0.05679
-0.11415
-0.084487
-0.043028
-0.063758
-0.048769
-0.065033
-0.093097
-0.056104
-0.02198
0.02777
-0.0034836
-0.048131
-0.012094
0.019159
0.014375
0.11069
0.18659
0.076244
0.05392
0.10718
0.08326
0.064444
0.07752
0.026175
0.075287
0.047542
0.060617
0.059979
0.0079971
-0.10745
-0.15911
-0.096605
-0.033142
-0.053234
-0.055466
-0.039839
-0.022937
-0.026445
-0.023256
0.015651
0.031915
0.048818
0.069228
0.10718
0.0089539
-0.013051
-0.04271
-0.0089051
-0.046218
-0.038245
-0.095011
-0.10075
-0.072049
-0.074919
-0.002208
-0.036969
-0.06312
-0.053234
-0.015283
-0.0089051
-0.0031647
-0.0028458
-0.03378
-0.054828
-0.0063538
-0.029315
-0.095649
-0.09533
-0.068222
-0.097881
-0.1285
-0.1403
-0.12913
-0.11351
-0.1202
-0.11765
-0.11383
-0.13009
-0.12882
-0.062482
0.069547
0.07146
-0.0073105
-0.032823
-0.009224
0.037337
0.16331
0.28035
0.34477
0.24367
0.15725
0.18435
0.19839
0.13747
0.22007
0.24622
0.21529
0.17511
0.072098
0.038612
0.042121
-0.018791
-0.022937
0.008635
-0.0044404
-0.01337
-0.040796
0.0028946
0.069547
-0.011775
-0.06312
-0.054828
0.034148
0.056471
-0.043347
-0.053234
-0.010181
-0.052915
-0.091822
-0.080022
-0.051639
-0.010819
-0.06312
-0.06599
-0.0982
-0.062163
-0.054828
-0.058655
-0.10394
-0.10171
-0.03091
-0.020067
-0.064395
-0.096605
-0.071411
-0.098838
-0.046218
0.011505
0.0070404
-0.019429
-0.012413
-0.015283
0.0067215
-0.070774
-0.072687
-0.06599
-0.047174
-0.025807
0.013738
-0.0041214
-0.073963
-0.083849
-0.049726
-0.019429
-0.01911
-0.022937
0.023943
-0.0079484
-0.04558
0.03064
0.0051269
0.038612
0.03638
0.056153
0.16681
0.064125
0.11037
0.073055
0.076244
0.12408
0.13205
0.14353
0.16267
0.12249
0.15374
0.12631
0.13237
0.028407
-0.040158
-0.034737
-0.00029452
0.044991
-0.023575
-0.043985
-0.076195
-0.044942
0.019159
-0.0085862
-0.03665
0.0079971
0.094103
0.030002
0.0032135
0.034148
0.056153
0.054877
-0.0063538
0.011824
-0.023894
-0.045261
-0.023256
0.087406
0.1413
0.092189
0.13429
0.11834
0.1177
0.060936
0.12089
0.16681
0.085173
0.062531
0.079114
-0.00093234
-0.093735
-0.035056
-0.085125
-0.15369
-0.14859
-0.21014
-0.26148
-0.26053
-0.21715
-0.17538
-0.16358
-0.17888
-0.17538
-0.15656
-0.14349
-0.08066
-0.0079484
0.042758
0.016289
0.03064
-0.018153
-0.012094
0.029683
0.048499
0.10782
0.070185
0.041164
0.050412
0.097611
0.067314
-0.0038025
-0.051001
-0.015921
0.020435
-0.021343
-0.020386
-0.067266
-0.13041
-0.0864
-0.076514
-0.067903
-0.038564
-0.051958
-0.019748
0.054239
0.042758
-0.0095429
0.049774
0.064763
0.060936
0.082622
0.071779
0.06859
0.1649
0.17351
0.16426
0.18148
0.11292
0.13237
0.13492
0.047223
0.056153
0.058704
0.031278
-0.018153
-0.10362
-0.030272
-0.027721
-0.13328
-0.15241
-0.11351
-0.10872
-0.017197
0.050093
-0.010819
0.054877
0.01884
-0.0012513
0.041802
0.065401
0.038931
0.05392
-0.0047593
-0.014327
0.026494
0.01597
-0.032186
-0.08066
-0.10841
-0.12977
-0.12052
-0.072368
-0.056104
-0.042072
-0.050682
-0.051001
-0.016559
0.0051269
-0.028996
-0.0060349
0.00098112
-0.052277
-0.084487
-0.11478
-0.050682
0.028726
0.068271
0.05679
0.042121
0.0003433
-0.010181
0.029364
0.046585
0.062212
0.10654
0.10144
0.008635
0.044991
0.099843
0.12823
0.069228
0.025218
0.008316
-0.038245
-0.080341
-0.029953
0.0022568
0.01023
-0.011456
-0.062801
-0.10107
-0.098838
-0.12786
-0.079065
-0.079384
-0.075876
-0.043985
-0.087038
-0.067903
-0.03952
-0.035375
-0.026445
-0.029315
-0.046218
-0.018153
0.004808
0.014375
-0.0018891
-0.002208
0.11419
0.19169
0.13014
0.054558
0.06572
0.067314
0.098568
0.19775
0.23634
0.18308
0.11101
0.031596
0.10399
0.10112
0.021391
0.079114
0.066995
0.026175
-0.034737
-0.086719
-0.12339
-0.13743
-0.13169
-0.11032
-0.084487
-0.026126
-0.10107
-0.13424
-0.052915
-0.048769
-0.096605
-0.16804
-0.12786
-0.0060349
-0.012413
-0.037926
-0.055466
-0.028996
-0.024213
-0.012413
0.0060837
0.088681
0.059661
-0.029634
-0.055466
0.0038513
0.0054459
0.033829
-0.018791
-0.093735
-0.10043
-0.06886
-0.046536
-0.047812
-0.10458
-0.10745
-0.066947
-0.040158
-0.027402
-0.050363
-0.010819
-0.0031647
0.026813
0.02171
-0.0028458
-0.0073105
0.028726
0.096335
0.11164
0.11866
0.090595
0.10622
0.082941
0.096016
0.14034
0.31575
0.22805
0.19424
0.12312
0.068909
0.07146
0.14513
0.07433
0.048499
-0.037288
-0.054509
0.0057648
0.035423
-0.010819
-0.098519
-0.11765
-0.1151
-0.099157
-0.12052
-0.1033
-0.13169
-0.066309
-0.11797
-0.19005
-0.20408
-0.16453
-0.13998
-0.12626
-0.13902
-0.2028
-0.17091
-0.094373
-0.089908
-0.073963
-0.075876
-0.08066
-0.078109
-0.0028458
0.048818
-0.0015702
-0.018791
-0.082892
-0.067585
-0.01624
-0.00029452
0.042758
0.004808
-0.026764
-0.044623
0.09506
0.10877
0.084536
0.072736
0.080071
0.14417
0.14226
0.084536
0.10877
0.21242
0.21082
0.12791
0.19584
0.18563
0.13971
0.13173
0.24335
0.26249
0.19871
0.14513
0.11069
0.085811
0.085811
0.060617
0.015651
-0.086081
-0.021024
-0.078109
-0.19674
-0.23342
-0.19228
-0.16103
-0.16326
-0.17665
-0.1741
-0.19451
-0.17123
-0.16836
-0.11128
-0.056423
-0.070774
-0.15273
-0.1792
-0.11191
-0.13041
-0.13328
-0.1285
-0.12977
-0.10394
-0.091822
0.039569
0.067952
-0.0012513
0.00066221
0.033829
0.059661
0.064763
0.090914
0.084536
0.10399
0.12057
0.059979
-0.027083
-0.002208
0.072098
0.019478
-0.024851
-0.0098618
-0.034737
-0.030591
-0.0076295
0.014375
0.008316
0.0076782
-0.023575
-0.00061343
0.041164
0.07752
0.01597
-0.023575
-0.076195
-0.10171
-0.036012
-0.010181
0.080709
-0.024213
0.049774
0.037337
0.046585
0.072098
0.086449
0.10718
0.13397
0.14577
0.082622
0.044991
0.096016
0.12408
0.20476
0.23697
0.19296
0.093784
0.025856
0.019478
0.14194
0.10622
0.0022568
-0.040477
-0.075557
-0.10681
-0.07779
-0.083849
-0.072368
-0.099476
-0.09246
-0.15688
-0.24203
-0.20822
-0.16071
-0.11191
-0.090227
-0.13519
-0.10362
-0.12563
-0.11893
-0.058655
-0.08353
-0.073006
-0.079065
-0.095011
-0.063758
-0.036331
-0.02517
-0.038245
-0.03091
-0.0095429
-0.023575
-0.05132
-0.0031647
-0.031548
-0.06312
-0.074601
-0.10841
-0.087357
-0.028678
-0.027721
-0.043347
-0.04845
-0.096286
-0.0076295
0.041802
0.025856
0.016927
0.03351
-0.010181
0.067314
0.085173
0.066039
-0.013051
-0.012094
0.025537
-0.024851
-0.057061
-0.044942
0.037656
0.050093
0.022029
0.1008
0.081346
0.061255
0.064444
0.13716
0.13556
0.14003
0.08326
0.058066
0.11132
0.10239
0.095378
0.15151
0.23123
0.21178
0.12695
0.084854
0.089
0.16107
0.23219
0.29246
0.25069
0.12249
0.046904
0.054877
0.082622
0.064763
0.046585
-0.032504
-0.095011
-0.14285
-0.21269
-0.25606
-0.20185
-0.17059
-0.12371
-0.10777
-0.17984
-0.18239
-0.16358
-0.18144
-0.049407
-0.039202
-0.077152
-0.088952
-0.091503
-0.14093
-0.1218
-0.069179
-0.076833
-0.051639
-0.079065
-0.1202
-0.11797
-0.13137
-0.13998
-0.10075
-0.020705
0.011186
-0.029953
-0.066947
-0.093097
-0.11957
-0.085443
-0.032504
0.032553
0.01023
-0.02517
-0.057061
-0.027721
-0.049726
-0.032823
-0.025807
-0.077152
-0.015283
-0.024532
-0.0105
0.045947
0.070185
0.078476
0.13205
0.14162
0.20381
0.20859
0.25675
0.23761
0.20987
0.17415
0.20604
0.28417
0.288
0.18404
0.030002
0.091552
0.11388
0.084217
0.049137
0.0038513
-0.043347
-0.091822
-0.047174
0.062531
0.09187
-0.0041214
-0.031548
-0.068222
-0.10011
-0.082892
-0.064077
-0.028359
-0.094054
-0.15401
-0.15114
-0.13774
-0.058655
-0.038245
-0.054509
-0.046536
-0.052915
-0.038564
-0.035375
0.0028946
0.080709
0.12536
0.036699
-0.026445
0.013738
-0.01624
0.060936
0.033829
-0.017835
-0.073644
-0.1202
-0.10235
-0.10553
-0.082254
-0.10011
-0.10043
-0.097562
-0.08927
-0.041115
-0.086081
-0.099157
-0.049088
-0.026126
-0.06025
-0.082254
-0.075876
-0.026764
0.014375
0.027451
-0.039839
-0.045899
-0.059931
-0.03378
2.4388e-05
-0.0031647
-0.032186
-0.060569
-0.034418
-0.0012513
-0.0034836
0.034467
0.038931
0.13269
0.23921
0.14098
0.10686
0.082303
0.12312
0.26982
0.32436
0.33488
0.19807
0.019478
0.059661
0.16139
0.15278
0.10335
0.067633
0.016927
-0.06599
-0.060887
-0.070455
-0.088314
-0.084168
-0.080979
-0.132
-0.11064
-0.1639
-0.21715
-0.16708
-0.09246
-0.050363
-0.038883
-0.041753
-0.09533
-0.058655
0.014056
0.098568
0.076563
0.0044891
0.090914
0.01597
-0.03378
-0.023256
0.023305
0.00066221
-0.041753
-0.14986
-0.14221
-0.13487
-0.21715
-0.25096
-0.20503
-0.19706
-0.20248
-0.18845
-0.18271
-0.1556
-0.12595
-0.10107
-0.097881
-0.1033
-0.087676
-0.088314
-0.049407
0.0092728
0.016608
0.0076782
0.028726
0.077201
0.09187
0.1311
0.15023
0.16171
0.17319
0.19647
0.17351
0.19807
0.25292
0.24559
0.28258
0.27588
0.30299
0.28194
0.19488
0.27301
0.34126
0.36039
0.34827
0.35497
0.27078
0.22103
0.21625
0.17064
0.12855
0.058704
0.017883
-0.073963
-0.047812
-0.13105
-0.23565
-0.30294
-0.32622
-0.32048
-0.32303
-0.32813
-0.32782
-0.34089
-0.37916
-0.23437
-0.21269
-0.21939
-0.15752
-0.14253
-0.15433
-0.10841
-0.051958
-0.015283
-0.070455
-0.066947
-0.035694
-0.021343
-0.032186
-0.041115
0.020435
0.074012
0.038931
0.047861
0.04531
0.0070404
0.013419
0.06572
0.087087
0.11451
0.19966
0.36996
0.27014
0.16905
0.12025
0.25133
0.29502
0.29055
0.27971
0.28481
0.25133
0.1362
0.052007
0.030002
0.11132
0.12344
0.033829
0.0057648
-0.0038025
-0.040158
-0.050044
-0.061206
-0.14317
-0.072049
-0.049088
-0.076195
-0.11191
-0.1285
-0.1521
-0.20344
-0.22768
-0.19068
-0.14923
-0.23693
-0.22895
-0.24554
-0.24458
-0.23246
-0.228
-0.22832
-0.22353
-0.19068
-0.19642
-0.19738
-0.21078
-0.20918
-0.18112
-0.15241
-0.13105
-0.10107
-0.10266
-0.096924
-0.080979
-0.047174
0.023943
0.042121
0.13556
0.14194
0.1413
0.07752
0.011824
0.11706
0.14959
0.19073
0.229
0.19328
0.15087
0.062212
0.052326
0.12472
0.24909
0.39994
0.42035
0.36868
0.29246
0.23729
0.19902
0.24559
0.29597
0.32499
0.26823
0.13843
0.14704
0.11324
0.053282
-0.0053971
-0.0060349
-0.034099
-0.037288
-0.11032
-0.10553
-0.10872
-0.058017
-0.078109
-0.11159
-0.099157
-0.12307
-0.12882
-0.14667
-0.1438
-0.18175
-0.16645
-0.14891
-0.16581
-0.11415
-0.1285
-0.14667
-0.068541
-0.062482
-0.10171
-0.13711
-0.15114
-0.15178
-0.091822
-0.053234
-0.078746
-0.15433
-0.17729
-0.18686
-0.11989
-0.093735
-0.10936
-0.10139
0.025537
-0.02198
-0.028678
-0.028678
-0.029315
-0.041434
0.059023
0.13237
0.18595
0.11451
0.058066
-0.025488
0.017246
0.13205
0.13907
0.058704
0.04531
0.12153
0.15629
0.085811
0.10431
0.12121
0.13843
0.09187
0.18117
0.2239
0.075606
-0.065033
-0.089589
-0.027402
0.012462
0.016608
-0.036969
-0.076833
-0.10841
-0.0864
-0.11446
-0.13232
-0.12403
-0.084806
-0.0063538
0.033829
-0.011775
0.018202
0.029045
0.037975
0.10463
0.10877
0.076882
0.075606
0.055196
-0.013689
0.010867
0.0070404
0.039569
-0.0095429
-0.11478
-0.095649
-0.045899
-0.055466
-0.12307
-0.14444
-0.053552
-0.039202
-0.013689
0.021072
0.072736
0.061574
0.014694
0.01884
0.021072
0.0025757
-0.020705
0.010548
0.063487
0.071141
-0.014645
-0.051001
-0.013689
-0.017197
0.01597
0.013419
0.016608
0.039888
0.0057648
-0.041434
0.0051269
0.025537
0.054239
0.056471
0.08326
0.034467
-0.062482
-0.047812
-0.048769
0.022986
0.060936
0.062531
-0.00061343
-0.0050782
0.021391
0.023624
0.029683
0.028726
-0.0012513
-0.051001
-0.052596
-0.012094
-0.029315
-0.083211
-0.13519
-0.11415
-0.096924
-0.13551
-0.11542
-0.12403
-0.14508
-0.19036
-0.16453
-0.07779
-0.05419
-0.085443
-0.08927
-0.037288
-0.017516
0.016289
0.048818
0.087406
0.1547
0.26408
0.28928
0.27142
0.10399
0.24718
0.2542
0.28513
0.20158
0.16076
0.16331
0.10495
0.15852
0.15406
0.049774
0.0089539
0.008635
2.4388e-05
-0.017197
-0.0028458
0.028726
0.037975
0.00098112
0.004808
0.026813
0.066995
0.027451
0.020435
-0.010181
-0.051639
-0.096924
-0.099476
-0.11606
-0.11861
-0.15018
-0.17091
-0.18144
-0.16007
-0.16326
-0.1674
-0.1792
-0.19387
-0.19483
-0.21715
-0.19866
-0.18718
-0.14317
-0.10968
-0.10458
-0.11989
-0.097881
-0.024851
-0.034099
-0.0105
-0.0018891
0.0079971
0.066995
0.12791
0.17702
0.20955
0.1531
0.10909
0.087406
0.091233
0.10558
0.087725
0.038294
0.041483
0.05679
-0.0098618
-0.031867
-0.028359
-0.10203
-0.013689
0.035742
-0.027402
-0.07173
-0.065033
-0.043028
-0.00061343
0.028726
0.073693
0.048818
0.037975
0.10973
0.13173
0.16777
0.12408
0.10431
0.14449
0.11037
0.12631
0.16299
0.072417
-0.034418
-0.066309
0.013419
0.075606
0.063487
-0.065033
-0.043347
-0.0085862
-0.030591
-0.035375
0.0099106
-0.038564
-0.022618
0.05105
0.055515
0.046904
0.098568
0.093146
-0.02804
-0.048131
0.038612
0.085811
0.038294
0.020116
0.0041702
-0.06312
-0.12148
-0.041434
-0.0063538
0.021072
0.0054459
-0.028678
-0.084806
-0.13583
-0.14285
-0.11319
-0.10235
-0.11191
-0.093097
-0.080022
-0.1336
-0.13296
-0.067585
-0.10649
-0.096605
-0.087676
-0.034737
-0.00029452
-0.034737
-0.013051
0.014694
-0.010181
0.011505
0.052963
0.10335
0.097292
0.096973
0.12185
0.13747
0.13588
0.15246
0.19871
0.15884
0.10686
0.09506
0.11962
0.093465
0.064125
0.11005
0.10558
0.025218
-0.03378
-0.051958
-0.068541
-0.050044
-0.044942
-0.093735
-0.050363
-0.015283
-0.098519
-0.062801
-0.012413
-0.051958
-0.077152
-0.10872
-0.035375
0.018521
0.082941
0.045947
-0.0018891
-0.056742
-0.040796
-0.057379
-0.00061343
0.039888
0.0079971
0.030959
0.004808
-0.070774
-0.169
-0.1556
-0.10266
-0.09246
-0.077471
-0.10936
-0.12084
-0.10522
-0.13073
-0.088633
-0.053552
-0.042391
-0.039202
-0.032504
0.0028946
0.05392
0.052007
0.035742
0.1295
0.15533
0.11579
0.12823
0.23506
0.26855
0.2408
0.17128
0.16554
0.21433
0.23889
0.23379
0.21561
0.12886
0.0131
2.4388e-05
-0.0076295
-0.1049
-0.14317
-0.1049
-0.10841
-0.082892
-0.11638
-0.16836
-0.04845
-0.013689
-0.056423
-0.056104
-0.0034836
0.017564
0.0054459
0.0089539
0.0099106
-0.0044404
-0.050682
-0.06025
-0.097243
-0.16581
-0.19674
-0.20216
-0.23374
-0.18973
-0.17219
-0.19005
-0.21811
-0.16134
-0.12563
-0.088952
-0.10203
-0.097243
-0.038245
0.074012
0.1075
0.098568
0.066358
0.052645
0.0022568
0.064125
0.13205
0.067314
0.050412
0.055515
0.041802
0.023943
-0.002208
-0.057698
-0.070455
-0.035694
0.013738
-0.0053971
0.047223
0.057109
0.12153
0.19711
0.20572
0.16458
0.16203
0.18467
0.13429
0.15214
0.13875
0.24527
0.14321
0.05392
-0.043666
-0.018153
-0.040158
-0.063758
-0.12052
-0.077471
-0.052915
-0.020067
-0.02198
-0.0105
-0.035375
-0.047812
-0.01911
0.048499
0.0038513
0.012462
0.027132
0.052963
-0.042072
-0.13519
-0.12563
-0.14157
-0.069498
0.0019378
0.029045
-0.0018891
-0.048131
-0.044304
-0.0044404
0.017564
0.069866
0.087725
0.020116
-0.021661
-0.026126
-0.049726
-0.075238
-0.12722
-0.10522
-0.11191
-0.13232
-0.11574
-0.18973
-0.23852
-0.21492
-0.16326
-0.18144
-0.10617
-0.064714
-0.088633
-0.032186
-0.034737
-0.075876
-0.062482
-0.053552
-0.024213
0.0016189
-0.031548
0.059342
0.013738
-0.035375
-0.034737
-0.018791
-0.051639
-0.032186
-0.035375
-0.061206
0.055515
0.14034
0.14704
0.096973
0.044991
0.043077
0.071779
0.12025
0.15438
0.17255
0.1346
0.046585
0.072417
0.11388
0.14736
0.11866
0.11228
0.088362
0.10144
0.16426
0.15725
0.13365
0.18467
0.12855
0.06285
0.13939
0.2762
0.25579
0.18754
0.13429
0.057109
0.0038513
-0.012094
-0.012413
-0.073963
-0.10745
-0.086719
-0.12531
-0.10553
-0.11574
-0.12786
-0.13679
-0.2028
-0.21652
-0.19993
-0.18749
-0.19132
-0.23214
-0.27807
-0.2685
-0.18431
-0.20408
-0.20918
-0.23278
-0.25032
-0.17538
-0.15624
-0.11287
-0.048131
-0.10553
-0.058017
0.096973
0.16139
0.14321
0.094422
0.069547
0.050093
0.057109
0.12536
0.12185
0.092189
0.13142
0.022986
-0.074282
0.067952
0.054877
0.041483
-0.002208
0.008316
0.10654
0.12472
0.19934
0.15948
0.10558
0.037337
0.057747
0.11675
0.050093
0.18691
0.19328
0.13779
0.023624
0.0051269
-0.013689
-0.022299
0.008635
0.008316
-0.06886
-0.056742
-0.072368
-0.087676
-0.087676
-0.086081
-0.076833
-0.080979
-0.050363
-0.041434
-0.0028458
-0.0082673
-0.0038025
-0.034737
-0.032823
0.025537
0.044991
0.040845
0.019159
-0.019748
-0.071093
-0.14827
-0.095968
-0.11
-0.14285
-0.16039
-0.18207
-0.13774
-0.14636
-0.14412
-0.14349
-0.10681
-0.076514
-0.061206
-0.09246
-0.063758
0.020435
0.12727
0.14417
0.040845
0.0003433
-0.028678
0.066995
0.13046
0.058385
-0.0047593
0.022667
0.03064
-0.063758
-0.081298
-0.050363
-0.052915
-0.10713
0.012143
0.1008
0.13205
0.075606
0.066995
0.096335
0.1464
0.19169
0.21465
0.24686
0.20317
0.14194
0.094103
0.1362
0.15183
0.046904
0.02777
0.12344
0.14736
0.084536
0.034467
-0.032186
-0.04558
-0.0050782
0.028088
0.082303
0.068271
-0.031548
-0.041115
-0.0076295
0.0079971
-0.039839
-0.09246
-0.13902
-0.093416
-0.056742
-0.10745
-0.17952
-0.19196
-0.15401
-0.10777
-0.096924
-0.036012
-0.068222
-0.15752
-0.17442
-0.12307
-0.1151
-0.12626
-0.14604
-0.13424
-0.10043
-0.1218
-0.13679
-0.16262
-0.16166
-0.13998
-0.059293
-0.046855
-0.038245
0.023305
-0.0031647
-0.016878
0.030002
0.053282
0.05392
0.019159
0.036699
0.037018
0.11164
0.10813
0.055515
0.008635
0.093465
0.2003
0.18691
0.18276
0.13333
0.099205
0.079433
0.11132
0.095697
0.05105
0.10176
0.13843
0.10208
0.065082
0.075925
0.13843
0.12599
0.12727
0.10686
0.083898
0.1582
0.11292
0.11611
0.091233
0.0067215
-0.053234
-0.058974
-0.06025
-0.081298
-0.12786
-0.20727
-0.24554
-0.21173
-0.2146
-0.16071
-0.14763
-0.12467
-0.16326
-0.17187
-0.13998
-0.11191
-0.11446
-0.049407
-0.045899
-0.06886
-0.029634
-0.051001
-0.073644
-0.034737
-0.049088
-0.032823
0.11132
0.067952
-0.024851
-0.03378
0.040526
0.084217
0.1311
0.1531
0.030321
0.074012
0.14385
0.075606
0.024262
0.065401
0.063169
0.082622
0.098886
0.15757
0.12631
0.060617
0.0099106
0.088362
0.083898
0.045947
0.076882
0.096654
0.079752
0.079752
0.032553
-0.057379
-0.082254
-0.012094
-0.02517
-0.10458
-0.068541
-0.096286
-0.18239
-0.16326
-0.12276
-0.10107
-0.17761
-0.27424
-0.26212
-0.23533
-0.26531
-0.25829
-0.19674
-0.15018
-0.15241
-0.12467
-0.080341
-0.07173
-0.045899
-0.038564
0.040845
0.059661
2.4388e-05
-0.0041214
-0.031548
0.047861
0.12217
0.047861
-0.0038025
-0.031548
-0.044304
-0.020067
0.022348
-0.036331
-0.069817
-0.063758
-0.037926
0.0099106
-0.0069916
-0.085443
-0.10043
-0.091503
-0.056423
-0.063439
-0.061844
-0.080022
-0.097243
-0.075238
-0.054828
-0.045261
-0.062801
-0.06599
-0.031229
0.0035324
0.014056
-0.0063538
-0.026126
-0.038883
-0.018791
0.012462
0.0070404
0.047223
0.033829
0.035423
0.055515
0.089638
0.10782
0.087406
0.10144
0.11005
0.15151
0.21497
0.21625
0.22262
0.31319
0.30777
0.27843
0.26727
0.27939
0.34253
0.3521
0.36518
0.36837
0.32914
0.28672
0.2577
0.29821
0.26918
0.1311
0.10176
0.08039
0.03638
0.004808
-0.067903
-0.096286
-0.12595
-0.14317
-0.17442
-0.2044
-0.14285
-0.14221
-0.13679
-0.12371
-0.12467
-0.17378
-0.2449
-0.26499
-0.21301
-0.22513
-0.21014
-0.22736
-0.21428
-0.22353
-0.23884
-0.19898
-0.1572
-0.066947
-0.080022
-0.098838
-0.075557
-0.038883
0.0041702
0.078795
0.10782
0.11419
0.062531
0.059023
0.064125
0.051369
0.10112
0.18435
0.20349
0.15342
0.1295
0.066358
0.082941
0.1228
0.19743
0.2711
0.28864
0.21912
0.065082
0.037975
0.088681
0.15278
0.061574
0.034467
0.036699
-0.050363
-0.11765
-0.10553
-0.1741
-0.15975
-0.10809
-0.1202
-0.1572
-0.22353
-0.25
-0.21428
-0.22162
-0.20408
-0.18526
-0.21333
-0.17538
-0.10011
-0.11
-0.10266
-0.10936
-0.10235
-0.11606
-0.041753
-0.053234
-0.068541
-0.10713
-0.051001
-0.013051
-0.020386
-0.018791
-0.044623
-0.055785
-0.031867
-0.010181
-0.042391
0.050093
0.086768
0.10622
0.21465
0.1952
0.14864
0.12886
0.09187
0.13078
0.17
0.16203
0.17224
0.12536
0.087087
0.093146
0.070503
0.066995
0.030002
0.050731
0.15852
0.23889
0.18308
0.10176
0.01884
0.017564
0.079114
0.1008
0.15214
0.07146
-0.014008
0.016289
-0.078427
-0.056742
-0.013689
-0.075876
-0.1202
-0.16103
-0.18399
-0.2028
-0.20057
-0.21683
-0.24107
-0.21715
-0.19579
-0.21173
-0.19228
-0.15911
-0.09533
-0.034737
-0.034737
-0.016559
0.068271
0.13397
0.092189
0.10463
0.16809
0.11132
0.13907
0.15757
0.14417
0.19647
0.15788
0.066358
0.020116
-0.023894
-0.05132
2.4388e-05
-0.0025269
-0.048131
-0.10649
-0.11638
-0.089589
-0.10904
-0.068222
-0.078746
-0.055466
-0.029634
0.0079971
0.040845
0.030321
0.013738
0.017246
0.041483
0.066677
0.1295
0.19265
0.20604
0.075606
0.015651
0.075925
0.10526
0.03064
-0.030591
0.023305
-0.029634
-0.066947
-0.026445
-0.062482
-0.1336
-0.11032
-0.094692
-0.094054
-0.099157
-0.085762
-0.098838
-0.11223
-0.12052
-0.11223
-0.091822
-0.078746
-0.066309
-0.035375
-0.011775
-0.032186
-0.040477
0.020116
0.059979
0.042121
0.084854
0.058704
0.028088
0.0131
0.046266
0.085173
0.047542
0.058704
0.1716
0.15948
0.073693
0.028726
0.044034
0.12982
0.15055
0.15055
0.148
0.078476
0.090276
0.096335
0.072417
0.015651
-0.033142
-0.093416
-0.093735
-0.086719
-0.11957
-0.13232
-0.13711
-0.13232
-0.084168
-0.041434
-0.059612
-0.069498
-0.034099
0.067952
0.16713
0.13078
0.0038513
0.0022568
0.0028946
-0.0018891
0.042121
0.056471
-0.015283
-0.13902
-0.11255
0.012143
0.0067215
-0.039202
-0.054828
-0.11574
-0.0864
-0.080979
-0.083211
-0.066309
-0.096286
-0.064714
-0.024851
-0.1033
-0.15241
-0.20089
-0.18813
-0.14476
-0.1623
-0.14763
-0.12786
-0.10777
-0.12531
-0.1269
-0.13774
-0.060569
0.059023
0.050412
0.078157
0.059661
0.061255
0.084536
0.060298
0.14226
0.18595
0.13907
0.13078
0.081984
0.15214
0.16873
0.12472
0.089638
0.022348
0.010548
0.026813
0.051369
0.060936
0.025218
0.089638
0.1228
0.11898
0.096016
0.10909
0.14672
0.14704
0.18786
0.2306
0.207
0.16554
0.13907
0.030959
0.092508
0.12886
0.038294
0.03064
-0.034099
-0.017516
-0.03378
-0.074919
-0.1049
-0.10841
-0.10681
-0.17346
-0.19132
-0.15433
-0.16772
-0.20982
-0.22863
-0.2162
-0.25989
-0.29305
-0.33419
-0.32399
-0.31761
-0.29529
-0.25478
-0.23055
-0.21046
-0.20248
-0.18941
-0.132
-0.080341
-0.021343
0.082303
0.074968
0.13747
0.17032
0.19647
0.22709
0.25037
0.26823
0.29119
0.39643
0.36932
0.33584
0.32499
0.35561
0.35912
0.25133
0.20253
0.14003
0.14513
0.15087
0.1193
0.13237
0.097611
0.022986
-0.044304
-0.11191
-0.14827
-0.055785
-0.0098618
-0.085762
-0.18622
-0.20344
-0.14604
-0.14349
-0.17155
-0.19674
-0.19451
-0.18686
-0.18526
-0.17984
-0.1521
-0.067585
-0.013689
-0.055785
-0.08353
-0.064714
-0.041115
-0.040477
-0.023575
-0.0076295
-0.079703
-0.10458
-0.074601
-0.031548
-0.021024
-0.038883
-0.01624
-0.045899
-0.05132
-0.019748
-0.022937
0.050093
0.096335
0.10686
0.12408
0.059661
0.069228
0.10686
0.081665
0.11101
0.076882
0.026494
-0.018472
0.0095917
0.008635
-0.0066727
-0.015283
0.017883
-0.014645
-0.076514
-0.012094
0.0016189
0.038612
0.028407
0.036699
0.032234
0.01023
0.043715
0.040845
0.092508
0.10877
0.14321
0.19647
0.21082
0.22741
0.13843
0.13907
0.16107
0.16267
0.10973
0.089319
0.083898
0.056153
-0.018791
-0.024213
-0.05132
-0.040796
0.016608
-0.015921
-0.016878
-0.019748
-0.022618
-0.009224
-0.027083
-0.009224
-0.023575
-0.02517
-0.034418
-0.041753
-0.050044
-0.12339
-0.1285
-0.21333
-0.23661
-0.21652
-0.22768
-0.2264
-0.2618
-0.25861
-0.25606
-0.19866
-0.16134
-0.17282
-0.17601
-0.14986
-0.10171
-0.088633
-0.084487
-0.089589
-0.1033
-0.075876
-0.042391
-0.029634
-0.023894
-0.060887
-0.069817
-0.059293
-0.031229
0.039569
0.090276
0.072736
0.10654
0.22039
0.20285
0.19265
0.17192
0.25643
0.3183
0.29661
0.30203
0.22294
0.15725
0.20987
0.25101
0.2357
0.23283
0.15501
0.056153
0.0064026
-0.023575
-0.048131
-0.057698
-0.055466
-0.075238
-0.11287
-0.058017
-0.065033
-0.11415
-0.16071
-0.20248
-0.11606
-0.11829
-0.1521
-0.15784
-0.15146
-0.1049
-0.075557
-0.015283
-0.014008
-0.019429
-0.029634
-0.057698
0.024899
0.064444
0.12504
0.087725
0.033829
0.06572
0.078476
0.010867
0.0022568
0.02777
0.0079971
-0.011775
-0.03091
-0.054509
-0.061206
-0.074919
-0.047493
-0.02517
-0.06599
-0.11032
-0.14604
-0.14317
-0.094054
-0.065033
-0.068541
-0.051958
-0.03091
0.057428
0.078157
0.041483
0.064444
0.11579
0.12855
0.17479
0.25101
0.31734
0.26472
0.17638
0.19169
0.24303
0.18563
0.19679
0.13269
0.11706
0.093146
-0.012732
-0.03952
0.066677
0.019478
0.010548
-0.0079484
-0.069179
-0.049407
-0.00029452
-0.032186
-0.042072
-0.085762
-0.12563
-0.062801
-0.11096
-0.098838
-0.08066
-0.1556
-0.20918
-0.20727
-0.18431
-0.169
-0.13902
-0.17155
-0.20727
-0.16708
-0.11861
-0.12276
-0.17729
-0.14636
-0.11255
-0.10107
-0.11383
-0.096924
-0.11032
-0.1403
-0.11989
-0.061844
-0.027083
-0.029634
-0.011775
-0.014327
-0.040158
0.0016189
0.056471
0.02777
2.4388e-05
0.020754
0.08613
0.14513
0.14481
0.14481
0.18531
0.13588
0.092189
0.16841
0.21242
0.20381
0.18117
0.18053
0.21752
0.19839
0.18627
0.15406
0.10973
0.025218
0.0013
0.018521
-0.017835
-0.014327
0.063806
0.025218
-0.067903
-0.078109
-0.088633
-0.060569
0.017883
0.011186
0.0032135
0.013419
0.0073593
0.094103
0.13014
0.074649
0.048818
0.02777
0.054239
0.093146
0.11005
0.077201
0.042439
0.046585
0.035423
0.029683
0.008316
-0.042391
-0.090227
-0.09533
-0.088952
-0.11702
-0.10266
-0.13169
-0.1403
-0.13487
-0.1403
-0.064714
-0.046855
-0.094373
-0.073644
-0.098838
-0.052277
-0.025807
-0.041753
-0.06025
-0.085125
-0.073963
0.030002
0.07146
0.035742
-0.015602
0.00098112
0.050731
0.076882
0.041164
0.036699
0.042121
0.066358
0.099843
0.11515
0.11037
-0.0031647
0.015332
0.076244
0.054558
0.036699
-0.009224
0.012462
0.062212
0.075925
0.064444
0.059661
0.0057648
0.011186
0.10909
0.13205
0.10654
0.0038513
-0.030591
0.010867
0.032872
0.012143
-0.076514
-0.032186
0.0092728
0.011505
0.0079971
0.04818
0.088362
0.09793
0.14991
0.11515
0.11706
0.094103
0.085173
0.1244
0.13301
0.11101
0.050412
0.00098112
-0.031867
-0.062163
-0.072049
-0.11542
-0.2146
-0.29082
-0.25478
-0.1757
-0.22513
-0.27679
-0.2787
-0.27711
-0.20312
-0.18207
-0.17059
-0.09533
-0.025488
0.060936
0.056153
0.11675
0.13365
0.095378
0.13269
0.18818
0.24463
0.21082
0.10973
0.068909
0.076563
0.090276
0.079433
-0.01911
-0.1403
-0.13392
-0.08066
-0.055466
-0.080979
-0.14636
-0.13902
-0.01337
-0.012413
-0.055785
-0.10809
-0.10617
-0.082254
0.014694
0.066677
0.048499
0.026175
-0.046536
-0.087038
-0.080341
0.0028946
0.057109
0.064125
0.081028
0.051369
0.020435
-0.031867
-0.05419
-0.0982
-0.096286
-0.049088
-0.052277
-0.076195
-0.13551
-0.20982
-0.18973
-0.11574
-0.11478
-0.12658
-0.099476
-0.094692
0.012781
0.083579
0.16841
0.18531
0.12918
0.11579
0.19169
0.21465
0.24367
0.21625
0.1413
0.12185
0.023943
0.07146
0.09793
0.035104
-0.015283
-0.066309
-0.017197
0.084854
-0.038245
-0.09533
-0.092141
-0.043985
-0.018153
0.029683
0.075925
0.10016
-0.047174
-0.11255
0.031278
0.1464
0.11228
0.031596
-0.048769
-0.054828
-0.077152
-0.10266
-0.12595
-0.094373
-0.068541
-0.13009
-0.1387
-0.13743
-0.21269
-0.12818
-0.092778
-0.13647
-0.13934
-0.12595
-0.078746
-0.039839
-0.11064
-0.099476
-0.071411
-0.077471
-0.091822
-0.12084
-0.11446
-0.1454
-0.13424
-0.10298
-0.086081
-0.13328
-0.12212
-0.023894
0.10622
0.11866
0.14704
0.14417
0.12376
0.14513
0.19966
0.30713
0.31862
0.26249
0.17351
0.26855
0.26217
0.15916
0.15087
0.11579
0.074012
0.037656
0.033829
0.041483
0.0070404
-0.0034836
-0.034737
-0.051001
-0.060887
-0.046855
-0.081298
-0.082892
-0.093097
-0.08927
-0.024532
-0.097562
-0.090865
-0.037288
-0.050044
-0.10522
-0.11542
-0.12371
-0.11765
-0.081935
-0.1049
-0.091503
-0.0085862
-0.086719
-0.059931
0.0035324
0.043715
0.034148
0.00098112
0.042121
0.044672
0.13939
0.1008
0.027132
0.035742
0.051688
0.050412
0.017246
0.020754
2.4388e-05
-0.050363
-0.075876
-0.043985
-0.03378
-0.027083
0.0067215
0.037975
-0.029953
-0.033142
-0.052915
-0.043985
-0.026764
-0.054509
0.0079971
-0.050363
-0.088952
-0.013689
-0.005716
-0.091503
-0.069179
-0.012094
0.0067215
-0.017835
-0.030591
0.023624
-0.0044404
-0.032504
-0.038564
-0.053871
-0.097881
-0.063439
-0.00093234
-0.010819
-0.090227
-0.12595
-0.087676
-0.027083
0.034786
-0.0028458
0.028407
0.077201
0.069547
0.054239
0.055196
0.058704
0.11611
0.18212
0.18914
0.21816
0.12791
0.12025
0.095378
0.12408
0.1228
0.14545
0.12249
0.09793
0.094422
0.08326
0.076882
-0.021661
-0.018791
-0.040796
-0.011137
0.043396
-0.028996
-0.12403
-0.18048
-0.19738
-0.20727
-0.16708
-0.087357
-0.11415
-0.11606
-0.14349
-0.11893
-0.13902
-0.11415
-0.060569
0.058066
0.0076782
-0.037288
-0.022618
-0.030272
-0.050363
-0.012094
0.096016
0.15597
0.11547
0.011505
0.064763
0.1885
0.17734
0.12599
0.13333
0.1413
0.11164
0.12057
0.10909
0.034467
0.031596
0.14066
0.15661
0.034148
-0.042072
-0.0028458
-0.020386
-0.084168
-0.13647
-0.15273
-0.16804
-0.18207
-0.19005
-0.18462
-0.1926
-0.14699
-0.17282
-0.14827
-0.024851
-0.0034836
-0.035694
-0.042391
-0.026445
0.01597
0.061893
0.12089
0.075925
0.017564
-0.031229
0.047542
0.16076
0.31925
0.27907
0.17192
0.080071
0.063487
0.018202
0.047542
0.096335
0.082303
0.083579
0.089957
0.096973
-0.029634
-0.052277
-0.08353
-0.14827
-0.14986
-0.17091
-0.16485
-0.16134
-0.16517
-0.13902
-0.035375
0.10877
0.0041702
-0.010181
-0.030591
0.01023
0.014375
0.056471
0.076882
0.0054459
-0.042391
-0.026445
-0.13711
-0.18813
-0.1387
-0.16198
-0.19324
-0.20567
-0.24075
-0.26084
-0.24841
-0.21046
-0.17123
-0.16071
-0.1285
-0.11415
-0.11191
-0.066309
-0.056104
-0.010181
0.023305
0.12408
0.19201
0.18914
0.1582
0.1126
0.18244
0.24782
0.36454
0.41843
0.38559
0.30777
0.21401
0.24208
0.26376
0.26727
0.21338
0.22007
0.17224
0.070503
0.0016189
-0.052915
-0.083849
-0.054509
-0.09533
-0.10235
-0.13551
-0.12913
-0.040796
-0.059612
-0.080022
-0.037607
-0.036331
-0.052277
-0.035375
0.0028946
-0.032186
0.040845
0.064763
-0.0044404
-0.020067
-0.058017
-0.070774
-0.1269
-0.1556
-0.1454
-0.16517
-0.14572
-0.15879
-0.17793
-0.20248
-0.16007
-0.1151
-0.068222
-0.04558
-0.0079484
0.023305
-0.019429
-0.029634
-0.02198
0.075606
0.05679
-0.058336
-0.041753
0.012781
-0.031229
-0.064077
-0.11765
-0.13551
-0.062163
0.10431
0.14194
-0.019429
-0.069498
-0.094054
-0.047174
0.03638
0.11324
0.15788
0.078157
0.020435
0.08039
0.13907
0.19201
0.1228
0.065401
0.10208
0.096335
0.10144
0.1008
0.10845
0.18754
0.32021
0.32882
0.24941
0.22071
0.20572
0.20636
0.17255
0.19201
0.17319
0.096016
0.19871
0.10112
-0.03665
-0.021343
-0.041753
-0.11733
-0.1033
-0.1218
-0.17346
-0.13296
-0.14412
-0.19706
-0.21173
-0.23182
-0.26499
-0.28094
-0.23693
-0.20631
-0.17984
-0.18303
-0.22257
-0.19706
-0.19036
-0.19611
-0.19547
-0.21046
-0.21524
-0.19706
-0.15656
-0.14508
-0.10522
-0.091822
-0.11032
-0.088314
-0.026764
0.031278
0.010867
-0.033142
-0.040477
0.0073593
0.017246
-0.018791
0.0057648
0.048499
0.0057648
-0.075557
-0.04845
0.039569
0.015013
0.0076782
0.028726
0.047861
0.10271
0.1059
0.12025
0.097292
0.081028
0.094741
0.10239
0.13333
0.11132
0.16905
0.20508
0.10176
0.098886
0.057109
0.052645
0.14513
0.18244
0.16905
0.20668
0.15788
0.21146
0.19998
0.23155
0.20987
0.17064
0.1547
0.17064
0.17574
0.075925
0.017246
0.0016189
-0.059931
-0.069498
-0.049407
-0.090227
-0.13551
-0.087357
-0.094054
-0.17187
-0.23119
-0.22417
-0.17123
-0.14827
-0.11383
-0.084487
-0.1438
-0.17952
-0.16932
-0.13743
-0.13009
-0.053552
-0.094054
-0.13934
-0.057698
-0.047174
-0.088314
-0.1336
-0.11542
-0.075557
-0.082573
-0.069817
-0.082573
-0.12307
-0.14125
-0.10617
-0.058655
-0.080341
-0.10649
-0.10266
-0.062482
-0.072687
-0.067266
-0.033461
-0.037288
-0.053871
-0.034418
0.0041702
0.018521
0.015332
0.0073593
0.022029
0.060617
0.1008
0.1649
0.23251
0.29278
0.27843
0.17
0.25643
0.41174
0.43247
0.40536
0.43884
0.35752
0.35497
0.37379
0.36613
0.28481
0.25579
0.20508
0.16426
0.14896
0.098249
-0.034099
-0.087676
-0.15465
-0.22863
-0.29529
-0.309
-0.25957
-0.2669
-0.30964
-0.32813
-0.33132
-0.29178
-0.228
-0.20886
-0.21875
-0.17888
-0.13806
-0.15146
-0.13551
-0.065033
-0.030272
-0.055466
-0.094054
-0.082573
-0.072368
-0.056742
-0.051958
-0.026764
-0.03665
-0.053871
-0.093735
-0.068222
-0.06886
-0.047493
-0.017835
-0.0066727
-0.039839
-0.13711
-0.12722
-0.11957
-0.043985
-0.022937
-0.011775
-0.053552
0.017883
0.044353
0.069228
0.094422
0.13046
0.21242
0.28896
0.28672
0.30012
0.22964
0.19009
0.19743
0.20094
0.19966
0.24367
0.31638
0.30076
0.1885
0.066358
0.11993
0.17415
0.11547
0.16203
0.15246
0.085811
0.10367
0.09506
0.026813
-0.028678
-0.049407
-0.0076295
-0.010819
-0.039202
-0.078746
-0.11829
-0.16677
-0.13009
-0.11383
-0.10553
-0.098519
-0.048131
-0.080979
-0.12435
-0.16453
-0.1336
-0.072687
-0.11925
-0.1639
-0.14954
-0.16421
-0.15592
-0.12595
-0.14795
-0.13679
-0.12371
-0.10266
-0.11255
-0.11446
-0.15688
-0.17187
-0.1438
-0.14285
-0.11925
-0.11383
-0.13328
-0.18048
-0.1505
-0.14859
-0.1623
-0.082892
0.046585
0.031278
-0.012732
-0.02517
0.060936
0.074968
0.13684
0.20508
0.15087
0.18212
0.15693
0.19201
0.19328
0.20158
0.20827
0.17351
0.18053
0.13301
0.02458
0.057428
0.1177
0.11993
0.14513
0.040526
-0.036331
-0.0079484
0.085811
0.050093
0.038612
0.048818
0.0016189
-0.0047593
0.060936
0.089319
0.10558
0.076244
0.0076782
0.023305
0.021072
-0.0018891
-0.056104
-0.13551
-0.097562
-0.051958
-0.050363
-0.051958
-0.077471
-0.11032
-0.12116
-0.11159
-0.11159
-0.11829
-0.005716
0.017246
-0.077152
-0.07779
-0.11861
-0.02804
-0.028996
-0.037288
-0.032186
-0.053234
-0.091503
-0.030591
0.024899
0.066358
0.0070404
0.011824
0.046266
0.032234
0.079752
0.042121
0.0057648
-0.06599
-0.022299
0.017246
-0.015283
-0.082573
-0.10522
-0.13998
-0.18686
-0.16071
-0.15592
-0.11
-0.1505
-0.16964
-0.10649
-0.041434
-0.06312
-0.046536
-0.03952
0.012143
0.065401
0.069228
0.08613
0.088044
0.084217
0.13429
0.14896
0.096973
0.11706
0.1362
0.11802
0.10335
0.10112
0.075925
0.050093
0.012781
-0.0015702
-0.016559
-0.0069916
-0.013689
-0.041115
-0.058017
-0.027083
0.011186
0.046585
2.4388e-05
0.059979
0.089638
0.23921
0.2459
0.18404
0.14927
0.14162
0.18148
0.16299
0.14672
0.16681
0.14609
0.033191
0.054877
0.019797
0.040207
-0.041434
-0.10043
-0.16071
-0.16932
-0.18239
-0.18909
-0.15465
-0.23916
-0.28349
-0.25128
-0.16421
-0.18335
-0.19515
-0.1521
-0.14508
-0.10394
-0.0031647
0.0013
-0.059612
-0.074282
-0.027721
0.032553
0.06572
0.07433
0.10335
0.11579
-0.0076295
-0.049088
-0.0982
-0.046536
-0.02517
-0.046218
-0.024532
-0.085443
-0.067585
-0.068541
-0.040477
0.059023
0.072736
0.051369
0.024899
0.066358
0.095378
0.1346
0.11802
0.098886
0.078157
0.072736
0.10176
0.099843
0.1311
0.069547
0.044991
0.085811
0.032872
-0.027083
-0.011137
-0.029634
0.035423
0.047861
0.0073593
-0.056104
-0.10809
-0.028359
-0.010181
0.014694
-0.06886
-0.054509
0.060617
0.055515
-0.025807
-0.050044
-0.058017
-0.035375
0.04531
0.087725
0.11132
0.064444
-0.014327
0.032234
0.045947
0.13556
0.16586
0.12918
0.11228
0.043715
-0.013689
0.093784
0.046585
-0.032504
-0.018791
-0.029634
-0.043985
-0.14476
-0.18016
-0.20822
-0.24362
-0.23533
-0.21715
-0.2197
-0.23565
-0.23916
-0.22385
-0.17601
-0.18239
-0.2213
-0.22162
-0.18973
-0.075238
-0.0031647
-0.024213
-0.037926
-0.073963
0.0038513
0.064763
0.14768
0.17096
0.12823
0.17032
0.15087
0.13939
0.13652
0.17415
0.17702
0.17606
0.16235
0.16203
0.2357
0.37953
0.34827
0.22326
0.22103
0.22677
0.2239
0.22836
0.2644
0.27461
0.2054
0.016289
0.0079971
0.035423
-0.020386
-0.15592
-0.16358
-0.15656
-0.228
-0.28636
-0.26148
-0.25032
-0.24681
-0.22481
-0.2044
-0.16007
-0.13105
-0.1151
-0.12084
-0.09533
-0.12212
-0.11702
-0.10936
-0.10904
-0.12435
-0.12977
-0.12786
-0.1218
-0.1202
-0.11989
-0.089589
-0.093097
-0.094054
-0.059293
-0.01337
-0.037607
-0.047812
-0.0076295
0.040526
0.063806
0.069228
0.09187
0.11579
0.083898
0.16235
0.1413
0.070503
0.066358
0.13779
0.17989
0.15661
0.15151
0.091552
0.14194
0.10399
0.16777
0.21178
0.24973
0.17192
0.24016
0.20891
0.23379
0.22358
0.27237
0.33073
0.17542
0.061574
0.058704
0.067314
-0.0028458
-0.091184
-0.057061
-0.057379
-0.11765
-0.21396
-0.28923
-0.23597
-0.18558
-0.2264
-0.2162
-0.22289
-0.19164
-0.12435
-0.087676
-0.047493
-0.074601
-0.09246
-0.12499
-0.079703
-0.057061
-0.035056
-0.077152
-0.12786
-0.10904
-0.10107
-0.011137
-0.038245
-0.12786
-0.13456
-0.11096
-0.092141
-0.059612
-0.10904
-0.16103
-0.13296
-0.080341
-0.10011
-0.069817
-0.072049
-0.020067
0.071779
0.081346
0.072098
0.10399
0.063169
0.1834
0.22836
0.38017
0.36645
0.3183
0.24399
0.1936
0.24495
0.23251
0.25324
0.19392
0.21178
0.21178
0.15342
0.082303
0.028407
0.015651
-0.0041214
-0.03378
-0.047493
-0.13105
-0.12786
-0.091184
-0.12658
-0.17665
-0.17761
-0.21046
-0.17793
-0.16836
-0.14221
-0.091503
-0.11606
-0.14954
-0.10522
-0.031548
-0.014645
-0.040477
-0.078109
-0.035056
-0.0050782
0.071141
0.030002
-0.029953
-0.033461
-0.087357
-0.098838
-0.070136
-0.10298
-0.12818
-0.099157
-0.059931
-0.06886
-0.058017
-0.12722
-0.13774
-0.1438
-0.12626
-0.091503
-0.056742
-0.061206
-0.033461
0.0035324
0.01023
0.033829
0.037018
0.079752
0.089319
0.15087
0.207
0.17798
0.13046
0.17415
0.22836
0.25388
0.23666
0.16968
0.11228
0.093784
0.12982
0.19073
0.22549
0.11292
0.052645
0.046266
0.028726
0.059661
0.064444
0.023305
-0.03091
-0.069817
-0.083211
-0.056104
-0.023894
-0.064714
-0.1438
-0.14667
-0.085762
-0.07173
-0.10171
-0.06599
-0.081617
-0.10203
-0.1218
-0.11606
-0.15497
-0.14731
-0.095011
-0.10203
-0.079703
-0.13232
-0.19961
-0.15847
-0.10075
-0.052277
-0.069817
0.044034
0.093784
0.087725
0.12855
0.12886
0.082303
0.10526
0.15629
0.21338
0.2593
0.28162
0.18404
0.1952
0.094741
0.12408
0.15948
0.11356
0.052963
0.016289
0.065401
0.02458
-0.067266
-0.12435
-0.074919
-0.049088
-0.026764
-0.0864
-0.11702
-0.14093
-0.16836
-0.20663
-0.21141
-0.18813
-0.18462
-0.18048
-0.10777
-0.1269
-0.15433
-0.22704
-0.21683
-0.18526
-0.11415
-0.082892
0.032234
0.054558
0.010867
0.020116
0.047542
0.076882
0.070503
0.11228
0.1346
0.081984
0.11419
0.14481
0.050731
0.00098112
0.0016189
0.017564
-0.029953
-0.053234
-0.084168
-0.014008
0.061893
0.098886
0.087406
0.066358
0.088362
0.089319
0.13875
0.21114
0.17287
0.12344
0.10495
0.099524
0.13971
0.28162
0.23379
0.091233
0.038931
0.030002
0.01597
0.0089539
0.049455
0.019478
0.024262
-0.012413
-0.070774
-0.16453
-0.20503
-0.18845
-0.13487
-0.14636
-0.14795
-0.14221
-0.1285
-0.10107
-0.063758
0.0038513
0.0025757
0.004808
0.035423
0.083898
0.026813
0.039888
0.099205
0.076244
-0.012732
-0.064395
-0.047812
-0.022299
-0.09533
-0.14731
-0.15528
-0.16708
-0.14476
-0.15369
-0.14827
-0.13169
-0.074919
0.096973
0.10048
0.10686
0.052645
0.10813
0.1598
0.20508
0.2644
0.31319
0.2121
0.16076
0.22581
0.27014
0.21178
0.098886
0.042439
0.052645
-0.009224
-0.08353
-0.14221
-0.16613
-0.16772
-0.17984
-0.24299
-0.31059
-0.34408
-0.331
-0.3074
-0.2551
-0.21939
-0.18686
-0.26499
-0.29337
-0.21556
-0.15114
-0.17633
-0.19483
-0.1741
-0.15433
-0.13838
-0.11032
-0.084168
-0.072687
-0.06599
-0.045261
-0.035375
0.0003433
0.019478
0.040207
0.15087
0.12536
0.15119
0.18531
0.16554
0.31957
0.3285
0.31606
0.28672
0.36103
0.36964
0.37666
0.33137
0.34732
0.35784
0.30171
0.26281
0.27492
0.23092
0.10399
0.083579
0.03064
0.049774
0.078795
0.04531
-0.059612
-0.11861
-0.039202
-0.033142
-0.024213
0.016927
0.069547
0.086449
0.057747
-0.0063538
0.023943
-0.059612
-0.091822
0.013738
0.024899
-0.099476
-0.15082
-0.15975
-0.15114
-0.19579
-0.21907
-0.12371
-0.20121
-0.26403
-0.25734
-0.19068
-0.16007
-0.18431
-0.16836
-0.18239
-0.15815
-0.14667
-0.14699
-0.13615
-0.15369
-0.11
-0.058655
-0.020705
-0.034099
-0.065033
-0.027402
-0.0031647
0.031278
0.026813
0.023305
0.024899
0.046585
0.13205
0.12312
0.093784
0.11643
0.081984
0.12472
0.148
0.1059
0.18117
0.22996
0.2239
0.21752
0.26918
0.25675
0.10941
0.13524
0.13492
0.085811
0.16745
0.2644
0.21306
0.3655
0.24686
0.19488
0.16745
0.14896
0.12823
0.20189
0.28449
0.26281
0.075287
-0.0069916
0.020754
0.10909
0.078795
0.028726
-0.024851
0.017246
-0.026126
-0.065352
-0.088633
-0.082892
-0.092141
-0.078427
-0.11128
-0.12626
-0.094692
-0.11893
-0.17697
-0.22991
-0.25351
-0.26531
-0.29656
-0.36672
-0.42253
-0.42444
-0.4152
-0.39606
-0.40085
-0.38554
-0.36481
-0.34504
-0.3259
-0.30677
-0.28412
-0.27743
-0.25191
-0.2162
-0.18526
-0.15369
-0.15178
-0.11797
-0.08066
-0.055466
-0.029634
-0.023256
-0.021024
-0.024213
-0.0063538
0.0022568
0.0025757
0.025218
0.032872
0.058385
0.091552
0.089957
0.060936
0.058704
0.068909
0.11515
0.13811
0.11005
0.089957
0.11388
0.1582
0.14927
0.17766
0.29406
0.28003
0.31288
0.33903
0.34381
0.31543
0.29789
0.34477
0.46021
0.40632
0.42354
0.44012
0.3285
0.31
0.31925
0.25515
0.1311
0.20476
0.11898
0.049774
-0.011775
-0.050044
-0.16326
-0.11383
-0.067585
-0.058974
-0.20312
-0.22895
-0.20918
-0.21683
-0.23565
-0.25191
-0.21939
-0.22226
-0.36003
-0.38458
-0.29242
-0.24299
-0.23406
-0.26116
-0.2787
-0.2028
-0.17697
-0.15305
-0.10458
-0.088952
-0.057698
-0.018791
0.027132
0.078476
0.055515
0.012781
0.020116
0.084217
0.13556
0.16139
0.10813
0.056153
0.047542
0.078476
0.082622
0.084854
0.20732
0.25388
0.1952
0.12025
0.046266
0.033191
0.05392
0.12121
0.22868
0.28832
0.19679
0.2475
0.32085
0.34923
0.31415
0.26185
0.24335
0.34923
0.29597
0.25962
0.23219
0.10399
0.1244
0.13046
0.03925
-0.10426
-0.19324
-0.17984
-0.23629
-0.29656
-0.32048
-0.3275
-0.34567
-0.33643
-0.28955
-0.27041
-0.26722
-0.24586
-0.19611
-0.20759
-0.21141
-0.17187
-0.13934
-0.12116
-0.091822
-0.12754
-0.1285
-0.13583
-0.1269
-0.11096
-0.11415
-0.13902
-0.1556
-0.15879
-0.18877
-0.21046
-0.19866
-0.14986
-0.14349
-0.13137
-0.1151
-0.10362
-0.11351
-0.089908
-0.0085862
0.090914
0.12759
0.18148
0.27333
0.30203
0.3065
0.41078
0.43406
0.38335
0.34859
0.40058
0.3875
0.47169
0.42226
0.33297
0.20955
0.24559
0.22039
0.1936
0.12631
0.06859
0.046266
0.0022568
-0.12913
-0.13264
-0.10713
-0.11989
-0.085762
-0.081617
-0.12499
-0.17857
-0.14061
-0.11128
-0.097881
-0.11606
-0.10968
-0.13073
-0.16549
-0.12084
-0.11319
-0.15241
-0.21173
-0.2095
-0.18016
-0.17474
-0.19387
-0.20695
-0.16485
-0.13519
-0.15114
-0.14986
-0.13902
-0.086081
-0.080341
-0.085443
-0.062801
-0.091822
-0.12722
-0.14954
-0.10809
-0.077152
-0.10043
-0.10171
-0.13774
-0.1202
-0.11829
-0.049407
0.012462
0.040207
0.12886
0.30139
0.29725
0.1936
0.15788
0.28959
0.39483
0.4988
0.49561
0.46053
0.35593
0.3183
0.32563
0.28928
0.23474
0.25356
0.17479
0.11675
0.024262
-0.079065
-0.071093
-0.094373
-0.14795
-0.15273
-0.19674
-0.20918
-0.22226
-0.23278
-0.2162
-0.1623
-0.16549
-0.11925
-0.14444
-0.053234
-0.023256
-0.028996
-0.043347
-0.03665
-0.033142
-0.053552
0.0092728
0.044034
-0.002208
-0.089908
-0.094373
-0.073325
-0.045899
-0.030591
-0.062801
-0.11415
-0.14412
-0.13456
-0.061844
-0.065033
-0.067266
-0.13328
-0.079065
-0.0089051
-0.069817
-0.078746
-0.059612
-0.055785
-0.00061343
0.17542
0.28864
0.23379
0.2105
0.14768
0.18882
0.33743
0.34349
0.33424
0.19615
0.17224
0.28385
0.22167
0.16171
0.094422
0.072736
0.10654
0.054558
-0.047493
-0.035375
-0.038245
0.0060837
-0.00093234
-0.068222
-0.093416
-0.10426
-0.076195
0.0057648
0.047861
0.0067215
-0.095649
-0.19674
-0.16645
-0.13169
-0.087038
-0.09533
-0.11765
-0.10681
-0.12371
-0.066309
-0.020067
-0.011775
-0.087038
-0.077152
0.050731
0.095697
0.17224
0.18563
0.11738
0.092189
0.046266
0.060936
0.027451
0.070503
0.052007
0.023943
-0.06312
-0.091503
-0.15369
-0.17506
-0.13647
-0.13296
-0.12595
-0.09533
-0.038564
-0.057379
-0.01911
-0.038883
-0.027402
0.020116
0.049455
0.11069
0.12855
-0.0047593
-0.051958
