-0.008399999999999999
-0.0119
-0.0113
-0.0049
-0.0049
-0.0017
-0.0043
-0.0119
-0.017
-0.0071
0.0043
0.0094
0.0015
-0.004
-0.004
-0.0027
0.0031
0.0062
0.0043
0.0062
0.0123
0.0145
0.0126
0.0107
0.0034
-0.0008
0.0165
0.0241
0.0225
0.02
0.0149
0.0158
0.0171
0.0231
0.0238
0.0257
0.0273
0.0321
0.0356
0.0334
0.0286
0.0228
0.0263
0.0375
0.0451
0.0436
0.041
0.0375
0.0369
0.0391
0.0451
0.042
0.0464
0.0515
0.0553
0.0576
0.0557
0.0502
0.0458
0.0576
0.06710000000000001
0.07190000000000001
0.06809999999999999
0.06710000000000001
0.06809999999999999
0.0668
0.0716
0.07770000000000001
0.07829999999999999
0.0815
0.0888
0.092
0.093
0.0914
0.0856
0.0853
0.1009
0.1124
0.1147
0.1124
0.1111
0.115
0.1162
0.1249
0.1271
0.1309
0.1386
0.1465
0.1507
0.1494
0.1472
0.1427
0.1491
0.1666
0.1762
0.1743
0.1708
0.1717
0.1727
0.1771
0.1848
0.1864
0.1915
0.1963
0.2023
0.2046
0.2011
0.1972
0.1937
0.2071
0.2186
0.2231
0.2192
0.2186
0.2199
0.2183
0.2224
0.2297
0.2297
0.2317
0.2377
0.2412
0.2415
0.238
0.2307
0.2272
0.2422
0.2505
0.2514
0.246
0.2406
0.2396
0.2393
0.2441
0.2447
0.2441
0.2451
0.2489
0.2505
0.246
0.238
0.2291
0.2285
0.2396
0.2463
0.2374
0.2297
0.2231
0.2192
0.2144
0.216
0.209
0.2036
0.2014
0.2004
0.1944
0.1838
0.1704
0.1558
0.1571
0.1593
0.1561
0.1427
0.128
0.1191
0.1089
0.1025
0.099
0.0876
0.08119999999999999
0.0745
0.0665
0.0566
0.0445
0.0276
0.0158
0.0206
0.0177
0.008200000000000001
-0.0046
-0.018
-0.0285
-0.039
-0.0444
-0.0492
-0.0553
-0.0674
-0.0709
-0.07920000000000001
-0.08400000000000001
-0.0958
-0.1117
-0.1194
-0.1117
-0.1095
-0.1187
-0.1299
-0.1379
-0.1449
-0.1493
-0.1481
-0.1544
-0.1567
-0.1583
-0.1605
-0.1634
-0.1681
-0.1771
-0.1847
-0.1803
-0.1742
-0.171
-0.1771
-0.186
-0.1892
-0.1924
-0.1911
-0.1879
-0.1921
-0.1908
-0.185
-0.1835
-0.1895
-0.1946
-0.2016
-0.2086
-0.1962
-0.1886
-0.1879
-0.1924
-0.1975
-0.2
-0.201
-0.1962
-0.194
-0.1952
-0.1972
-0.1873
-0.186
-0.1901
-0.1937
-0.2019
-0.2013
-0.1863
-0.179
-0.1793
-0.1844
-0.186
-0.1886
-0.1879
-0.1822
-0.1819
-0.1771
-0.1707
-0.1713
-0.1707
-0.1732
-0.1777
-0.1835
-0.1758
-0.1646
-0.157
-0.1595
-0.1637
-0.165
-0.1678
-0.1615
-0.1551
-0.1579
-0.1541
-0.1449
-0.1474
-0.1426
-0.1458
-0.1516
-0.157
-0.1433
-0.1353
-0.1318
-0.1375
-0.1385
-0.1395
-0.1398
-0.1331
-0.1321
-0.1315
-0.1299
-0.1232
-0.1165
-0.119
-0.1242
-0.1305
-0.1293
-0.1108
-0.1025
-0.1037
-0.1076
-0.1104
-0.1095
-0.1073
-0.0999
-0.0993
-0.0964
-0.0926
-0.0878
-0.0878
-0.0881
-0.0929
-0.09859999999999999
-0.0916
-0.08019999999999999
-0.0747
-0.0795
-0.0824
-0.0849
-0.0862
-0.0837
-0.0789
-0.08019999999999999
-0.0789
-0.07190000000000001
-0.0747
-0.07149999999999999
-0.077
-0.0833
-0.08749999999999999
-0.0735
-0.06610000000000001
-0.06419999999999999
-0.06610000000000001
-0.0706
-0.07149999999999999
-0.0684
-0.0623
-0.0588
-0.0597
-0.0575
-0.0499
-0.0476
-0.0473
-0.0508
-0.0597
-0.0591
-0.0435
-0.0346
-0.0374
-0.0432
-0.046
-0.0486
-0.0464
-0.0413
-0.0428
-0.0413
-0.0381
-0.0333
-0.032
-0.0371
-0.0451
-0.0521
-0.0476
-0.0365
-0.0282
-0.0333
-0.0397
-0.0444
-0.0467
-0.0438
-0.0397
-0.0416
-0.0397
-0.0326
-0.0349
-0.0352
-0.0393
-0.0489
-0.0556
-0.0435
-0.0352
-0.0362
-0.0406
-0.0464
-0.048
-0.0495
-0.0476
-0.0464
-0.0486
-0.048
-0.0413
-0.047
-0.0464
-0.0499
-0.0582
-0.061
-0.0476
-0.0416
-0.0464
-0.0521
-0.0562
-0.0575
-0.0585
-0.0546
-0.0566
-0.0591
-0.0582
-0.054
-0.0502
-0.0515
-0.0594
-0.0741
-0.0693
-0.0559
-0.0492
-0.0543
-0.0566
-0.0601
-0.0639
-0.0623
-0.0566
-0.0597
-0.0597
-0.055
-0.0511
-0.0546
-0.0585
-0.06610000000000001
-0.0722
-0.0607
-0.054
-0.0527
-0.0572
-0.0607
-0.0623
-0.0658
-0.062
-0.0591
-0.0582
-0.0569
-0.0515
-0.0515
-0.0515
-0.0543
-0.0636
-0.0684
-0.054
-0.0454
-0.0467
-0.0505
-0.0556
-0.0578
-0.0585
-0.0537
-0.0543
-0.0534
-0.0531
-0.0476
-0.0502
-0.0518
-0.0582
-0.0658
-0.0639
-0.0524
-0.0457
-0.0502
-0.0556
-0.0588
-0.0636
-0.0623
-0.0553
-0.0572
-0.0569
-0.0569
-0.0518
-0.0534
-0.0597
-0.068
-0.0728
-0.061
-0.0537
-0.0518
-0.0578
-0.0633
-0.06419999999999999
-0.06710000000000001
-0.06519999999999999
-0.0617
-0.0639
-0.0617
-0.054
-0.054
-0.0613
-0.0648
-0.07149999999999999
-0.0747
-0.0607
-0.054
-0.0543
-0.0613
-0.0668
-0.0687
-0.0699
-0.0636
-0.0626
-0.0623
-0.0601
-0.055
-0.0572
-0.0582
-0.0674
-0.0751
-0.07190000000000001
-0.0575
-0.0499
-0.054
-0.0607
-0.0655
-0.06710000000000001
-0.06610000000000001
-0.062
-0.0648
-0.0636
-0.0623
-0.0585
-0.0566
-0.06419999999999999
-0.07149999999999999
-0.0779
-0.0684
-0.0585
-0.0546
-0.0613
-0.0658
-0.06710000000000001
-0.0684
-0.0623
-0.0566
-0.0578
-0.0556
-0.0492
-0.0527
-0.0505
-0.0534
-0.0594
-0.0626
-0.0499
-0.0428
-0.0448
-0.0489
-0.0531
-0.0553
-0.0559
-0.0505
-0.0518
-0.0505
-0.048
-0.0464
-0.0428
-0.047
-0.0521
-0.0594
-0.0591
-0.0467
-0.0387
-0.0422
-0.048
-0.0515
-0.0521
-0.0502
-0.0444
-0.047
-0.047
-0.0413
-0.0377
-0.0358
-0.0374
-0.0432
-0.048
-0.0362
-0.0244
-0.017
-0.0196
-0.0221
-0.0221
-0.0234
-0.0167
-0.0126
-0.0119
-0.0091
-0.0033
0.0005
-0.0004
-0.0065
-0.0164
-0.0205
-0.0046
0.0037
0.0018
-0.0055
-0.0081
-0.011
-0.0151
-0.01
-0.0081
-0.0055
-0.003
0.0005
0.0005
-0.002
-0.0055
-0.0103
-0.011
-0.0004
0.0094
0.0043
0.0002
-0.0024
-0.0043
-0.003
0.0024
-0.0004
-0.0008
0.0008
0.0047
0.0043
0.0002
-0.008699999999999999
-0.017
-0.008699999999999999
-0.0011
0.0018
-0.0049
-0.011
-0.0151
-0.0193
-0.0161
-0.0135
-0.0202
-0.0199
-0.0215
-0.0218
-0.0228
-0.0307
-0.0406
-0.0457
-0.0355
-0.0326
-0.0349
-0.0422
-0.0521
-0.0566
-0.0591
-0.0575
-0.0604
-0.0633
-0.0623
-0.0594
-0.0703
-0.0712
-0.08019999999999999
-0.0916
-0.09320000000000001
-0.0814
-0.07630000000000001
-0.0814
-0.09
-0.0951
-0.0974
-0.097
-0.0919
-0.0948
-0.0945
-0.09229999999999999
-0.0859
-0.08840000000000001
-0.0907
-0.09859999999999999
-0.105
-0.0955
-0.0853
-0.0795
-0.08459999999999999
-0.08939999999999999
-0.0897
-0.09
-0.0878
-0.0808
-0.0833
-0.0814
-0.0757
-0.0712
-0.0699
-0.0722
-0.07820000000000001
-0.08110000000000001
-0.06710000000000001
-0.0582
-0.0566
-0.0578
-0.062
-0.0617
-0.062
-0.0562
-0.0572
-0.0572
-0.0562
-0.0483
-0.0492
-0.0515
-0.0585
-0.06710000000000001
-0.0699
-0.0562
-0.0486
-0.0511
-0.0562
-0.0613
-0.0607
-0.0569
-0.0518
-0.0515
-0.0432
-0.0333
-0.0228
-0.0148
-0.0071
-0.0008
0.0062
0.0282
0.0589
0.0834
0.0987
0.1223
0.1507
0.1775
0.2093
0.2428
0.2722
0.3024
0.3295
0.3525
0.3764
0.3936
0.4035
0.4131
0.4373
0.4532
0.4539
0.4408
0.4265
0.4121
0.3974
0.3844
0.3652
0.3397
0.3212
0.2929
0.2722
0.2387
0.2068
0.1689
0.1405
0.1271
0.1064
0.0815
0.0547
0.0286
0.0062
-0.0122
-0.0205
-0.0355
-0.048
-0.0511
-0.0556
-0.06900000000000001
-0.0776
-0.0878
-0.0983
-0.0958
-0.0862
-0.08169999999999999
-0.08649999999999999
-0.0916
-0.09320000000000001
-0.0935
-0.09039999999999999
-0.08400000000000001
-0.0853
-0.08210000000000001
-0.0735
-0.0668
-0.0693
-0.0735
-0.0776
-0.07920000000000001
-0.0626
-0.0553
-0.0518
-0.0534
-0.0569
-0.0569
-0.0566
-0.0499
-0.0483
-0.0492
-0.0457
-0.0381
-0.0355
-0.0377
-0.0413
-0.048
-0.0505
-0.0355
-0.0275
-0.0291
-0.0333
-0.0365
-0.0362
-0.0352
-0.0298
-0.0304
-0.0282
-0.0221
-0.0189
-0.0193
-0.0215
-0.025
-0.0317
-0.0244
-0.01
-0.0036
-0.0075
-0.0129
-0.0151
-0.0167
-0.0126
-0.0052
-0.0052
-0.0055
-0.0017
0.0008
0.0015
-0.0027
-0.008399999999999999
-0.0145
-0.003
0.0059
0.0094
0.0031
-0.0043
-0.0055
-0.0068
-0.002
0.0008
-0.0014
0.0018
0.0069
0.008800000000000001
0.0062
0.0021
-0.0065
-0.0097
0.0053
0.0133
0.011
0.0066
0.0034
0.004
0.0024
0.0075
0.004
0.0056
0.008200000000000001
0.0145
0.0155
0.0114
0.0062
-0.0011
0.0031
0.0152
0.0206
0.0171
0.0129
0.0104
0.0056
0.008200000000000001
0.0161
0.0139
0.0142
0.0174
0.02
0.0203
0.0158
0.008200000000000001
0.0015
0.0149
0.0231
0.0247
0.019
0.0168
0.0158
0.0145
0.0219
0.0241
0.0206
0.0231
0.0298
0.0324
0.0334
0.0298
0.0219
0.02
0.033
0.0436
0.0436
0.0404
0.0378
0.0378
0.0388
0.0458
0.0474
0.0502
0.0557
0.0614
0.0643
0.0649
0.0608
0.0553
0.0636
0.078
0.08599999999999999
0.0837
0.08210000000000001
0.0818
0.0834
0.0895
0.0968
0.0993
0.1016
0.1102
0.1166
0.1178
0.1194
0.1156
0.114
0.1287
0.1386
0.1456
0.1456
0.1469
0.1478
0.1491
0.1558
0.1637
0.1666
0.1714
0.1781
0.1829
0.1867
0.1848
0.1791
0.1794
0.1972
0.2081
0.2084
0.2039
0.2026
0.2039
0.2049
0.2125
0.2135
0.216
0.2202
0.2256
0.2282
0.2262
0.2208
0.2141
0.2176
0.2329
0.239
0.2355
0.231
0.2291
0.2262
0.2282
0.2333
0.2301
0.2307
0.2339
0.2361
0.2336
0.2275
0.217
0.2071
0.2157
0.2221
0.2215
0.2132
0.2042
0.196
0.1896
0.1896
0.188
0.1806
0.1724
0.172
0.1676
0.1586
0.1469
0.1328
0.1233
0.1277
0.1236
0.1143
0.1029
0.0901
0.08119999999999999
0.07190000000000001
0.06560000000000001
0.0566
0.0499
0.0423
0.0362
0.0321
0.0206
0.0053
-0.011
-0.0173
-0.0129
-0.0167
-0.0298
-0.0397
-0.0502
-0.0617
-0.0674
-0.0703
-0.08110000000000001
-0.0859
-0.0891
-0.0929
-0.1012
-0.1076
-0.1216
-0.1334
-0.1296
-0.1261
-0.1277
-0.1391
-0.1477
-0.1535
-0.1608
-0.1599
-0.157
-0.1659
-0.1653
-0.1675
-0.1634
-0.1717
-0.1771
-0.1889
-0.193
-0.1825
-0.1771
-0.1784
-0.1831
-0.1901
-0.1921
-0.194
-0.1911
-0.194
-0.1908
-0.1946
-0.1844
-0.1847
-0.1895
-0.1946
-0.2045
-0.2055
-0.1917
-0.1841
-0.1866
-0.1917
-0.1946
-0.1978
-0.1965
-0.1917
-0.194
-0.1946
-0.1876
-0.1889
-0.1879
-0.1876
-0.1952
-0.1994
-0.1908
-0.1815
-0.178
-0.1809
-0.1866
-0.1882
-0.1892
-0.1854
-0.1803
-0.1809
-0.1819
-0.1713
-0.1678
-0.1694
-0.178
-0.1835
-0.1841
-0.1707
-0.1621
-0.163
-0.1675
-0.1704
-0.1694
-0.1675
-0.1634
-0.1605
-0.1618
-0.1646
-0.1513
-0.1465
-0.1484
-0.1564
-0.164
-0.1634
-0.1477
-0.1375
-0.1401
-0.1446
-0.1474
-0.1493
-0.1461
-0.1401
-0.1417
-0.1375
-0.1328
-0.1283
-0.1305
-0.1315
-0.1375
-0.1442
-0.1353
-0.1232
-0.1184
-0.1229
-0.1264
-0.1267
-0.1286
-0.1254
-0.1194
-0.119
-0.1175
-0.1101
-0.1101
-0.1108
-0.1117
-0.1181
-0.1222
-0.1079
-0.0977
-0.0964
-0.1015
-0.1057
-0.1053
-0.106
-0.1025
-0.099
-0.0983
-0.0948
-0.09039999999999999
-0.08649999999999999
-0.0916
-0.0964
-0.1044
-0.1034
-0.0888
-0.0805
-0.083
-0.08939999999999999
-0.0907
-0.0919
-0.0907
-0.0853
-0.0862
-0.0853
-0.07820000000000001
-0.0738
-0.07920000000000001
-0.08169999999999999
-0.0859
-0.091
-0.0849
-0.07439999999999999
-0.06900000000000001
-0.07539999999999999
-0.0789
-0.07920000000000001
-0.08169999999999999
-0.08210000000000001
-0.077
-0.07920000000000001
-0.0786
-0.0709
-0.0684
-0.0728
-0.07539999999999999
-0.08459999999999999
-0.09
-0.0766
-0.06900000000000001
-0.0699
-0.0747
-0.08019999999999999
-0.0814
-0.08019999999999999
-0.07539999999999999
-0.07729999999999999
-0.07820000000000001
-0.077
-0.0706
-0.0693
-0.0709
-0.0795
-0.0859
-0.0878
-0.07149999999999999
-0.06519999999999999
-0.06900000000000001
-0.0751
-0.07729999999999999
-0.0805
-0.0805
-0.0747
-0.0779
-0.07729999999999999
-0.0725
-0.0655
-0.0703
-0.0722
-0.0789
-0.0853
-0.0789
-0.0658
-0.0623
-0.0687
-0.0725
-0.0735
-0.0747
-0.07190000000000001
-0.0687
-0.0709
-0.0693
-0.06419999999999999
-0.0636
-0.0633
-0.0687
-0.077
-0.08210000000000001
-0.06710000000000001
-0.061
-0.0613
-0.06519999999999999
-0.07190000000000001
-0.07439999999999999
-0.07729999999999999
-0.0738
-0.06900000000000001
-0.06900000000000001
-0.0677
-0.0629
-0.0636
-0.0658
-0.0731
-0.08019999999999999
-0.0808
-0.0655
-0.0591
-0.061
-0.06519999999999999
-0.0664
-0.0674
-0.0664
-0.061
-0.0617
-0.0607
-0.0562
-0.0537
-0.0499
-0.0534
-0.0597
-0.0664
-0.061
-0.0492
-0.0435
-0.0483
-0.054
-0.0562
-0.0575
-0.055
-0.0502
-0.0534
-0.054
-0.0515
-0.0464
-0.0518
-0.054
-0.0613
-0.0687
-0.0569
-0.0499
-0.047
-0.0518
-0.0585
-0.0636
-0.0648
-0.0591
-0.0575
-0.0591
-0.0601
-0.0515
-0.0505
-0.0559
-0.061
-0.0709
-0.0731
-0.0578
-0.0492
-0.0553
-0.0626
-0.0677
-0.0687
-0.0648
-0.0617
-0.0648
-0.0645
-0.0623
-0.0572
-0.055
-0.0585
-0.06519999999999999
-0.0725
-0.0664
-0.0518
-0.0444
-0.0483
-0.0518
-0.0546
-0.0543
-0.0476
-0.0403
-0.04
-0.0374
-0.0307
-0.024
-0.0237
-0.0279
-0.0333
-0.0368
-0.0215
-0.0116
-0.008699999999999999
-0.0142
-0.0167
-0.0164
-0.0167
-0.0116
-0.0091
-0.0097
-0.0068
-0.002
0.0027
0.0021
-0.0033
-0.008699999999999999
-0.008699999999999999
0.0053
0.0158
0.0149
0.0098
0.0056
0.0062
0.0091
0.0149
0.0142
0.0171
0.02
0.0231
0.0244
0.0212
0.0142
0.0047
0.008500000000000001
0.0203
0.0241
0.0193
0.0133
0.0069
0.0021
0.0027
0.0043
-0.0008
-0.003
0.0002
-0.0033
-0.0033
-0.008699999999999999
-0.0202
-0.032
-0.0215
-0.0132
-0.0151
-0.0253
-0.0317
-0.0368
-0.0416
-0.0397
-0.0381
-0.0393
-0.0403
-0.0406
-0.0374
-0.0428
-0.0489
-0.0582
-0.062
-0.0492
-0.0422
-0.0454
-0.0502
-0.054
-0.0578
-0.0594
-0.0543
-0.0575
-0.0578
-0.0559
-0.0495
-0.0505
-0.054
-0.0601
-0.0696
-0.06610000000000001
-0.0518
-0.0457
-0.0502
-0.0543
-0.0566
-0.0578
-0.0546
-0.0483
-0.0518
-0.0508
-0.0438
-0.0413
-0.0406
-0.0444
-0.0508
-0.0556
-0.0441
-0.0355
-0.0333
-0.039
-0.0425
-0.0425
-0.0451
-0.0419
-0.0384
-0.039
-0.0387
-0.0346
-0.0304
-0.0358
-0.0406
-0.0518
-0.055
-0.0416
-0.0365
-0.0393
-0.046
-0.0531
-0.0572
-0.0594
-0.0534
-0.0569
-0.0572
-0.0546
-0.0508
-0.0527
-0.0556
-0.0594
-0.0626
-0.0546
-0.039
-0.026
-0.0202
-0.0148
-0.0049
0.0075
0.0254
0.0493
0.0659
0.0891
0.1194
0.1516
0.1822
0.2068
0.2278
0.2511
0.283
0.313
0.3369
0.3535
0.3684
0.3802
0.3904
0.4035
0.4099
0.4038
0.3971
0.3882
0.3793
0.3633
0.3346
0.3037
0.2792
0.2693
0.2502
0.2208
0.1864
0.1535
0.1239
0.0968
0.07539999999999999
0.0509
0.0324
0.0053
-0.008399999999999999
-0.0275
-0.0422
-0.06610000000000001
-0.0868
-0.0974
-0.0926
-0.0929
-0.1053
-0.1146
-0.1197
-0.1242
-0.1242
-0.1184
-0.121
-0.1187
-0.1143
-0.1076
-0.1063
-0.1069
-0.112
-0.1165
-0.1041
-0.0926
-0.0856
-0.08840000000000001
-0.08939999999999999
-0.08939999999999999
-0.09
-0.0833
-0.0735
-0.0725
-0.0747
-0.0712
-0.0601
-0.0626
-0.0668
-0.07190000000000001
-0.0741
-0.0591
-0.0521
-0.0518
-0.0569
-0.0604
-0.061
-0.0623
-0.0572
-0.0537
-0.0531
-0.0511
-0.0502
-0.0451
-0.0467
-0.0505
-0.0594
-0.0543
-0.039
-0.0317
-0.0346
-0.0384
-0.0409
-0.0403
-0.0358
-0.0301
-0.0326
-0.0279
-0.0212
-0.0173
-0.0154
-0.0161
-0.0247
-0.0298
-0.0186
-0.0078
-0.002
-0.0062
-0.0097
-0.0113
-0.0119
-0.0075
-0.003
-0.002
-0.0014
0.0034
0.005
0.0056
0.0034
-0.0033
-0.0078
0.0059
0.0152
0.0168
0.0114
0.0069
0.0069
0.0062
0.0094
0.0094
0.0123
0.0149
0.0184
0.0209
0.0196
0.0114
0.0034
0.0043
0.0193
0.0279
0.0241
0.0196
0.0165
0.0139
0.0145
0.0203
0.0203
0.0219
0.0257
0.0311
0.0298
0.0267
0.0212
0.0145
0.0241
0.0349
0.0407
0.0356
0.0298
0.0298
0.0302
0.0337
0.0397
0.0365
0.0378
0.0461
0.0499
0.0499
0.0451
0.0394
0.0378
0.055
0.0633
0.0636
0.0617
0.0598
0.0624
0.063
0.0703
0.0742
0.07729999999999999
0.08210000000000001
0.0888
0.0936
0.09329999999999999
0.09039999999999999
0.0866
0.0888
0.1057
0.1143
0.1134
0.1143
0.1131
0.114
0.1178
0.1264
0.1264
0.1306
0.137
0.1437
0.1475
0.1465
0.1421
0.1389
0.1494
0.1618
0.1695
0.1692
0.1634
0.1641
0.1663
0.1708
0.1778
0.1787
0.1822
0.1877
0.1905
0.1928
0.1896
0.1857
0.1803
0.196
0.2052
0.2046
0.2017
0.1982
0.1988
0.1998
0.2026
0.2042
0.2062
0.2097
0.2148
0.217
0.2164
0.2122
0.2023
0.2036
0.2186
0.2266
0.2246
0.2215
0.2195
0.2183
0.2192
0.2246
0.2224
0.2234
0.2266
0.2307
0.2304
0.2256
0.2186
0.2087
0.2138
0.2224
0.225
0.2173
0.21
0.2039
0.1972
0.1956
0.1975
0.1921
0.1873
0.1877
0.1857
0.1787
0.1695
0.1548
0.1437
0.1529
0.1532
0.1472
0.1363
0.1233
0.1166
0.1089
0.1044
0.099
0.0885
0.08119999999999999
0.0767
0.0738
0.062
0.0474
0.0311
0.0212
0.0257
0.0251
0.0139
-0.0004
-0.0129
-0.0224
-0.0295
-0.0336
-0.0419
-0.0457
-0.0508
-0.0601
-0.061
-0.0747
-0.0856
-0.1002
-0.1018
-0.0951
-0.0955
-0.1069
-0.1159
-0.1229
-0.1312
-0.1328
-0.1334
-0.1401
-0.1481
-0.1446
-0.142
-0.1509
-0.1576
-0.1694
-0.178
-0.1694
-0.1637
-0.1669
-0.1736
-0.1784
-0.1819
-0.1873
-0.1835
-0.1796
-0.1847
-0.1876
-0.1793
-0.1822
-0.1844
-0.1873
-0.1943
-0.1978
-0.1847
-0.178
-0.1803
-0.187
-0.1905
-0.1921
-0.194
-0.1876
-0.1889
-0.1901
-0.187
-0.1844
-0.1825
-0.1831
-0.1908
-0.1978
-0.1914
-0.179
-0.1745
-0.179
-0.1835
-0.186
-0.1879
-0.1847
-0.1777
-0.1784
-0.1809
-0.178
-0.1691
-0.171
-0.172
-0.1787
-0.1841
-0.1717
-0.1621
-0.1592
-0.1634
-0.1675
-0.1694
-0.1691
-0.1637
-0.1589
-0.1599
-0.1618
-0.15
-0.15
-0.1548
-0.1573
-0.1646
-0.1637
-0.149
-0.1423
-0.1436
-0.1497
-0.1519
-0.1519
-0.1513
-0.1465
-0.1461
-0.1426
-0.143
-0.1347
-0.1331
-0.1347
-0.1414
-0.1493
-0.1446
-0.1308
-0.1226
-0.1251
-0.1283
-0.128
-0.1283
-0.1257
-0.1194
-0.1194
-0.113
-0.1069
-0.106
-0.1028
-0.1073
-0.1114
-0.1159
-0.1047
-0.0929
-0.08840000000000001
-0.0939
-0.0977
-0.097
-0.0964
-0.09229999999999999
-0.0888
-0.0881
-0.08459999999999999
-0.07920000000000001
-0.07630000000000001
-0.0776
-0.08210000000000001
-0.0881
-0.0881
-0.0735
-0.06610000000000001
-0.06610000000000001
-0.0699
-0.0735
-0.0738
-0.0738
-0.0668
-0.0664
-0.0639
-0.0617
-0.0556
-0.0515
-0.0572
-0.0623
-0.0693
-0.0668
-0.0534
-0.0486
-0.0518
-0.0562
-0.0582
-0.0604
-0.0588
-0.0543
-0.0566
-0.0559
-0.0521
-0.0489
-0.0483
-0.0511
-0.0588
-0.0629
-0.0534
-0.0428
-0.0393
-0.0441
-0.0489
-0.0495
-0.0515
-0.0476
-0.0441
-0.0448
-0.0428
-0.0371
-0.0352
-0.0377
-0.0432
-0.0499
-0.0521
-0.0387
-0.0314
-0.0336
-0.0381
-0.0416
-0.0435
-0.0428
-0.0403
-0.0403
-0.0422
-0.0381
-0.0342
-0.0342
-0.0374
-0.0416
-0.0499
-0.0454
-0.0339
-0.0285
-0.033
-0.0377
-0.04
-0.04
-0.0374
-0.0307
-0.0339
-0.0336
-0.0295
-0.0244
-0.0256
-0.0295
-0.0358
-0.0416
-0.0304
-0.0205
-0.0193
-0.026
-0.0285
-0.0311
-0.0342
-0.0295
-0.0256
-0.0269
-0.0272
-0.025
-0.0193
-0.0212
-0.0266
-0.0326
-0.0374
-0.0237
-0.0167
-0.0161
-0.0212
-0.0266
-0.0263
-0.0269
-0.0224
-0.0215
-0.0209
-0.0196
-0.0138
-0.0148
-0.0177
-0.0228
-0.0307
-0.0288
-0.0148
-0.0081
-0.0142
-0.0202
-0.0218
-0.0231
-0.0224
-0.0164
-0.0209
-0.0199
-0.0151
-0.0135
-0.0135
-0.0161
-0.0234
-0.0301
-0.0209
-0.011
-0.0091
-0.0138
-0.0177
-0.0196
-0.0221
-0.0193
-0.0142
-0.0148
-0.0148
-0.0116
-0.008399999999999999
-0.0094
-0.0145
-0.024
-0.0275
-0.0122
-0.0062
-0.0081
-0.0119
-0.0164
-0.017
-0.018
-0.0142
-0.0135
-0.0126
-0.0106
-0.01
-0.0062
-0.0071
-0.01
-0.018
-0.0202
-0.0052
0.0015
-0.0004
-0.0027
-0.0036
-0.0059
-0.008399999999999999
0.0002
0.0005
0.0018
0.0069
0.0149
0.0161
0.012
0.004
-0.0001
0.0136
0.027
0.0305
0.0279
0.0257
0.0244
0.0244
0.0298
0.0359
0.0359
0.0369
0.0445
0.048
0.0474
0.0423
0.0359
0.0334
0.0483
0.0566
0.0553
0.0512
0.0474
0.0458
0.0442
0.049
0.0512
0.0515
0.0544
0.0595
0.0611
0.0576
0.0522
0.0432
0.0439
0.0589
0.0646
0.0595
0.0566
0.0547
0.0512
0.0493
0.0544
0.0522
0.0538
0.0528
0.0541
0.0541
0.0506
0.041
0.0318
0.0372
0.0464
0.049
0.0404
0.0324
0.0273
0.0228
0.0247
0.0257
0.0196
0.0184
0.0216
0.0203
0.0133
0.0053
-0.0036
-0.0122
-0.0014
0.0034
0.0005
-0.0071
-0.0135
-0.0186
-0.0215
-0.0173
-0.018
-0.0228
-0.0218
-0.0193
-0.0186
-0.0215
-0.0291
-0.039
-0.0409
-0.0279
-0.0202
-0.025
-0.0282
-0.0333
-0.0377
-0.0384
-0.033
-0.0358
-0.0355
-0.0326
-0.0288
-0.0279
-0.033
-0.04
-0.0486
-0.0397
-0.0275
-0.0247
-0.0314
-0.0349
-0.0365
-0.039
-0.0358
-0.0307
-0.032
-0.0339
-0.0279
-0.0234
-0.0247
-0.0291
-0.0384
-0.0425
-0.0291
-0.0215
-0.0231
-0.0269
-0.0323
-0.0336
-0.0349
-0.0304
-0.0304
-0.033
-0.0374
-0.0311
-0.0266
-0.0298
-0.0387
-0.0467
-0.0492
-0.0358
-0.0279
-0.0304
-0.0362
-0.0397
-0.0377
-0.0352
-0.0279
-0.0269
-0.0212
-0.0103
-0.0014
0.0066
0.0136
0.0196
0.0273
0.0499
0.077
0.1022
0.1194
0.1389
0.1631
0.1877
0.2189
0.2546
0.2817
0.3149
0.342
0.363
0.3821
0.3997
0.4112
0.4194
0.443
0.459
0.4596
0.4491
0.4354
0.4236
0.4061
0.392
0.3735
0.3461
0.3283
0.3015
0.2798
0.2431
0.2125
0.1714
0.1469
0.1341
0.1127
0.0844
0.0557
0.0286
0.0069
-0.0103
-0.0205
-0.0397
-0.0489
-0.0582
-0.06419999999999999
-0.0684
-0.07539999999999999
-0.08649999999999999
-0.0974
-0.0935
-0.0824
-0.0776
-0.08169999999999999
-0.08459999999999999
-0.0859
-0.0853
-0.0805
-0.07190000000000001
-0.0709
-0.0684
-0.0617
-0.055
-0.0543
-0.0556
-0.0607
-0.0636
-0.0486
-0.0371
-0.0342
-0.04
-0.0419
-0.039
-0.0397
-0.0358
-0.0326
-0.0317
-0.0304
-0.025
-0.0218
-0.0228
-0.0269
-0.0352
-0.0374
-0.0224
-0.0126
-0.0161
-0.0199
-0.0212
-0.0228
-0.0237
-0.0148
-0.0167
-0.0129
-0.0081
-0.003
-0.0027
-0.0062
-0.0103
-0.0154
-0.0113
0.0024
0.0107
0.0066
0.0002
-0.0008
0.0002
0.0043
0.0091
0.0056
0.008200000000000001
0.0142
0.0171
0.0168
0.0139
0.0066
0.0031
0.0152
0.0225
0.0257
0.0212
0.0161
0.0177
0.0161
0.0184
0.0228
0.0257
0.0276
0.0314
0.034
0.0324
0.0276
0.0219
0.0209
0.0369
0.0455
0.0423
0.0397
0.0359
0.0343
0.0362
0.0404
0.0413
0.0439
0.0451
0.0493
0.0534
0.0506
0.0442
0.0362
0.041
0.0541
0.0605
0.0573
0.0534
0.0528
0.0515
0.0538
0.0579
0.0579
0.0605
0.0665
0.0703
0.07000000000000001
0.0665
0.0585
0.056
0.07099999999999999
0.0796
0.08119999999999999
0.0767
0.0732
0.0745
0.0735
0.07829999999999999
0.0815
0.08309999999999999
0.0856
0.0911
0.0946
0.0958
0.0914
0.0856
0.0837
0.1006
0.1111
0.1115
0.1089
0.106
0.1067
0.1083
0.1159
0.1166
0.1185
0.1242
0.1303
0.1322
0.1335
0.1293
0.1233
0.1274
0.1443
0.1551
0.1539
0.151
0.1491
0.1504
0.1574
0.1669
0.1679
0.173
0.1797
0.1867
0.1899
0.1889
0.1845
0.1826
0.1982
0.2113
0.2154
0.2128
0.2113
0.2135
0.2144
0.2202
0.2285
0.231
0.2339
0.2412
0.2473
0.2489
0.2466
0.2399
0.2419
0.261
0.2728
0.2725
0.2696
0.2693
0.2718
0.2725
0.2792
0.2824
0.2852
0.2894
0.2945
0.2983
0.297
0.2916
0.2814
0.2852
0.2999
0.3075
0.3034
0.2977
0.2938
0.2922
0.2948
0.298
0.2938
0.2951
0.2977
0.2989
0.2961
0.289
0.2792
0.2693
0.2769
0.2839
0.282
0.2702
0.2613
0.2553
0.247
0.2444
0.2425
0.2336
0.2275
0.2262
0.2192
0.21
0.1985
0.1845
0.1727
0.1781
0.1768
0.1653
0.152
0.1395
0.13
0.1204
0.1153
0.1057
0.09619999999999999
0.0907
0.0872
0.078
0.0649
0.0512
0.0356
0.0292
0.0324
0.0308
0.019
0.0069
-0.0059
-0.0161
-0.0212
-0.0231
-0.0326
-0.0371
-0.0428
-0.0409
-0.048
-0.0617
-0.0735
-0.0862
-0.0824
-0.077
-0.07920000000000001
-0.0891
-0.09669999999999999
-0.105
-0.1104
-0.1085
-0.1076
-0.1117
-0.1152
-0.1155
-0.1168
-0.1194
-0.1251
-0.135
-0.1398
-0.128
-0.1222
-0.1245
-0.1308
-0.1347
-0.1375
-0.1401
-0.1363
-0.1356
-0.1363
-0.1344
-0.128
-0.128
-0.1328
-0.1382
-0.1461
-0.1449
-0.1324
-0.1257
-0.1299
-0.1344
-0.1375
-0.1398
-0.1375
-0.1331
-0.134
-0.1328
-0.1289
-0.1248
-0.1273
-0.128
-0.1334
-0.141
-0.1308
-0.1181
-0.1139
-0.1197
-0.1238
-0.1245
-0.1251
-0.1206
-0.1155
-0.1168
-0.1143
-0.1101
-0.1104
-0.1066
-0.1082
-0.1152
-0.119
-0.105
-0.097
-0.0964
-0.1002
-0.1028
-0.1037
-0.1063
-0.1002
-0.0977
-0.0958
-0.0948
-0.09
-0.08649999999999999
-0.08749999999999999
-0.0926
-0.09859999999999999
-0.0983
-0.0824
-0.0738
-0.0751
-0.0779
-0.0814
-0.08210000000000001
-0.0795
-0.07190000000000001
-0.0738
-0.07190000000000001
-0.0664
-0.0633
-0.0607
-0.0636
-0.07190000000000001
-0.07820000000000001
-0.0674
-0.0566
-0.0508
-0.0569
-0.0648
-0.06519999999999999
-0.06610000000000001
-0.0597
-0.0559
-0.0582
-0.0566
-0.054
-0.0495
-0.0492
-0.0559
-0.0639
-0.0677
-0.0556
-0.0451
-0.0444
-0.0499
-0.0553
-0.0566
-0.0569
-0.0515
-0.0515
-0.0515
-0.0489
-0.0454
-0.0416
-0.0422
-0.048
-0.0572
-0.0569
-0.0432
-0.0336
-0.0365
-0.0416
-0.0457
-0.0454
-0.0428
-0.0371
-0.0393
-0.0393
-0.0342
-0.0311
-0.0323
-0.0342
-0.04
-0.0476
-0.0406
-0.0298
-0.026
-0.0304
-0.0362
-0.0381
-0.0403
-0.039
-0.0349
-0.0377
-0.0358
-0.0326
-0.0307
-0.0307
-0.0365
-0.0454
-0.0492
-0.0358
-0.0295
-0.032
-0.0368
-0.0387
-0.0413
-0.0438
-0.0413
-0.0371
-0.0387
-0.0377
-0.0358
-0.0323
-0.0342
-0.0413
-0.048
-0.0476
-0.0349
-0.0311
-0.0323
-0.0371
-0.0416
-0.0435
-0.0422
-0.0368
-0.0403
-0.0397
-0.0352
-0.0346
-0.0368
-0.0381
-0.0432
-0.0505
-0.0476
-0.0371
-0.0336
-0.0403
-0.0464
-0.0486
-0.0505
-0.0489
-0.0448
-0.0467
-0.0467
-0.0416
-0.0409
-0.0428
-0.0486
-0.0569
-0.0617
-0.0489
-0.0403
-0.04
-0.0464
-0.0505
-0.0511
-0.0524
-0.0508
-0.0495
-0.0489
-0.0464
-0.0425
-0.0397
-0.0422
-0.0489
-0.0559
-0.0569
-0.0435
-0.0362
-0.0384
-0.0432
-0.0464
-0.0476
-0.048
-0.0432
-0.0454
-0.0441
-0.0416
-0.0397
-0.0371
-0.04
-0.0467
-0.0534
-0.0486
-0.0365
-0.0326
-0.0381
-0.0432
-0.0454
-0.0483
-0.0441
-0.0381
-0.0397
-0.04
-0.0339
-0.0333
-0.0368
-0.0403
-0.0464
-0.0518
-0.039
-0.0304
-0.0285
-0.0333
-0.0406
-0.0416
-0.0413
-0.0368
-0.0355
-0.0355
-0.0346
-0.0291
-0.026
-0.0298
-0.0355
-0.0448
-0.0435
-0.0275
-0.0221
-0.026
-0.0291
-0.033
-0.0346
-0.0339
-0.0285
-0.0282
-0.0282
-0.0269
-0.0205
-0.0193
-0.0237
-0.0291
-0.04
-0.0342
-0.0205
-0.0138
-0.0205
-0.0256
-0.0288
-0.0311
-0.0311
-0.0256
-0.0275
-0.0263
-0.0221
-0.0189
-0.0202
-0.0247
-0.0311
-0.0384
-0.0275
-0.0164
-0.0148
-0.0196
-0.024
-0.0218
-0.024
-0.0199
-0.018
-0.0167
-0.0135
-0.0062
-0.0043
-0.004
-0.0075
-0.0138
-0.0164
-0.0008
0.0123
0.0133
0.0117
0.008200000000000001
0.0078
0.008800000000000001
0.0149
0.0142
0.0196
0.0257
0.0292
0.0298
0.027
0.0212
0.0136
0.0184
0.0302
0.0359
0.0321
0.0276
0.0231
0.0206
0.0228
0.0254
0.0247
0.0254
0.0295
0.0327
0.0327
0.0276
0.02
0.0155
0.0276
0.0349
0.0369
0.0318
0.026
0.0267
0.0241
0.0276
0.0295
0.0289
0.0276
0.0298
0.0318
0.0282
0.0212
0.0123
0.008200000000000001
0.0209
0.026
0.0206
0.0117
0.0056
0.004
0.0027
0.005
0.0002
-0.0017
-0.003
-0.0011
-0.0011
-0.0062
-0.0157
-0.0256
-0.0231
-0.0145
-0.0113
-0.0173
-0.0244
-0.0291
-0.0346
-0.0342
-0.0295
-0.0349
-0.0352
-0.032
-0.0285
-0.0307
-0.0381
-0.0457
-0.0521
-0.0428
-0.033
-0.0307
-0.0368
-0.0416
-0.0438
-0.047
-0.0435
-0.0422
-0.0425
-0.0419
-0.0397
-0.0374
-0.0381
-0.0422
-0.0492
-0.0521
-0.039
-0.0311
-0.0333
-0.0384
-0.0422
-0.0422
-0.0428
-0.0384
-0.0384
-0.0362
-0.0336
-0.0301
-0.0291
-0.0333
-0.0403
-0.047
-0.0435
-0.0291
-0.0234
-0.0295
-0.0355
-0.0358
-0.0387
-0.0381
-0.033
-0.0371
-0.0362
-0.033
-0.0311
-0.032
-0.0342
-0.0441
-0.0543
-0.0432
-0.0323
-0.0282
-0.0352
-0.04
-0.0393
-0.0403
-0.0333
-0.0253
-0.0218
-0.0142
-0.0024
0.0072
0.02
0.0305
0.0353
0.048
0.0815
0.1108
0.1341
0.1542
0.1794
0.2055
0.2355
0.2715
0.2999
0.3228
0.3452
0.3726
0.3939
0.4086
0.4169
0.4214
0.4332
0.4485
0.4501
0.437
0.4207
0.4022
0.3828
0.3627
0.3452
0.3206
0.2961
0.2639
0.2374
0.2144
0.1832
0.1478
0.1102
0.0898
0.0735
0.0512
0.0219
-0.003
-0.0212
-0.0406
-0.0515
-0.0607
-0.07439999999999999
-0.08019999999999999
-0.0897
-0.0897
-0.098
-0.1053
-0.1152
-0.1216
-0.1076
-0.0993
-0.1002
-0.1044
-0.1082
-0.1047
-0.105
-0.0983
-0.098
-0.0945
-0.0888
-0.083
-0.07920000000000001
-0.0776
-0.0798
-0.08649999999999999
-0.0827
-0.0664
-0.0591
-0.0601
-0.0633
-0.06519999999999999
-0.0633
-0.062
-0.054
-0.0543
-0.0534
-0.0502
-0.0435
-0.0432
-0.047
-0.0521
-0.0585
-0.0492
-0.0377
-0.0333
-0.0377
-0.0419
-0.0416
-0.0409
-0.0377
-0.0355
-0.0355
-0.033
-0.0269
-0.0228
-0.024
-0.0298
-0.0349
-0.0387
-0.0247
-0.018
-0.0173
-0.0215
-0.024
-0.0253
-0.0279
-0.0218
-0.0186
-0.0167
-0.0148
-0.0113
-0.0094
-0.0103
-0.0145
-0.0221
-0.0193
-0.0065
0.0018
-0.0001
-0.0046
-0.008399999999999999
-0.008399999999999999
-0.0078
-0.0017
-0.0024
-0.0027
0.0018
0.0062
0.008200000000000001
0.0037
-0.004
-0.01
-0.0004
0.0101
0.0158
0.0101
0.005
0.0037
0.0018
0.0062
0.0126
0.0114
0.0136
0.0184
0.0203
0.02
0.0174
0.0114
0.0094
0.0241
0.0289
0.0311
0.0292
0.0267
0.0254
0.0254
0.0311
0.0337
0.033
0.0353
0.041
0.0448
0.0458
0.0407
0.0324
0.0327
0.0487
0.0573
0.0544
0.0506
0.048
0.0474
0.0496
0.0563
0.055
0.0592
0.0636
0.06809999999999999
0.0687
0.06809999999999999
0.0636
0.0589
0.0675
0.078
0.0844
0.0818
0.08119999999999999
0.08119999999999999
0.0809
0.0856
0.0936
0.0914
0.0946
0.1038
0.1089
0.1076
0.1076
0.1029
0.1006
0.1147
0.1226
0.129
0.1277
0.1245
0.1264
0.1264
0.1344
0.1392
0.1414
0.1456
0.1539
0.1593
0.1593
0.1567
0.1529
0.1548
0.1724
0.1838
0.1835
0.1794
0.18
0.1838
0.188
0.1931
0.1953
0.2004
0.2071
0.2135
0.2167
0.2148
0.2119
0.2071
0.218
0.2301
0.2368
0.2361
0.2348
0.2323
0.2313
0.2361
0.2422
0.2419
0.2438
0.2502
0.2527
0.2527
0.2473
0.2403
0.2361
0.2505
0.2588
0.2568
0.2502
0.2479
0.2454
0.2403
0.2454
0.2463
0.2435
0.2428
0.2447
0.2428
0.2368
0.2307
0.2192
0.2141
0.2237
0.225
0.2186
0.2084
0.1995
0.1915
0.1854
0.1845
0.1771
0.1724
0.1669
0.1593
0.1539
0.144
0.1284
0.1111
0.1108
0.114
0.1108
0.0955
0.0799
0.06809999999999999
0.0573
0.0506
0.0464
0.0346
0.0305
0.0257
0.0149
0.0069
-0.008699999999999999
-0.0244
-0.0374
-0.0349
-0.0362
-0.0422
-0.0566
-0.06900000000000001
-0.07729999999999999
-0.0891
-0.0926
-0.09669999999999999
-0.105
-0.1152
-0.1143
-0.1155
-0.1232
-0.1369
-0.1519
-0.1592
-0.149
-0.1477
-0.1548
-0.1637
-0.172
-0.1774
-0.1806
-0.1764
-0.1815
-0.1835
-0.1895
-0.1847
-0.1886
-0.1937
-0.1994
-0.209
-0.2061
-0.1975
-0.1933
-0.1988
-0.2042
-0.2064
-0.2102
-0.2096
-0.2064
-0.209
-0.2109
-0.2019
-0.2058
-0.2026
-0.2074
-0.215
-0.2204
-0.2077
-0.1997
-0.1978
-0.2019
-0.2077
-0.2086
-0.209
-0.2051
-0.2029
-0.2035
-0.1978
-0.1901
-0.1901
-0.1946
-0.1984
-0.2061
-0.207
-0.193
-0.1841
-0.1857
-0.1905
-0.1937
-0.1946
-0.194
-0.1886
-0.1908
-0.1873
-0.1809
-0.1796
-0.178
-0.1774
-0.1847
-0.1895
-0.1831
-0.1694
-0.1621
-0.164
-0.1678
-0.1675
-0.1694
-0.1643
-0.1564
-0.1592
-0.156
-0.1455
-0.1465
-0.1468
-0.15
-0.1573
-0.1637
-0.1503
-0.1404
-0.1375
-0.1426
-0.1468
-0.1477
-0.1506
-0.1446
-0.1391
-0.1398
-0.1388
-0.1318
-0.1283
-0.1299
-0.1334
-0.1398
-0.1404
-0.1267
-0.1187
-0.1165
-0.1206
-0.1245
-0.1251
-0.1257
-0.1197
-0.1178
-0.1146
-0.1139
-0.1057
-0.1069
-0.1076
-0.1117
-0.119
-0.1159
-0.1031
-0.0929
-0.0964
-0.1006
-0.1022
-0.1028
-0.09859999999999999
-0.0919
-0.0951
-0.0935
-0.0859
-0.08749999999999999
-0.0856
-0.0849
-0.0907
-0.097
-0.0853
-0.07729999999999999
-0.0722
-0.077
-0.08169999999999999
-0.08169999999999999
-0.08169999999999999
-0.0779
-0.0741
-0.076
-0.0725
-0.0693
-0.06519999999999999
-0.0658
-0.0693
-0.0776
-0.0798
-0.0639
-0.0566
-0.0569
-0.0607
-0.06610000000000001
-0.06610000000000001
-0.06610000000000001
-0.0633
-0.0617
-0.0594
-0.0562
-0.0537
-0.0534
-0.0556
-0.061
-0.0687
-0.0668
-0.0531
-0.047
-0.0515
-0.0553
-0.0591
-0.0607
-0.0572
-0.0531
-0.0575
-0.0534
-0.0489
-0.0467
-0.0492
-0.0511
-0.0585
-0.06610000000000001
-0.0578
-0.0492
-0.048
-0.0508
-0.0546
-0.0594
-0.0623
-0.0594
-0.0566
-0.0594
-0.0582
-0.0534
-0.0511
-0.054
-0.0597
-0.0684
-0.0706
-0.0546
-0.0489
-0.0511
-0.0566
-0.0604
-0.0594
-0.0594
-0.0566
-0.0556
-0.0556
-0.0524
-0.0511
-0.0486
-0.0489
-0.0559
-0.0658
-0.0626
-0.0454
-0.0387
-0.0476
-0.0543
-0.0569
-0.0562
-0.0546
-0.0499
-0.0531
-0.0531
-0.0489
-0.0457
-0.048
-0.0527
-0.0604
-0.0668
-0.0559
-0.0486
-0.0464
-0.0508
-0.0569
-0.0604
-0.0623
-0.0582
-0.054
-0.0572
-0.0562
-0.0518
-0.0515
-0.0527
-0.0575
-0.0674
-0.0699
-0.0566
-0.0499
-0.0499
-0.0553
-0.0591
-0.0597
-0.0594
-0.0569
-0.0566
-0.0575
-0.0543
-0.047
-0.047
-0.0492
-0.0559
-0.06519999999999999
-0.0645
-0.0499
-0.0428
-0.0454
-0.0515
-0.0553
-0.0591
-0.0566
-0.0502
-0.054
-0.0534
-0.0521
-0.0467
-0.0464
-0.0495
-0.0572
-0.0633
-0.0562
-0.047
-0.0406
-0.0457
-0.0502
-0.0502
-0.0524
-0.0499
-0.0428
-0.0464
-0.0441
-0.0416
-0.0387
-0.04
-0.0451
-0.0527
-0.0566
-0.0432
-0.0352
-0.0358
-0.0422
-0.0467
-0.0483
-0.0505
-0.046
-0.0448
-0.0435
-0.0403
-0.0377
-0.0397
-0.04
-0.0406
-0.0489
-0.0476
-0.0323
-0.024
-0.0247
-0.026
-0.0282
-0.0279
-0.0234
-0.0132
-0.0132
-0.0113
-0.0027
0.0027
0.0047
0.0031
-0.003
-0.0081
0.0031
0.0136
0.0168
0.0126
0.008500000000000001
0.0056
0.0037
0.0066
0.0117
0.0101
0.0098
0.0133
0.0149
0.0155
0.0094
0.0015
-0.002
0.0129
0.0238
0.0241
0.019
0.0152
0.0145
0.0149
0.0203
0.0212
0.0216
0.026
0.0267
0.0327
0.0314
0.0244
0.0165
0.0145
0.0273
0.0334
0.0286
0.0216
0.0177
0.0126
0.0094
0.0133
0.011
0.0101
0.011
0.0114
0.0078
0.0018
-0.0071
-0.017
-0.0129
-0.0043
-0.003
-0.008399999999999999
-0.0173
-0.0218
-0.0275
-0.0256
-0.0224
-0.0256
-0.0266
-0.0279
-0.0256
-0.0314
-0.0336
-0.0428
-0.0473
-0.0358
-0.0342
-0.0346
-0.0397
-0.0451
-0.0489
-0.0511
-0.0483
-0.0486
-0.0489
-0.0489
-0.0438
-0.0441
-0.0486
-0.0556
-0.0645
-0.0645
-0.0524
-0.047
-0.0489
-0.0534
-0.0585
-0.0601
-0.0594
-0.0559
-0.0582
-0.0582
-0.0546
-0.0508
-0.0495
-0.0534
-0.0601
-0.0684
-0.0623
-0.0515
-0.0448
-0.0499
-0.0559
-0.0585
-0.0617
-0.0597
-0.055
-0.0562
-0.0553
-0.0518
-0.0537
-0.054
-0.0613
-0.07190000000000001
-0.07729999999999999
-0.0633
-0.0588
-0.0588
-0.06419999999999999
-0.0693
-0.0709
-0.0735
-0.0725
-0.0706
-0.0696
-0.0684
-0.0648
-0.0591
-0.0569
-0.0585
-0.062
-0.0582
-0.0377
-0.0209
-0.0126
-0.0049
0.0056
0.0193
0.0372
0.0643
0.0844
0.1108
0.1405
0.172
0.2026
0.2272
0.2521
0.2779
0.3056
0.3353
0.3611
0.3812
0.3936
0.4035
0.4112
0.4249
0.4319
0.4249
0.4191
0.407
0.3943
0.3815
0.3522
0.3238
0.2967
0.2801
0.2584
0.231
0.196
0.1615
0.1338
0.1048
0.08119999999999999
0.0601
0.0292
0.0107
-0.0075
-0.025
-0.0377
-0.061
-0.08210000000000001
-0.09669999999999999
-0.091
-0.09
-0.0977
-0.1079
-0.1146
-0.1178
-0.12
-0.1146
-0.1165
-0.1124
-0.1104
-0.1037
-0.0999
-0.1015
-0.1053
-0.1104
-0.1028
-0.0888
-0.08169999999999999
-0.0827
-0.0843
-0.0843
-0.083
-0.0766
-0.0722
-0.0731
-0.0693
-0.0601
-0.0566
-0.0543
-0.055
-0.0633
-0.0668
-0.0518
-0.0416
-0.0381
-0.0425
-0.0457
-0.0454
-0.046
-0.0413
-0.0371
-0.0358
-0.0333
-0.0282
-0.024
-0.0256
-0.0317
-0.0393
-0.0403
-0.0231
-0.0142
-0.0145
-0.0173
-0.0212
-0.0221
-0.0224
-0.0126
-0.0142
-0.0129
-0.0071
-0.002
-0.0004
-0.004
-0.008699999999999999
-0.0167
-0.0097
0.0034
0.0107
0.0072
0.0018
0.0008
0.0005
0.0021
0.0078
0.0053
0.0069
0.0129
0.0171
0.0171
0.0126
0.0053
0.0008
0.0133
0.0212
0.0238
0.0174
0.0133
0.0133
0.012
0.0158
0.0184
0.018
0.0196
0.0231
0.027
0.0257
0.0219
0.0139
0.0126
0.0279
0.0353
0.0353
0.0311
0.0276
0.0276
0.026
0.0308
0.0305
0.034
0.0369
0.0426
0.0426
0.0397
0.0337
0.0254
0.0308
0.042
0.0506
0.0464
0.0416
0.0407
0.0375
0.0413
0.0458
0.0448
0.0461
0.0506
0.0563
0.055
0.0538
0.0483
0.0416
0.0544
0.0643
0.07099999999999999
0.0678
0.06270000000000001
0.0636
0.0633
0.0687
0.0745
0.0751
0.07770000000000001
0.0844
0.09039999999999999
0.0911
0.0866
0.0799
0.0805
0.09619999999999999
0.1048
0.1064
0.1044
0.1032
0.1057
0.1067
0.1137
0.1153
0.1188
0.1258
0.1319
0.1341
0.1354
0.1328
0.1264
0.1312
0.1469
0.1564
0.1577
0.1558
0.1545
0.1548
0.1599
0.1704
0.1692
0.1717
0.1832
0.1861
0.1889
0.1883
0.1851
0.1813
0.194
0.2081
0.2125
0.2093
0.2071
0.2087
0.2071
0.2125
0.2176
0.2205
0.224
0.2313
0.2339
0.2342
0.2326
0.225
0.2224
0.2368
0.246
0.2466
0.2425
0.238
0.2387
0.2403
0.2444
0.2441
0.2412
0.2409
0.2473
0.2486
0.2447
0.2358
0.224
0.2253
0.2364
0.2415
0.2313
0.2224
0.2173
0.2116
0.2084
0.2093
0.2011
0.1988
0.1972
0.1937
0.1877
0.1778
0.1631
0.1491
0.1523
0.1561
0.1523
0.1376
0.1236
0.1143
0.1044
0.09810000000000001
0.0936
0.08309999999999999
0.07480000000000001
0.07000000000000001
0.06619999999999999
0.048
0.0375
0.02
0.0069
0.0107
0.008200000000000001
-0.0017
-0.0154
-0.0288
-0.0406
-0.0505
-0.0524
-0.062
-0.0709
-0.077
-0.0798
-0.0888
-0.0958
-0.1063
-0.1222
-0.1296
-0.1232
-0.1222
-0.1308
-0.142
-0.1487
-0.1548
-0.1589
-0.1592
-0.1675
-0.1726
-0.1713
-0.1732
-0.1704
-0.1819
-0.1889
-0.1988
-0.193
-0.1841
-0.1844
-0.1949
-0.1981
-0.201
-0.2048
-0.2029
-0.2026
-0.2061
-0.207
-0.1978
-0.1968
-0.1997
-0.2086
-0.216
-0.2223
-0.2096
-0.2013
-0.2003
-0.2077
-0.2112
-0.2134
-0.2147
-0.2121
-0.2102
-0.207
-0.2109
-0.201
-0.1984
-0.1978
-0.2093
-0.2179
-0.2166
-0.2003
-0.1933
-0.1962
-0.2023
-0.2061
-0.207
-0.2064
-0.201
-0.2013
-0.1997
-0.1914
-0.194
-0.1921
-0.1978
-0.2016
-0.2086
-0.2003
-0.1886
-0.1844
-0.1882
-0.1924
-0.194
-0.1956
-0.1908
-0.187
-0.1898
-0.1863
-0.1819
-0.1755
-0.1745
-0.1809
-0.1879
-0.1898
-0.1768
-0.1694
-0.1675
-0.171
-0.1739
-0.1742
-0.1752
-0.1691
-0.1672
-0.165
-0.1599
-0.1602
-0.1528
-0.1544
-0.1615
-0.1691
-0.1675
-0.15
-0.1414
-0.1426
-0.1477
-0.1513
-0.1506
-0.1465
-0.1385
-0.1398
-0.1375
-0.135
-0.1267
-0.1299
-0.1273
-0.1331
-0.1404
-0.1318
-0.119
-0.1136
-0.1171
-0.1184
-0.1203
-0.1245
-0.12
-0.1146
-0.1139
-0.113
-0.1053
-0.1034
-0.1018
-0.1044
-0.1104
-0.1139
-0.1006
-0.09320000000000001
-0.09039999999999999
-0.0916
-0.097
-0.0964
-0.099
-0.0919
-0.0878
-0.0897
-0.08649999999999999
-0.08459999999999999
-0.0824
-0.0814
-0.0856
-0.0935
-0.09320000000000001
-0.0776
-0.0712
-0.0738
-0.07820000000000001
-0.08210000000000001
-0.0798
-0.0814
-0.0776
-0.077
-0.0735
-0.0709
-0.06519999999999999
-0.0636
-0.0687
-0.0766
-0.083
-0.0747
-0.06519999999999999
-0.0591
-0.0629
-0.06610000000000001
-0.0677
-0.0706
-0.0687
-0.0613
-0.0629
-0.0658
-0.0559
-0.0582
-0.0537
-0.0588
-0.06710000000000001
-0.0735
-0.0601
-0.0515
-0.0515
-0.0566
-0.0633
-0.0636
-0.06610000000000001
-0.0626
-0.062
-0.0617
-0.0588
-0.0578
-0.0559
-0.0569
-0.062
-0.0706
-0.0738
-0.0582
-0.0508
-0.0524
-0.0597
-0.0626
-0.06419999999999999
-0.0626
-0.0585
-0.061
-0.0594
-0.0562
-0.0518
-0.0515
-0.0556
-0.0617
-0.06900000000000001
-0.0617
-0.0489
-0.0444
-0.0489
-0.0515
-0.0537
-0.0575
-0.0553
-0.0492
-0.0511
-0.0486
-0.0441
-0.0416
-0.0425
-0.0518
-0.0556
-0.0594
-0.0499
-0.0438
-0.0425
-0.046
-0.0499
-0.0527
-0.0559
-0.0502
-0.0489
-0.0492
-0.048
-0.046
-0.0393
-0.0451
-0.0505
-0.0588
-0.0585
-0.0454
-0.0393
-0.0438
-0.048
-0.0508
-0.0508
-0.0527
-0.0499
-0.0515
-0.0492
-0.046
-0.0422
-0.0413
-0.0451
-0.0508
-0.0569
-0.0534
-0.0432
-0.0377
-0.04
-0.0457
-0.048
-0.0505
-0.0483
-0.0441
-0.046
-0.0441
-0.0422
-0.039
-0.0397
-0.0448
-0.0537
-0.0604
-0.0492
-0.0413
-0.0393
-0.0451
-0.0508
-0.0505
-0.054
-0.0505
-0.0489
-0.0502
-0.0483
-0.0467
-0.0422
-0.046
-0.0489
-0.0585
-0.0601
-0.0441
-0.0365
-0.0403
-0.0448
-0.0473
-0.0489
-0.0476
-0.0419
-0.0428
-0.0403
-0.0349
-0.0288
-0.0307
-0.0333
-0.0384
-0.0425
-0.0374
-0.0221
-0.0142
-0.0173
-0.0202
-0.0202
-0.0193
-0.0164
-0.01
-0.0097
-0.0062
-0.0004
0.0062
0.0059
0.0005
-0.0043
-0.008399999999999999
0.0053
0.0133
0.0139
0.0043
0.0018
0.0027
0.0011
0.004
0.0062
0.0043
0.0043
0.008500000000000001
0.0114
0.0098
0.0043
-0.004
-0.0068
0.0091
0.0174
0.0165
0.011
0.008500000000000001
0.008200000000000001
0.008200000000000001
0.0117
0.0126
0.0142
0.0168
0.0193
0.0216
0.019
0.0107
0.0015
0.004
0.0171
0.0209
0.0142
0.011
0.0056
-0.0011
-0.0036
0.0024
-0.002
-0.004
-0.0017
-0.0036
-0.0075
-0.0132
-0.0228
-0.0333
-0.026
-0.0215
-0.0199
-0.0282
-0.0368
-0.0397
-0.0451
-0.0448
-0.0419
-0.0457
-0.0499
-0.0464
-0.0416
-0.048
-0.0537
-0.0623
-0.0684
-0.0546
-0.048
-0.0489
-0.0543
-0.061
-0.0623
-0.0623
-0.0585
-0.0594
-0.0575
-0.0556
-0.0524
-0.0527
-0.0546
-0.0604
-0.06710000000000001
-0.0633
-0.0531
-0.0483
-0.0524
-0.0546
-0.0569
-0.062
-0.0591
-0.0534
-0.055
-0.0546
-0.0518
-0.0483
-0.0534
-0.0556
-0.0613
-0.06710000000000001
-0.0572
-0.0489
-0.0438
-0.0521
-0.0559
-0.0546
-0.0559
-0.0553
-0.0502
-0.0511
-0.0495
-0.0473
-0.04
-0.0464
-0.0518
-0.061
-0.0633
-0.0483
-0.0435
-0.048
-0.0556
-0.0594
-0.0607
-0.0607
-0.0566
-0.0582
-0.0588
-0.0569
-0.054
-0.0467
-0.0454
-0.0492
-0.0531
-0.0464
-0.0218
-0.0033
0.0059
0.0161
0.0289
0.0451
0.06619999999999999
0.09520000000000001
0.1217
0.15
0.181
0.2154
0.2466
0.275
0.2954
0.3088
0.3404
0.3735
0.3971
0.4061
0.415
0.4252
0.429
0.4287
0.4255
0.414
0.3984
0.3869
0.3723
0.3515
0.3181
0.2871
0.2565
0.2428
0.2208
0.1896
0.1545
0.1207
0.09329999999999999
0.0643
0.0432
0.019
-0.0033
-0.0199
-0.0416
-0.0531
-0.07149999999999999
-0.0897
-0.1092
-0.1181
-0.112
-0.1114
-0.12
-0.127
-0.1318
-0.1337
-0.1347
-0.1286
-0.1302
-0.1267
-0.119
-0.1171
-0.1095
-0.1101
-0.1178
-0.1213
-0.1101
-0.0945
-0.0878
-0.0897
-0.09229999999999999
-0.09039999999999999
-0.09
-0.08400000000000001
-0.0776
-0.07920000000000001
-0.07729999999999999
-0.0696
-0.0639
-0.0636
-0.0668
-0.0728
-0.07630000000000001
-0.0607
-0.0518
-0.0527
-0.0585
-0.0572
-0.0585
-0.0607
-0.0553
-0.0511
-0.0489
-0.0467
-0.0422
-0.0387
-0.0416
-0.048
-0.0521
-0.0502
-0.0355
-0.0269
-0.0298
-0.033
-0.0377
-0.0374
-0.0349
-0.0295
-0.0304
-0.0272
-0.0221
-0.0221
-0.0186
-0.0218
-0.0272
-0.0336
-0.0272
-0.0154
-0.0106
-0.0151
-0.0196
-0.0205
-0.0221
-0.0189
-0.0148
-0.0177
-0.0154
-0.0091
-0.0049
-0.0078
-0.0119
-0.0193
-0.0228
-0.01
-0.0011
0.0008
-0.0059
-0.0097
-0.0103
-0.0122
-0.0071
-0.0046
-0.0036
-0.0036
0.0021
0.0043
0.0005
-0.0017
-0.0094
-0.0091
0.0047
0.0123
0.008800000000000001
0.0069
0.0056
0.0056
0.0069
0.0123
0.0091
0.0126
0.0187
0.0238
0.026
0.0219
0.0158
0.011
0.0193
0.0318
0.0369
0.033
0.0286
0.0289
0.0286
0.0308
0.0362
0.0359
0.0378
0.0429
0.0464
0.0461
0.0439
0.0378
0.0321
0.0461
0.0569
0.0585
0.0534
0.0502
0.0512
0.0512
0.0557
0.0582
0.0605
0.0646
0.0722
0.07480000000000001
0.0751
0.0732
0.0659
0.06619999999999999
0.0847
0.0946
0.09420000000000001
0.0907
0.092
0.09420000000000001
0.0958
0.1048
0.106
0.1118
0.1169
0.1233
0.1268
0.1258
0.1226
0.1198
0.1284
0.1437
0.1532
0.151
0.1497
0.1504
0.1513
0.1561
0.1653
0.166
0.1717
0.1806
0.1857
0.1886
0.1851
0.181
0.1794
0.195
0.2058
0.2103
0.2065
0.2042
0.2068
0.2084
0.2141
0.2183
0.2221
0.2262
0.2317
0.2355
0.2339
0.2313
0.2256
0.2243
0.2409
0.2508
0.2476
0.2422
0.2403
0.2396
0.2396
0.2457
0.2412
0.2435
0.2486
0.2508
0.2457
0.2403
0.2358
0.2272
0.2288
0.2371
0.2393
0.2326
0.2237
0.2157
0.2081
0.2068
0.2071
0.2007
0.195
0.1937
0.1896
0.1819
0.1717
0.1558
0.1421
0.1475
0.1488
0.144
0.1296
0.1143
0.1076
0.09710000000000001
0.0914
0.0853
0.0764
0.06809999999999999
0.063
0.0566
0.0493
0.033
0.0123
0.0031
0.0104
0.0098
-0.0027
-0.0161
-0.0279
-0.0377
-0.047
-0.0486
-0.0556
-0.0617
-0.0696
-0.07820000000000001
-0.07920000000000001
-0.0881
-0.1009
-0.1152
-0.1175
-0.1114
-0.1104
-0.1216
-0.1312
-0.1385
-0.1465
-0.1487
-0.1471
-0.1544
-0.1538
-0.1551
-0.1548
-0.1579
-0.1697
-0.1784
-0.1895
-0.1799
-0.1723
-0.1726
-0.1784
-0.1857
-0.1905
-0.1927
-0.1886
-0.1889
-0.1927
-0.1924
-0.1924
-0.1921
-0.193
-0.1962
-0.2045
-0.2083
-0.194
-0.1908
-0.1917
-0.1978
-0.2039
-0.2026
-0.2026
-0.1968
-0.1978
-0.2
-0.1927
-0.1911
-0.1863
-0.1946
-0.1975
-0.2045
-0.201
-0.1895
-0.1799
-0.1831
-0.1882
-0.1914
-0.1914
-0.1876
-0.1819
-0.1847
-0.1796
-0.1694
-0.1678
-0.1729
-0.1748
-0.1796
-0.1844
-0.1723
-0.163
-0.1602
-0.165
-0.1678
-0.1678
-0.1697
-0.1685
-0.1634
-0.1615
-0.1602
-0.1583
-0.149
-0.1548
-0.1564
-0.1599
-0.1656
-0.1506
-0.1404
-0.1398
-0.1426
-0.1458
-0.1471
-0.1458
-0.1407
-0.1398
-0.1369
-0.1359
-0.1328
-0.1238
-0.1264
-0.1308
-0.1401
-0.1385
-0.1219
-0.113
-0.1181
-0.1222
-0.1222
-0.1232
-0.1206
-0.1136
-0.1149
-0.1124
-0.1101
-0.1076
-0.106
-0.1066
-0.1111
-0.1168
-0.1063
-0.0977
-0.09320000000000001
-0.0977
-0.09959999999999999
-0.1034
-0.105
-0.0977
-0.09229999999999999
-0.0948
-0.0945
-0.0897
-0.0833
-0.08649999999999999
-0.0888
-0.09320000000000001
-0.0955
-0.0808
-0.07439999999999999
-0.07439999999999999
-0.077
-0.0795
-0.0789
-0.07920000000000001
-0.0738
-0.07190000000000001
-0.0709
-0.06710000000000001
-0.06419999999999999
-0.0585
-0.061
-0.0674
-0.07539999999999999
-0.07190000000000001
-0.0591
-0.0515
-0.0543
-0.0585
-0.0626
-0.06419999999999999
-0.061
-0.0562
-0.0585
-0.0556
-0.0515
-0.0476
-0.0483
-0.0534
-0.0601
-0.068
-0.0575
-0.048
-0.0435
-0.0483
-0.0543
-0.0578
-0.0566
-0.0546
-0.0508
-0.054
-0.0531
-0.0495
-0.0432
-0.0464
-0.0511
-0.0601
-0.0648
-0.0489
-0.0419
-0.0435
-0.0492
-0.0511
-0.054
-0.0585
-0.0524
-0.0502
-0.0518
-0.0486
-0.0476
-0.047
-0.0483
-0.0562
-0.06519999999999999
-0.0633
-0.0499
-0.0444
-0.0502
-0.054
-0.0594
-0.0626
-0.062
-0.0566
-0.0604
-0.0591
-0.054
-0.0518
-0.0534
-0.0585
-0.06610000000000001
-0.0735
-0.0658
-0.055
-0.0518
-0.0572
-0.0604
-0.0633
-0.0668
-0.06419999999999999
-0.0585
-0.062
-0.0629
-0.0534
-0.0543
-0.0524
-0.0585
-0.0668
-0.07190000000000001
-0.0575
-0.0511
-0.0518
-0.0559
-0.0601
-0.0607
-0.061
-0.0591
-0.0588
-0.0582
-0.0566
-0.0534
-0.0515
-0.054
-0.0623
-0.0696
-0.0687
-0.0572
-0.0515
-0.054
-0.0585
-0.06419999999999999
-0.0664
-0.06610000000000001
-0.0601
-0.0629
-0.0645
-0.0597
-0.054
-0.0569
-0.0601
-0.0674
-0.0738
-0.0668
-0.0572
-0.0531
-0.0566
-0.061
-0.0629
-0.0684
-0.0636
-0.0597
-0.0623
-0.0613
-0.0582
-0.0534
-0.0562
-0.0578
-0.0633
-0.0693
-0.0582
-0.0499
-0.0492
-0.0537
-0.0566
-0.0559
-0.0569
-0.054
-0.0521
-0.0515
-0.0489
-0.0397
-0.0416
-0.04
-0.0438
-0.0511
-0.0505
-0.0333
-0.0234
-0.024
-0.0266
-0.0263
-0.0253
-0.0231
-0.0151
-0.0148
-0.008699999999999999
-0.0033
0.0021
0.0027
-0.0011
-0.0052
-0.0103
-0.0017
0.008800000000000001
0.0129
0.0075
0.0027
0.0005
-0.0011
0.0018
0.0062
0.0037
0.0034
0.0059
0.008500000000000001
0.0104
0.0059
-0.0014
-0.0059
0.008500000000000001
0.0161
0.0184
0.0133
0.0078
0.0069
0.0069
0.011
0.0152
0.0158
0.0155
0.02
0.0209
0.0184
0.0101
0.0011
-0.0011
0.0114
0.0174
0.0133
0.0066
-0.0011
-0.0062
-0.008399999999999999
-0.0049
-0.0065
-0.01
-0.0071
-0.0065
-0.008699999999999999
-0.0186
-0.0285
-0.0371
-0.0339
-0.0269
-0.0256
-0.032
-0.0403
-0.0457
-0.0499
-0.0495
-0.0467
-0.0524
-0.0559
-0.0531
-0.0473
-0.0492
-0.0594
-0.0684
-0.0741
-0.062
-0.0556
-0.0553
-0.062
-0.0687
-0.0696
-0.0703
-0.0674
-0.0664
-0.06900000000000001
-0.0664
-0.0639
-0.06419999999999999
-0.0633
-0.0703
-0.0779
-0.0779
-0.0645
-0.0575
-0.0607
-0.0645
-0.0677
-0.0699
-0.0687
-0.0633
-0.0648
-0.0629
-0.0613
-0.0585
-0.0546
-0.0546
-0.0629
-0.07149999999999999
-0.0636
-0.0492
-0.0454
-0.0502
-0.0543
-0.055
-0.0562
-0.0521
-0.0495
-0.0531
-0.0537
-0.0451
-0.0428
-0.0435
-0.0515
-0.0591
-0.0664
-0.0556
-0.0483
-0.048
-0.0534
-0.0572
-0.0594
-0.0626
-0.0588
-0.0527
-0.0518
-0.0508
-0.0454
-0.0374
-0.033
-0.0333
-0.0349
-0.0282
-0.004
0.0174
0.0298
0.0397
0.0538
0.0716
0.0927
0.1223
0.1481
0.1762
0.2084
0.2422
0.2722
0.2996
0.3161
0.326
0.3525
0.386
0.4096
0.4188
0.4236
0.4271
0.4255
0.423
0.4191
0.4054
0.392
0.3767
0.3544
0.3299
0.3056
0.2645
0.2342
0.218
0.1966
0.1682
0.1354
0.1041
0.07539999999999999
0.0471
0.0254
0.0059
-0.0138
-0.0342
-0.0409
-0.0556
-0.0664
-0.0859
-0.1034
-0.113
-0.1044
-0.1022
-0.1079
-0.1139
-0.1194
-0.121
-0.1203
-0.1127
-0.1124
-0.1095
-0.1079
-0.1018
-0.0974
-0.0948
-0.09859999999999999
-0.105
-0.0977
-0.08110000000000001
-0.07190000000000001
-0.0757
-0.07820000000000001
-0.0789
-0.0789
-0.07630000000000001
-0.0668
-0.0668
-0.0645
-0.0594
-0.0575
-0.0534
-0.0556
-0.0629
-0.06710000000000001
-0.054
-0.0435
-0.0413
-0.0441
-0.0464
-0.047
-0.0476
-0.0425
-0.0368
-0.0365
-0.0352
-0.0288
-0.0279
-0.0269
-0.0311
-0.0374
-0.039
-0.0247
-0.0161
-0.017
-0.0205
-0.024
-0.0263
-0.0253
-0.0193
-0.0199
-0.0186
-0.0148
-0.0113
-0.008399999999999999
-0.0113
-0.0183
-0.0256
-0.0212
-0.0059
-0.0004
-0.0055
-0.01
-0.0113
-0.011
-0.011
-0.0049
-0.004
-0.0036
-0.0001
0.0066
0.0069
0.0034
-0.0033
-0.008399999999999999
0.0011
0.0104
0.0171
0.0114
0.0059
0.0037
0.0031
0.0072
0.011
0.0117
0.0142
0.0177
0.018
0.0168
0.0123
0.0056
0.0018
0.0171
0.0257
0.0257
0.0206
0.0171
0.0168
0.0155
0.0222
0.0231
0.0238
0.026
0.0321
0.0343
0.0311
0.0251
0.0184
0.0216
0.0334
0.042
0.0394
0.0346
0.0321
0.0314
0.0324
0.0388
0.0378
0.041
0.0448
0.0512
0.0518
0.0477
0.0429
0.0369
0.048
0.063
0.06619999999999999
0.0605
0.0589
0.0592
0.0592
0.0646
0.0713
0.0707
0.0726
0.0809
0.0863
0.0882
0.08500000000000001
0.07770000000000001
0.0761
0.09229999999999999
0.1035
0.1064
0.1022
0.1032
0.1054
0.1051
0.1099
0.1143
0.1178
0.1233
0.1319
0.137
0.1386
0.1335
0.1258
0.1319
0.1481
0.1593
0.159
0.1571
0.1574
0.1574
0.1631
0.1717
0.1724
0.1775
0.1832
0.1889
0.1944
0.196
0.1899
0.1867
0.1995
0.2116
0.2176
0.217
0.2167
0.2164
0.2151
0.2211
0.2288
0.2291
0.2326
0.2384
0.2431
0.2435
0.2399
0.2342
0.231
0.2489
0.2584
0.2562
0.2517
0.2502
0.2502
0.2492
0.2543
0.2565
0.2559
0.2565
0.2594
0.261
0.2584
0.2521
0.2384
0.2368
0.2479
0.2511
0.246
0.2377
0.2285
0.2218
0.2183
0.218
0.2093
0.2058
0.1995
0.196
0.1909
0.18
0.1647
0.15
0.1494
0.152
0.1475
0.1347
0.1204
0.108
0.0968
0.092
0.0898
0.0789
0.06519999999999999
0.0605
0.0557
0.0464
0.0324
0.0145
-0.0008
0.004
0.0031
-0.0046
-0.0193
-0.0346
-0.0438
-0.0515
-0.0556
-0.0623
-0.07190000000000001
-0.0728
-0.0786
-0.08649999999999999
-0.0951
-0.1044
-0.12
-0.1251
-0.1175
-0.1165
-0.1257
-0.1356
-0.1442
-0.1513
-0.1544
-0.1538
-0.1608
-0.1592
-0.1678
-0.1621
-0.1688
-0.1736
-0.1819
-0.1917
-0.1882
-0.1787
-0.1755
-0.1815
-0.1879
-0.1924
-0.1984
-0.1959
-0.1921
-0.1952
-0.193
-0.1959
-0.1952
-0.1975
-0.2019
-0.2064
-0.2125
-0.1988
-0.194
-0.1937
-0.1984
-0.2029
-0.2035
-0.2045
-0.2007
-0.1988
-0.1975
-0.193
-0.1924
-0.1908
-0.1882
-0.1943
-0.2019
-0.2007
-0.1844
-0.1796
-0.1806
-0.1835
-0.186
-0.186
-0.1854
-0.179
-0.1787
-0.1752
-0.1774
-0.1691
-0.1678
-0.1685
-0.1748
-0.1812
-0.1726
-0.1605
-0.1564
-0.1599
-0.1621
-0.1624
-0.1653
-0.1611
-0.1538
-0.156
-0.1516
-0.1516
-0.1452
-0.1461
-0.1471
-0.1522
-0.157
-0.1433
-0.1331
-0.1308
-0.1359
-0.1391
-0.1385
-0.1388
-0.134
-0.1315
-0.1302
-0.1308
-0.1235
-0.1203
-0.1219
-0.1248
-0.1312
-0.1318
-0.1168
-0.1085
-0.1092
-0.1136
-0.1155
-0.1162
-0.1149
-0.1079
-0.1082
-0.1066
-0.105
-0.0948
-0.0935
-0.0964
-0.1018
-0.1095
-0.1034
-0.09
-0.083
-0.0872
-0.09
-0.0907
-0.0929
-0.09
-0.08400000000000001
-0.0843
-0.08210000000000001
-0.07439999999999999
-0.0703
-0.0712
-0.0747
-0.0824
-0.0872
-0.0735
-0.0623
-0.0597
-0.0658
-0.0677
-0.0684
-0.06900000000000001
-0.0658
-0.0626
-0.061
-0.0572
-0.0511
-0.0499
-0.0546
-0.0585
-0.06610000000000001
-0.06710000000000001
-0.0527
-0.047
-0.0476
-0.0508
-0.0572
-0.0585
-0.0569
-0.0499
-0.0527
-0.0511
-0.0515
-0.0483
-0.0464
-0.0473
-0.0543
-0.0613
-0.0559
-0.046
-0.0416
-0.0467
-0.0502
-0.0515
-0.0546
-0.0524
-0.0483
-0.0518
-0.0505
-0.046
-0.0441
-0.0444
-0.0495
-0.0578
-0.0639
-0.0505
-0.0428
-0.0432
-0.048
-0.0511
-0.054
-0.0578
-0.0546
-0.0531
-0.054
-0.0531
-0.0483
-0.0502
-0.0508
-0.0559
-0.0648
-0.0668
-0.054
-0.0486
-0.0505
-0.055
-0.0591
-0.0613
-0.0623
-0.0566
-0.0582
-0.0556
-0.0556
-0.0505
-0.0515
-0.055
-0.0594
-0.0668
-0.0639
-0.0508
-0.0448
-0.0483
-0.0556
-0.0562
-0.0604
-0.0597
-0.0534
-0.0559
-0.0537
-0.0486
-0.048
-0.0531
-0.0553
-0.0617
-0.0699
-0.0588
-0.0495
-0.0476
-0.0531
-0.0597
-0.0597
-0.0617
-0.0582
-0.0543
-0.055
-0.0556
-0.0508
-0.0499
-0.0492
-0.0543
-0.0629
-0.0633
-0.0492
-0.0416
-0.0438
-0.0492
-0.0531
-0.0537
-0.0543
-0.0499
-0.0495
-0.0511
-0.0467
-0.0428
-0.0403
-0.0467
-0.0511
-0.0588
-0.0543
-0.0397
-0.0358
-0.0413
-0.0428
-0.047
-0.0492
-0.0451
-0.0397
-0.0425
-0.0435
-0.0409
-0.0371
-0.0346
-0.0381
-0.0454
-0.0511
-0.0397
-0.0314
-0.0304
-0.0346
-0.0393
-0.0419
-0.0435
-0.04
-0.0362
-0.0374
-0.0365
-0.0349
-0.032
-0.032
-0.0384
-0.0464
-0.0486
-0.033
-0.0275
-0.0275
-0.0326
-0.0355
-0.0377
-0.0393
-0.0342
-0.0333
-0.0342
-0.0282
-0.0215
-0.0234
-0.0244
-0.0314
-0.0381
-0.0342
-0.0199
-0.011
-0.0148
-0.017
-0.0154
-0.0173
-0.0151
-0.0055
-0.0059
-0.0017
0.0059
0.0133
0.0145
0.0142
0.0091
0.0043
0.0177
0.0292
0.0334
0.0302
0.0263
0.0267
0.026
0.0305
0.033
0.0321
0.034
0.0381
0.0404
0.0391
0.0334
0.0257
0.0251
0.0378
0.0436
0.0436
0.0397
0.0378
0.0375
0.0372
0.0432
0.0432
0.0448
0.048
0.0541
0.0576
0.0563
0.0502
0.042
0.0451
0.0576
0.06710000000000001
0.0624
0.0557
0.0493
0.0487
0.0512
0.055
0.049
0.049
0.0496
0.0483
0.0477
0.0423
0.0343
0.0244
0.0318
0.0369
0.0378
0.0318
0.0244
0.0203
0.0149
0.0139
0.0168
0.0123
0.0114
0.0171
0.0152
0.0107
0.0037
-0.0049
-0.01
0.0027
0.008500000000000001
0.0059
-0.002
-0.0071
-0.0097
-0.0122
-0.0081
-0.0078
-0.008399999999999999
-0.0071
-0.0071
-0.0062
-0.0081
-0.0145
-0.024
-0.0224
-0.01
-0.0027
-0.008399999999999999
-0.0126
-0.0154
-0.0202
-0.0205
-0.0161
-0.0173
-0.018
-0.0129
-0.0116
-0.01
-0.0154
-0.0228
-0.0304
-0.0221
-0.0138
-0.0094
-0.0126
-0.0177
-0.0212
-0.024
-0.0218
-0.0161
-0.0186
-0.018
-0.0154
-0.0113
-0.0116
-0.017
-0.0247
-0.0285
-0.0164
-0.0113
-0.0119
-0.0167
-0.0218
-0.0244
-0.0263
-0.0224
-0.0237
-0.025
-0.0215
-0.0183
-0.0138
-0.018
-0.0247
-0.0314
-0.0285
-0.0091
0.0037
0.0053
0.0062
0.0107
0.0168
0.0343
0.056
0.06710000000000001
0.08500000000000001
0.1073
0.1306
0.1548
0.1765
0.1979
0.2189
0.2562
0.2954
0.327
0.3474
0.3637
0.3825
0.4006
0.4214
0.4383
0.4469
0.4558
0.4663
0.4641
0.4548
0.4332
0.4143
0.3933
0.3844
0.37
0.3448
0.3095
0.2773
0.2463
0.2167
0.1905
0.1663
0.1341
0.1105
0.0866
0.0605
0.0334
0.0136
-0.0142
-0.0307
-0.0336
-0.0406
-0.0553
-0.0696
-0.0833
-0.09
-0.0958
-0.0939
-0.0983
-0.0983
-0.0974
-0.0961
-0.09320000000000001
-0.099
-0.1034
-0.1095
-0.1006
-0.0881
-0.08110000000000001
-0.08400000000000001
-0.0856
-0.0872
-0.08649999999999999
-0.0827
-0.07539999999999999
-0.07439999999999999
-0.0699
-0.062
-0.0623
-0.0585
-0.0607
-0.06519999999999999
-0.0664
-0.0508
-0.0419
-0.0384
-0.0416
-0.0448
-0.0422
-0.0413
-0.033
-0.0304
-0.0282
-0.0253
-0.0269
-0.0199
-0.0202
-0.0253
-0.0326
-0.0346
-0.0205
-0.0154
-0.0193
-0.025
-0.0272
-0.0282
-0.0291
-0.0253
-0.0285
-0.0269
-0.0231
-0.017
-0.0177
-0.0202
-0.026
-0.033
-0.0269
-0.0151
-0.0113
-0.0154
-0.0186
-0.0196
-0.024
-0.0228
-0.017
-0.0193
-0.0202
-0.0126
-0.0145
-0.0145
-0.0224
-0.0298
-0.0349
-0.0228
-0.0151
-0.0135
-0.0193
-0.0253
-0.0272
-0.0285
-0.024
-0.0221
-0.0215
-0.0189
-0.0145
-0.0091
-0.0116
-0.0173
-0.0234
-0.0231
-0.0062
0.0037
0.0037
-0.0008
-0.004
-0.0036
0.0011
0.0098
0.008800000000000001
0.0126
0.0155
0.0219
0.0257
0.0257
0.0206
0.0152
0.0241
0.0378
0.0461
0.0416
0.0394
0.0413
0.0404
0.0461
0.0525
0.0509
0.0541
0.0605
0.0659
0.0675
0.0649
0.0592
0.0566
0.0726
0.0805
0.08309999999999999
0.0796
0.0786
0.0796
0.0789
0.0853
0.09229999999999999
0.09229999999999999
0.0958
0.1041
0.1064
0.1086
0.1054
0.1
0.1013
0.1172
0.1261
0.1261
0.1274
0.1249
0.1239
0.1271
0.1366
0.1392
0.1411
0.1488
0.1561
0.1609
0.1596
0.1558
0.1532
0.1612
0.1771
0.1861
0.1848
0.1838
0.1857
0.1877
0.1934
0.203
0.203
0.2062
0.2144
0.2205
0.224
0.2221
0.2192
0.2183
0.2339
0.2438
0.2489
0.2476
0.2463
0.2466
0.247
0.2533
0.2597
0.2616
0.2648
0.2706
0.2725
0.2737
0.2715
0.2635
0.2613
0.2776
0.2875
0.2868
0.2817
0.2798
0.2776
0.2785
0.2875
0.2852
0.2846
0.2897
0.2929
0.2948
0.2932
0.2862
0.2773
0.2798
0.2913
0.2945
0.291
0.2859
0.2798
0.2753
0.2747
0.2785
0.2731
0.2702
0.2702
0.268
0.2639
0.2543
0.2415
0.231
0.2368
0.2374
0.2323
0.2208
0.2097
0.2017
0.1918
0.1857
0.18
0.1717
0.1637
0.1583
0.1548
0.1453
0.1296
0.1118
0.1025
0.1086
0.106
0.09420000000000001
0.0799
0.07099999999999999
0.0614
0.0512
0.0477
0.0372
0.0321
0.0219
0.0171
0.0165
0.0018
-0.0106
-0.0269
-0.0307
-0.026
-0.0282
-0.039
-0.0489
-0.0594
-0.0703
-0.0779
-0.07820000000000001
-0.0888
-0.08840000000000001
-0.08840000000000001
-0.0951
-0.1066
-0.1184
-0.1277
-0.1379
-0.1318
-0.1273
-0.1302
-0.1407
-0.1477
-0.1528
-0.1586
-0.1595
-0.156
-0.1618
-0.1618
-0.1602
-0.1548
-0.1653
-0.1704
-0.179
-0.1825
-0.1691
-0.1627
-0.1637
-0.1681
-0.1732
-0.1758
-0.1764
-0.1707
-0.171
-0.1742
-0.1732
-0.1656
-0.1586
-0.1656
-0.1717
-0.1799
-0.1758
-0.1615
-0.1564
-0.1579
-0.1624
-0.1666
-0.1688
-0.1646
-0.1579
-0.1602
-0.1595
-0.156
-0.1519
-0.1458
-0.1497
-0.1564
-0.1618
-0.1509
-0.1379
-0.1347
-0.1395
-0.1426
-0.1414
-0.1426
-0.1388
-0.1334
-0.1321
-0.1324
-0.1299
-0.1178
-0.121
-0.1254
-0.1331
-0.134
-0.1178
-0.1092
-0.1101
-0.1124
-0.1146
-0.1143
-0.1146
-0.1044
-0.1009
-0.099
-0.1012
-0.09229999999999999
-0.08749999999999999
-0.08749999999999999
-0.0926
-0.098
-0.0935
-0.07920000000000001
-0.07149999999999999
-0.07439999999999999
-0.077
-0.0779
-0.0786
-0.076
-0.06900000000000001
-0.06900000000000001
-0.0664
-0.0633
-0.0601
-0.0559
-0.0591
-0.0636
-0.0684
-0.0553
-0.046
-0.0416
-0.0435
-0.047
-0.048
-0.0499
-0.046
-0.0381
-0.0377
-0.0368
-0.0304
-0.0269
-0.0275
-0.0314
-0.0368
-0.039
-0.0237
-0.0138
-0.0135
-0.0205
-0.0228
-0.0218
-0.0212
-0.0151
-0.0142
-0.0122
-0.0091
-0.0033
-0.0011
-0.003
-0.0059
-0.0135
-0.0132
0.0021
0.0114
0.0091
0.005
0.0031
0.0018
0.0056
0.0123
0.0104
0.0133
0.019
0.0238
0.0238
0.02
0.0139
0.008200000000000001
0.0177
0.0276
0.0324
0.0279
0.0225
0.0235
0.0222
0.0241
0.0267
0.0251
0.0273
0.0305
0.0327
0.0321
0.026
0.0187
0.0145
0.0298
0.0362
0.0353
0.0302
0.0241
0.0222
0.0228
0.0279
0.0267
0.0282
0.0311
0.0356
0.0362
0.0327
0.0273
0.0193
0.0216
0.0334
0.0413
0.0388
0.0321
0.0286
0.0257
0.0267
0.0318
0.0289
0.0292
0.0314
0.0346
0.0349
0.0298
0.0225
0.0126
0.0196
0.0327
0.0381
0.0295
0.0225
0.0231
0.0212
0.0244
0.0276
0.0267
0.027
0.0308
0.033
0.0324
0.0276
0.0184
0.0145
0.0295
0.0372
0.0369
0.0302
0.027
0.0267
0.0251
0.0292
0.0308
0.0295
0.033
0.0378
0.0404
0.0375
0.0302
0.0241
0.0247
0.0391
0.0455
0.0416
0.0369
0.033
0.0321
0.0324
0.0369
0.0334
0.0346
0.0372
0.041
0.0423
0.0356
0.0289
0.0209
0.0295
0.0388
0.0407
0.0356
0.0334
0.0305
0.0267
0.0286
0.033
0.0311
0.033
0.0375
0.0381
0.0362
0.0324
0.0257
0.0209
0.0359
0.0432
0.0413
0.0359
0.0314
0.0321
0.0318
0.0349
0.0349
0.0362
0.0404
0.0439
0.0445
0.0388
0.0343
0.0289
0.0289
0.0416
0.049
0.0461
0.0407
0.0365
0.0346
0.0346
0.0394
0.0388
0.04
0.0432
0.0471
0.0483
0.0448
0.0372
0.0308
0.0394
0.0528
0.0595
0.0538
0.0506
0.0525
0.0528
0.0566
0.0643
0.06560000000000001
0.0687
0.0732
0.07829999999999999
0.08019999999999999
0.07829999999999999
0.07290000000000001
0.0697
0.0828
0.0907
0.09329999999999999
0.0882
0.08500000000000001
0.0824
0.0815
0.0837
0.0853
0.0856
0.0885
0.0917
0.0917
0.093
0.0866
0.0761
0.07770000000000001
0.0917
0.099
0.0965
0.092
0.0885
0.0882
0.0888
0.0936
0.09329999999999999
0.0949
0.0968
0.1013
0.1009
0.0974
0.0895
0.0799
0.0856
0.0958
0.1003
0.0939
0.0866
0.0805
0.07580000000000001
0.0761
0.0799
0.0742
0.07190000000000001
0.0761
0.07729999999999999
0.0735
0.06560000000000001
0.0528
0.0464
0.0553
0.0608
0.0598
0.0518
0.0445
0.0423
0.0375
0.0381
0.0378
0.0349
0.0346
0.0359
0.0369
0.0321
0.0225
0.0142
0.0123
0.0251
0.0314
0.027
0.0184
0.0145
0.0139
0.0123
0.0165
0.0139
0.0158
0.0168
0.02
0.0216
0.0187
0.0129
0.0005
0.0069
0.0206
0.0263
0.0216
0.0168
0.0123
0.0114
0.0136
0.0174
0.0149
0.0168
0.0219
0.0247
0.0238
0.0187
0.011
0.0056
0.0184
0.0267
0.0273
0.0222
0.0196
0.0177
0.0149
0.0203
0.0225
0.0212
0.0225
0.0263
0.0279
0.0251
0.0196
0.0107
0.0075
0.0222
0.0282
0.0241
0.0171
0.0129
0.0098
0.0107
0.0152
0.0139
0.0152
0.0158
0.0193
0.0241
0.0238
0.0228
0.02
0.0289
0.0471
0.0617
0.07000000000000001
0.0805
0.0891
0.1035
0.1258
0.1523
0.1714
0.1979
0.231
0.2626
0.29
0.3155
0.3397
0.3589
0.3888
0.4172
0.4418
0.4552
0.4647
0.4756
0.4826
0.489
0.4877
0.4781
0.4654
0.459
0.4367
0.4201
0.386
0.3576
0.3295
0.3155
0.2926
0.2613
0.2237
0.1909
0.1593
0.1312
0.1102
0.0863
0.0566
0.0394
0.027
0.0078
-0.0116
-0.0355
-0.0546
-0.061
-0.0591
-0.0607
-0.0706
-0.0789
-0.0853
-0.0926
-0.09130000000000001
-0.0856
-0.08749999999999999
-0.0856
-0.0789
-0.07820000000000001
-0.0747
-0.076
-0.0808
-0.0862
-0.0735
-0.0629
-0.0562
-0.0597
-0.0604
-0.062
-0.0623
-0.0543
-0.0483
-0.0486
-0.0464
-0.0409
-0.0365
-0.0362
-0.0403
-0.0476
-0.0467
-0.0295
-0.0221
-0.024
-0.026
-0.0304
-0.0291
-0.0279
-0.0212
-0.0218
-0.0193
-0.0157
-0.0119
-0.0106
-0.011
-0.0145
-0.0237
-0.0212
-0.0071
-0.0017
-0.0059
-0.0081
-0.0106
-0.0126
-0.0094
-0.0046
-0.008399999999999999
-0.0062
-0.0014
0.0024
0.0031
-0.0024
-0.008399999999999999
-0.0135
-0.0024
0.0053
0.0072
0.0034
0.0008
-0.0033
-0.0062
-0.0014
0.0031
0.004
0.0037
0.0056
0.0091
0.008200000000000001
0.0034
-0.0027
-0.0062
0.011
0.0177
0.0149
0.0091
0.0066
0.0072
0.008200000000000001
0.0123
0.0123
0.0136
0.0174
0.0209
0.0225
0.0222
0.0155
0.0091
0.012
0.0251
0.0308
0.027
0.0235
0.0216
0.0206
0.0228
0.0276
0.0251
0.0267
0.0324
0.0365
0.0362
0.0324
0.0263
0.0196
0.0318
0.0404
0.0461
0.0432
0.0407
0.0388
0.0349
0.0404
0.0474
0.048
0.0496
0.055
0.0598
0.0573
0.0541
0.0483
0.049
0.06270000000000001
0.0687
0.0697
0.06710000000000001
0.06519999999999999
0.06619999999999999
0.06560000000000001
0.07099999999999999
0.07190000000000001
0.0745
0.0786
0.0844
0.0885
0.0876
0.0828
0.0767
0.0793
0.0958
0.1051
0.1038
0.1006
0.09810000000000001
0.1
0.1041
0.1118
0.1118
0.115
0.1226
0.128
0.1303
0.1296
0.1252
0.1213
0.1328
0.1472
0.1545
0.151
0.15
0.152
0.1535
0.1609
0.1679
0.1692
0.1752
0.1851
0.1889
0.1905
0.1899
0.1861
0.1854
0.2026
0.2122
0.2144
0.2113
0.2113
0.2141
0.2151
0.2221
0.2237
0.2272
0.231
0.2355
0.2377
0.2393
0.2345
0.2282
0.2307
0.2438
0.253
0.2517
0.2486
0.2428
0.2415
0.2454
0.2521
0.2466
0.2479
0.2543
0.2572
0.2565
0.2495
0.2396
0.2329
0.2415
0.2463
0.2482
0.2406
0.2317
0.2269
0.2195
0.218
0.218
0.2125
0.2071
0.2068
0.203
0.1953
0.1838
0.1701
0.158
0.1641
0.1644
0.1574
0.1443
0.1325
0.1236
0.1134
0.108
0.099
0.0914
0.0824
0.077
0.07539999999999999
0.0595
0.0439
0.0295
0.02
0.0254
0.0222
0.0091
-0.0033
-0.0148
-0.026
-0.0352
-0.0336
-0.0448
-0.0524
-0.0613
-0.0566
-0.0699
-0.0814
-0.0926
-0.1079
-0.1073
-0.1018
-0.1018
-0.1139
-0.1254
-0.1347
-0.141
-0.1423
-0.1423
-0.15
-0.1557
-0.1506
-0.1564
-0.156
-0.1666
-0.1784
-0.1866
-0.1742
-0.1713
-0.1729
-0.1796
-0.1857
-0.1886
-0.1921
-0.1911
-0.1895
-0.1905
-0.1946
-0.1854
-0.1914
-0.1879
-0.1997
-0.2061
-0.2074
-0.1937
-0.1863
-0.1905
-0.1952
-0.2007
-0.2039
-0.2019
-0.1949
-0.1962
-0.1937
-0.1937
-0.1879
-0.185
-0.1914
-0.1972
-0.2013
-0.1946
-0.1828
-0.1758
-0.1806
-0.1863
-0.1879
-0.1882
-0.1844
-0.1787
-0.1793
-0.1799
-0.1777
-0.171
-0.1723
-0.1739
-0.1806
-0.1847
-0.171
-0.1624
-0.1608
-0.1643
-0.1675
-0.1675
-0.1697
-0.165
-0.1599
-0.1586
-0.1589
-0.1551
-0.1493
-0.1493
-0.1535
-0.1599
-0.1589
-0.1452
-0.1382
-0.1395
-0.142
-0.1423
-0.1417
-0.1426
-0.1372
-0.1369
-0.1347
-0.1293
-0.1267
-0.1248
-0.1254
-0.1302
-0.135
-0.1267
-0.1155
-0.1111
-0.113
-0.1143
-0.1139
-0.1171
-0.1152
-0.1063
-0.1076
-0.1044
-0.097
-0.0926
-0.099
-0.09959999999999999
-0.1063
-0.1101
-0.0964
-0.0872
-0.0856
-0.09229999999999999
-0.0961
-0.0961
-0.0964
-0.0926
-0.0897
-0.08749999999999999
-0.0853
-0.08400000000000001
-0.0827
-0.08110000000000001
-0.0849
-0.0939
-0.0958
-0.07920000000000001
-0.0703
-0.0728
-0.0779
-0.0814
-0.08169999999999999
-0.0805
-0.0735
-0.0747
-0.0741
-0.0674
-0.0674
-0.0658
-0.0639
-0.0684
-0.07439999999999999
-0.0696
-0.0569
-0.0502
-0.0527
-0.055
-0.0556
-0.0572
-0.054
-0.0457
-0.046
-0.0416
-0.0365
-0.0336
-0.0336
-0.0349
-0.0409
-0.0454
-0.0326
-0.0221
-0.0186
-0.0224
-0.026
-0.0279
-0.032
-0.0282
-0.0256
-0.0269
-0.0253
-0.0224
-0.0218
-0.0234
-0.0304
-0.0403
-0.0441
-0.032
-0.0256
-0.0285
-0.0349
-0.0403
-0.0432
-0.0457
-0.0419
-0.0435
-0.0441
-0.0413
-0.0377
-0.0387
-0.0428
-0.0518
-0.062
-0.0575
-0.0451
-0.039
-0.0464
-0.0502
-0.0553
-0.0562
-0.0556
-0.0515
-0.0537
-0.0511
-0.0457
-0.0422
-0.0464
-0.0505
-0.0585
-0.0655
-0.0524
-0.0457
-0.0413
-0.0464
-0.0518
-0.0543
-0.0559
-0.0524
-0.0495
-0.0518
-0.0492
-0.0448
-0.0425
-0.0467
-0.0531
-0.062
-0.06419999999999999
-0.0515
-0.0422
-0.0448
-0.0502
-0.0553
-0.0566
-0.0582
-0.0534
-0.054
-0.0537
-0.0521
-0.0492
-0.0486
-0.0521
-0.0556
-0.0648
-0.0623
-0.0508
-0.0448
-0.0492
-0.0543
-0.0582
-0.0626
-0.0588
-0.0543
-0.0588
-0.0607
-0.0566
-0.0518
-0.0537
-0.0582
-0.0664
-0.0735
-0.0629
-0.0537
-0.0515
-0.0575
-0.0636
-0.06610000000000001
-0.0684
-0.0645
-0.0591
-0.0613
-0.0626
-0.0575
-0.0543
-0.0559
-0.0626
-0.0709
-0.0725
-0.0575
-0.0502
-0.0543
-0.0582
-0.0601
-0.0585
-0.0585
-0.0515
-0.0508
-0.0486
-0.0454
-0.0368
-0.0346
-0.0355
-0.0397
-0.0451
-0.0403
-0.0266
-0.0173
-0.0186
-0.0205
-0.0234
-0.026
-0.024
-0.0157
-0.0177
-0.0151
-0.0113
-0.0116
-0.0075
-0.0126
-0.0209
-0.0272
-0.0145
-0.008399999999999999
-0.0078
-0.0138
-0.0138
-0.0145
-0.0157
-0.0126
-0.008399999999999999
-0.01
-0.008399999999999999
-0.0024
0.0018
-0.0017
-0.0059
-0.0148
-0.0154
-0.0008
0.0075
0.0047
0.0011
-0.0071
-0.008399999999999999
-0.011
-0.008399999999999999
-0.0091
-0.0106
-0.0081
-0.0106
-0.0097
-0.017
-0.0256
-0.0377
-0.0371
-0.0269
-0.0224
-0.0288
-0.0371
-0.0441
-0.0502
-0.0511
-0.0486
-0.0527
-0.0546
-0.0492
-0.0464
-0.0527
-0.0607
-0.0684
-0.077
-0.0674
-0.0617
-0.0582
-0.06419999999999999
-0.0709
-0.07630000000000001
-0.07820000000000001
-0.0751
-0.0728
-0.0766
-0.0751
-0.0693
-0.0776
-0.077
-0.0789
-0.0891
-0.09320000000000001
-0.0789
-0.0731
-0.07439999999999999
-0.0795
-0.0843
-0.0856
-0.08649999999999999
-0.0805
-0.08110000000000001
-0.0795
-0.07729999999999999
-0.0696
-0.0728
-0.0725
-0.0786
-0.0881
-0.0853
-0.0693
-0.0617
-0.0645
-0.0696
-0.0722
-0.0738
-0.0725
-0.0668
-0.06900000000000001
-0.0677
-0.062
-0.0588
-0.0582
-0.0626
-0.0725
-0.0789
-0.0696
-0.0585
-0.0559
-0.0626
-0.0684
-0.07539999999999999
-0.07920000000000001
-0.0757
-0.07149999999999999
-0.0747
-0.0757
-0.0786
-0.07439999999999999
-0.0798
-0.0827
-0.09
-0.0951
-0.0827
-0.0747
-0.07630000000000001
-0.076
-0.0751
-0.0738
-0.0703
-0.0591
-0.0508
-0.0397
-0.0228
-0.0055
0.012
0.0282
0.0426
0.056
0.0844
0.1261
0.1628
0.1902
0.2132
0.2406
0.2667
0.2887
0.3142
0.3324
0.3554
0.3767
0.3939
0.4029
0.4003
0.3898
0.3755
0.3748
0.3697
0.3557
0.3315
0.3044
0.2766
0.2479
0.2237
0.2001
0.1701
0.1331
0.106
0.0872
0.0579
0.0267
-0.0106
-0.0377
-0.0454
-0.0607
-0.0789
-0.1012
-0.1184
-0.1337
-0.1455
-0.1506
-0.1573
-0.1627
-0.1669
-0.1627
-0.1675
-0.1678
-0.1723
-0.1799
-0.178
-0.1621
-0.1506
-0.1519
-0.1541
-0.1541
-0.1503
-0.1455
-0.1372
-0.1363
-0.1308
-0.1248
-0.1181
-0.1149
-0.1146
-0.1175
-0.1216
-0.112
-0.1009
-0.09420000000000001
-0.0951
-0.0964
-0.1006
-0.1009
-0.0951
-0.0859
-0.0878
-0.0853
-0.07920000000000001
-0.0735
-0.07439999999999999
-0.07630000000000001
-0.0824
-0.0849
-0.0684
-0.0601
-0.0575
-0.0604
-0.0626
-0.062
-0.062
-0.0569
-0.0556
-0.0515
-0.0489
-0.0464
-0.0432
-0.0425
-0.0441
-0.0543
-0.0534
-0.0397
-0.0317
-0.032
-0.0362
-0.0387
-0.039
-0.0371
-0.0291
-0.032
-0.0304
-0.0263
-0.0199
-0.0177
-0.0193
-0.0269
-0.0346
-0.0244
-0.0113
-0.0062
-0.01
-0.0145
-0.0164
-0.0189
-0.0154
-0.0103
-0.0106
-0.0091
-0.0052
-0.0017
-0.003
-0.0068
-0.0135
-0.0199
-0.0078
0.0015
0.0034
-0.0017
-0.0052
-0.0055
-0.0068
-0.003
0.0011
0.0005
0.0024
0.0078
0.0098
0.0075
0.0043
-0.0001
-0.0011
0.0133
0.0212
0.0203
0.0158
0.0117
0.011
0.0139
0.0212
0.02
0.0235
0.027
0.0308
0.0327
0.0302
0.0228
0.0184
0.0279
0.04
0.0464
0.0413
0.0359
0.0365
0.0362
0.0397
0.048
0.0483
0.0499
0.0553
0.0589
0.0608
0.0582
0.0538
0.049
0.06519999999999999
0.0751
0.0767
0.0726
0.0722
0.0732
0.0732
0.0793
0.0834
0.0872
0.0907
0.09710000000000001
0.1003
0.1016
0.0997
0.0946
0.0965
0.1143
0.1242
0.1242
0.1245
0.1229
0.1245
0.13
0.1379
0.1398
0.1449
0.1526
0.1593
0.1634
0.1644
0.1612
0.1564
0.166
0.1816
0.1912
0.1889
0.1889
0.1889
0.1902
0.1956
0.2026
0.2049
0.2106
0.216
0.2218
0.2256
0.225
0.2205
0.2151
0.2307
0.2415
0.2444
0.2412
0.2412
0.2412
0.2403
0.2451
0.2514
0.2511
0.253
0.2565
0.2594
0.2581
0.2543
0.2479
0.2438
0.2588
0.267
0.2648
0.2559
0.2502
0.2492
0.247
0.2492
0.2444
0.2454
0.2473
0.2457
0.2419
0.232
0.2211
0.2093
0.2093
0.216
0.2151
0.203
0.1912
0.1806
0.1714
0.1669
0.1653
0.1539
0.1459
0.1411
0.1338
0.1264
0.114
0.0974
0.0824
0.0856
0.08500000000000001
0.078
0.064
0.0509
0.041
0.0305
0.0231
0.02
0.0104
-0.0001
-0.0004
-0.0106
-0.0209
-0.0317
-0.0467
-0.055
-0.048
-0.0499
-0.0597
-0.0722
-0.08110000000000001
-0.08840000000000001
-0.0961
-0.0993
-0.1057
-0.1082
-0.1168
-0.1127
-0.1206
-0.1321
-0.1404
-0.1525
-0.1541
-0.1468
-0.1452
-0.1535
-0.1621
-0.1675
-0.1739
-0.1755
-0.1723
-0.1774
-0.1806
-0.1809
-0.1803
-0.1815
-0.1831
-0.1937
-0.2003
-0.1911
-0.1831
-0.1822
-0.1901
-0.1943
-0.1949
-0.1972
-0.1946
-0.1921
-0.1921
-0.1914
-0.1908
-0.1806
-0.1828
-0.1924
-0.2
-0.2003
-0.185
-0.1784
-0.1796
-0.1844
-0.1873
-0.1876
-0.1882
-0.1815
-0.1819
-0.1844
-0.1739
-0.1758
-0.1691
-0.1726
-0.1784
-0.1854
-0.1809
-0.1691
-0.165
-0.1666
-0.1685
-0.1713
-0.172
-0.1672
-0.1611
-0.1675
-0.1659
-0.1602
-0.157
-0.1506
-0.1567
-0.1618
-0.1666
-0.1544
-0.1455
-0.143
-0.1458
-0.1477
-0.1487
-0.15
-0.1449
-0.1388
-0.1407
-0.1359
-0.1344
-0.1245
-0.1273
-0.1308
-0.1379
-0.1391
-0.1242
-0.1171
-0.1159
-0.1197
-0.1216
-0.1213
-0.1206
-0.1159
-0.1149
-0.1124
-0.1095
-0.1034
-0.098
-0.1015
-0.106
-0.1127
-0.1101
-0.0939
-0.0878
-0.09
-0.09229999999999999
-0.0919
-0.0945
-0.0929
-0.0849
-0.0868
-0.083
-0.07820000000000001
-0.0709
-0.0722
-0.07539999999999999
-0.0805
-0.08649999999999999
-0.0757
-0.0658
-0.061
-0.0648
-0.0687
-0.0699
-0.07149999999999999
-0.06519999999999999
-0.0613
-0.0633
-0.0607
-0.0531
-0.0569
-0.0537
-0.0582
-0.06519999999999999
-0.06900000000000001
-0.0527
-0.0457
-0.0473
-0.0511
-0.0531
-0.0543
-0.0546
-0.0492
-0.0492
-0.0489
-0.0464
-0.0435
-0.0425
-0.0435
-0.0483
-0.0562
-0.0534
-0.0403
-0.0352
-0.0387
-0.0422
-0.0438
-0.047
-0.0476
-0.0413
-0.0435
-0.0406
-0.0358
-0.0304
-0.0314
-0.0368
-0.0441
-0.0473
-0.0371
-0.0285
-0.0256
-0.0301
-0.0336
-0.0355
-0.0355
-0.032
-0.0285
-0.0314
-0.0291
-0.025
-0.0205
-0.0212
-0.0275
-0.0362
-0.0403
-0.0269
-0.0186
-0.0202
-0.025
-0.0288
-0.0291
-0.0326
-0.0291
-0.0285
-0.0269
-0.0266
-0.0237
-0.024
-0.0266
-0.0317
-0.039
-0.0397
-0.026
-0.0196
-0.025
-0.0311
-0.0336
-0.0358
-0.0362
-0.0314
-0.0326
-0.032
-0.032
-0.0301
-0.0263
-0.0304
-0.0371
-0.0454
-0.0377
-0.0298
-0.0237
-0.0269
-0.0352
-0.039
-0.0413
-0.0387
-0.0342
-0.0368
-0.0346
-0.0295
-0.032
-0.0352
-0.039
-0.047
-0.0518
-0.0387
-0.0342
-0.0368
-0.0413
-0.0457
-0.046
-0.0492
-0.0451
-0.0435
-0.0448
-0.0444
-0.0403
-0.0422
-0.0422
-0.0495
-0.0582
-0.0575
-0.0441
-0.0368
-0.0422
-0.0473
-0.0531
-0.054
-0.054
-0.0492
-0.0527
-0.0518
-0.0505
-0.046
-0.0454
-0.0505
-0.0569
-0.0655
-0.0585
-0.0489
-0.0451
-0.0505
-0.0559
-0.0566
-0.0597
-0.0575
-0.0527
-0.0534
-0.0531
-0.048
-0.0492
-0.0502
-0.0524
-0.0597
-0.06610000000000001
-0.0515
-0.0432
-0.0419
-0.0454
-0.0473
-0.0502
-0.0521
-0.0451
-0.0403
-0.0384
-0.0346
-0.0301
-0.025
-0.0253
-0.0307
-0.0368
-0.0352
-0.0202
-0.01
-0.0113
-0.0157
-0.0212
-0.0212
-0.0205
-0.0151
-0.018
-0.0177
-0.0116
-0.008399999999999999
-0.0091
-0.0129
-0.0212
-0.0279
-0.0228
-0.0122
-0.0059
-0.01
-0.0138
-0.0157
-0.0189
-0.0135
-0.0081
-0.0078
-0.0052
0.0002
0.0043
0.0069
0.0043
-0.0011
-0.0014
0.0152
0.0241
0.0244
0.0222
0.0126
0.0149
0.0171
0.0193
0.0212
0.0177
0.0161
0.019
0.0222
0.0165
0.0072
-0.0024
-0.0059
0.0078
0.0129
0.0062
-0.0014
-0.0071
-0.0075
-0.008699999999999999
-0.0049
-0.0065
-0.0065
-0.0033
-0.0024
-0.002
-0.0071
-0.0135
-0.0215
-0.0161
-0.0036
-0.0001
-0.0068
-0.0119
-0.0145
-0.0202
-0.0177
-0.0122
-0.0151
-0.0157
-0.0167
-0.0221
-0.0202
-0.0218
-0.0326
-0.0451
-0.0342
-0.0272
-0.0269
-0.0336
-0.0422
-0.0444
-0.0476
-0.0454
-0.0435
-0.0454
-0.0464
-0.0406
-0.0432
-0.0428
-0.0464
-0.0559
-0.0585
-0.0444
-0.0349
-0.0365
-0.0438
-0.0476
-0.0499
-0.0495
-0.0435
-0.0435
-0.0413
-0.039
-0.039
-0.0352
-0.0387
-0.0476
-0.0572
-0.0518
-0.039
-0.0365
-0.0457
-0.0508
-0.0515
-0.0566
-0.0566
-0.0521
-0.0566
-0.0575
-0.0534
-0.0511
-0.054
-0.0566
-0.0633
-0.06900000000000001
-0.0531
-0.04
-0.0339
-0.0365
-0.0355
-0.0275
-0.0177
-0.0027
0.0158
0.0305
0.0499
0.07290000000000001
0.0958
0.1204
0.1427
0.1634
0.1924
0.2368
0.275
0.3031
0.3193
0.3375
0.3589
0.3796
0.4013
0.4137
0.4239
0.4354
0.4386
0.4309
0.4172
0.3971
0.3745
0.3579
0.3445
0.3254
0.2938
0.2591
0.2278
0.195
0.1641
0.1389
0.1121
0.0828
0.0538
0.0308
0.008500000000000001
-0.0215
-0.0476
-0.0738
-0.0786
-0.0853
-0.0948
-0.112
-0.1254
-0.1334
-0.1407
-0.1423
-0.1404
-0.1407
-0.1388
-0.1455
-0.1369
-0.1331
-0.1372
-0.1436
-0.1426
-0.1248
-0.1139
-0.1136
-0.1139
-0.113
-0.1124
-0.1092
-0.1015
-0.099
-0.0945
-0.0862
-0.07920000000000001
-0.08019999999999999
-0.08110000000000001
-0.0853
-0.0907
-0.0843
-0.0684
-0.061
-0.0658
-0.068
-0.06900000000000001
-0.0699
-0.0648
-0.0585
-0.061
-0.0572
-0.0492
-0.047
-0.0438
-0.0486
-0.0553
-0.0604
-0.0464
-0.0358
-0.033
-0.0358
-0.0406
-0.0416
-0.0428
-0.0387
-0.0336
-0.0333
-0.0295
-0.026
-0.0234
-0.024
-0.0291
-0.0352
-0.0362
-0.0224
-0.0145
-0.0161
-0.0205
-0.0224
-0.0253
-0.0272
-0.0196
-0.0193
-0.0212
-0.0212
-0.0161
-0.0138
-0.0196
-0.026
-0.0339
-0.032
-0.0196
-0.0142
-0.018
-0.0247
-0.0311
-0.0339
-0.0326
-0.0275
-0.0301
-0.0314
-0.0256
-0.0272
-0.0253
-0.0317
-0.039
-0.046
-0.0355
-0.0269
-0.0256
-0.0336
-0.0377
-0.039
-0.0422
-0.04
-0.0368
-0.0384
-0.0397
-0.0377
-0.0346
-0.0339
-0.0381
-0.0505
-0.0515
-0.0384
-0.0323
-0.0333
-0.0384
-0.0438
-0.0451
-0.0438
-0.0403
-0.0457
-0.0428
-0.0387
-0.0358
-0.0333
-0.039
-0.0454
-0.0543
-0.0492
-0.0362
-0.0298
-0.0346
-0.0393
-0.0397
-0.0422
-0.0409
-0.033
-0.0342
-0.0317
-0.0256
-0.0215
-0.0193
-0.0209
-0.0244
-0.0269
-0.0135
-0.0014
0.0069
0.0056
0.0031
0.0094
0.0123
0.02
0.0305
0.0334
0.0426
0.0557
0.0617
0.06560000000000001
0.06710000000000001
0.06809999999999999
0.07290000000000001
0.0955
0.1105
0.1175
0.1194
0.1245
0.1322
0.1408
0.1532
0.1612
0.1704
0.1813
0.194
0.2033
0.2087
0.21
0.2097
0.2186
0.238
0.2508
0.2533
0.2533
0.2572
0.2613
0.2674
0.2773
0.2801
0.2862
0.2957
0.3021
0.3053
0.3066
0.3034
0.3008
0.3136
0.3241
0.3308
0.3289
0.3276
0.3276
0.3289
0.3337
0.341
0.3397
0.3394
0.3448
0.3493
0.3493
0.3442
0.3318
0.3299
0.3461
0.3506
0.3468
0.3417
0.3337
0.3286
0.3267
0.3267
0.3219
0.319
0.3184
0.3193
0.3149
0.3028
0.289
0.2769
0.2725
0.2817
0.2811
0.2642
0.2508
0.2409
0.232
0.2246
0.2211
0.2084
0.1995
0.1937
0.1896
0.1784
0.1634
0.1459
0.1306
0.1274
0.1277
0.1226
0.1051
0.0898
0.0764
0.0646
0.0595
0.0534
0.0423
0.0302
0.0276
0.0228
0.0078
-0.004
-0.0193
-0.0336
-0.0279
-0.026
-0.0333
-0.0464
-0.0572
-0.06710000000000001
-0.0751
-0.07539999999999999
-0.08019999999999999
-0.0833
-0.08210000000000001
-0.08749999999999999
-0.0916
-0.0983
-0.1139
-0.1235
-0.1245
-0.1159
-0.1139
-0.12
-0.128
-0.1353
-0.1414
-0.1452
-0.1401
-0.1458
-0.149
-0.1487
-0.149
-0.1449
-0.1538
-0.1605
-0.1688
-0.1602
-0.1519
-0.149
-0.1548
-0.1589
-0.1608
-0.164
-0.1605
-0.1567
-0.1583
-0.1608
-0.1576
-0.149
-0.1481
-0.1532
-0.1618
-0.1675
-0.1532
-0.1436
-0.1426
-0.1471
-0.1503
-0.1497
-0.1513
-0.1458
-0.1442
-0.1417
-0.1382
-0.1305
-0.1331
-0.1321
-0.1366
-0.1439
-0.142
-0.1261
-0.1165
-0.1222
-0.1286
-0.1283
-0.1254
-0.1248
-0.12
-0.1229
-0.1168
-0.1127
-0.1117
-0.1063
-0.1104
-0.1171
-0.1238
-0.1146
-0.1037
-0.0983
-0.1031
-0.106
-0.1082
-0.1092
-0.1037
-0.097
-0.1015
-0.1006
-0.0888
-0.0872
-0.08749999999999999
-0.09
-0.099
-0.1002
-0.08210000000000001
-0.07149999999999999
-0.0709
-0.0741
-0.07539999999999999
-0.0738
-0.07149999999999999
-0.0617
-0.0566
-0.0537
-0.0486
-0.04
-0.0339
-0.033
-0.0365
-0.0403
-0.0368
-0.018
-0.0091
-0.0094
-0.0113
-0.0142
-0.0126
-0.0113
-0.0059
-0.0059
-0.0046
-0.003
-0.0014
-0.0017
-0.0055
-0.0138
-0.0202
-0.017
-0.011
-0.008399999999999999
-0.0154
-0.0218
-0.0266
-0.0323
-0.032
-0.0311
-0.0355
-0.0362
-0.0336
-0.0355
-0.0355
-0.0419
-0.048
-0.0566
-0.0473
-0.039
-0.0374
-0.0432
-0.0495
-0.0518
-0.0537
-0.0499
-0.0486
-0.0499
-0.0476
-0.0486
-0.0464
-0.047
-0.0531
-0.062
-0.0645
-0.0511
-0.0451
-0.0486
-0.0546
-0.0572
-0.0594
-0.0617
-0.0591
-0.062
-0.062
-0.0559
-0.0562
-0.0569
-0.0626
-0.07190000000000001
-0.0824
-0.0789
-0.0696
-0.0664
-0.0712
-0.0776
-0.0814
-0.0859
-0.08459999999999999
-0.0814
-0.0856
-0.0833
-0.0776
-0.0776
-0.0814
-0.0891
-0.099
-0.1044
-0.0926
-0.08749999999999999
-0.0859
-0.0929
-0.09959999999999999
-0.1018
-0.1044
-0.1037
-0.1031
-0.1034
-0.1044
-0.09669999999999999
-0.0993
-0.1028
-0.1111
-0.1203
-0.1216
-0.1092
-0.1057
-0.1092
-0.1152
-0.1206
-0.1238
-0.1245
-0.1203
-0.1238
-0.1245
-0.1187
-0.1206
-0.1181
-0.1242
-0.1302
-0.1388
-0.1344
-0.1226
-0.1175
-0.1222
-0.128
-0.1289
-0.1299
-0.1283
-0.1254
-0.1277
-0.1229
-0.1162
-0.1152
-0.1155
-0.12
-0.128
-0.1312
-0.1197
-0.1092
-0.105
-0.1101
-0.1139
-0.1124
-0.1139
-0.1092
-0.1057
-0.1018
-0.1012
-0.091
-0.0881
-0.0919
-0.0935
-0.09859999999999999
-0.1009
-0.08649999999999999
-0.07920000000000001
-0.0776
-0.0805
-0.08459999999999999
-0.0853
-0.0843
-0.07729999999999999
-0.07729999999999999
-0.0786
-0.07630000000000001
-0.0712
-0.0684
-0.0693
-0.07630000000000001
-0.0833
-0.07820000000000001
-0.0655
-0.0607
-0.0648
-0.068
-0.0709
-0.0728
-0.07149999999999999
-0.0655
-0.0687
-0.0693
-0.0607
-0.0572
-0.0591
-0.0664
-0.0747
-0.0798
-0.0684
-0.0607
-0.0597
-0.06610000000000001
-0.0696
-0.0735
-0.0757
-0.0703
-0.0684
-0.0728
-0.0684
-0.0674
-0.0664
-0.06519999999999999
-0.0725
-0.0808
-0.0837
-0.0684
-0.061
-0.0645
-0.0696
-0.0747
-0.0747
-0.077
-0.0706
-0.0703
-0.0712
-0.0696
-0.0633
-0.0578
-0.0648
-0.0735
-0.07920000000000001
-0.0751
-0.0623
-0.0559
-0.0597
-0.0639
-0.06610000000000001
-0.06710000000000001
-0.0645
-0.0594
-0.061
-0.0588
-0.0543
-0.047
-0.048
-0.0511
-0.0559
-0.0604
-0.0467
-0.0365
-0.0339
-0.0349
-0.0365
-0.0352
-0.0317
-0.024
-0.0189
-0.0177
-0.011
-0.0036
0.0024
0.0062
0.005
0.0002
0.0015
0.0187
0.0302
0.033
0.0305
0.0279
0.0308
0.0314
0.04
0.0404
0.041
0.0448
0.0502
0.0518
0.0515
0.0458
0.0365
0.0407
0.055
0.0614
0.0553
0.0518
0.0496
0.0483
0.0512
0.056
0.0534
0.0553
0.0614
0.06710000000000001
0.064
0.0585
0.0512
0.0448
0.0573
0.06619999999999999
0.06809999999999999
0.063
0.0563
0.0522
0.049
0.0512
0.0538
0.0496
0.0474
0.0515
0.0506
0.0471
0.0381
0.0276
0.0222
0.0359
0.0404
0.0362
0.0295
0.0231
0.0196
0.0165
0.0168
0.0139
0.0139
0.0168
0.0158
0.018
0.0139
0.0056
-0.004
-0.0027
0.0104
0.0139
0.008500000000000001
0.0018
-0.0004
-0.0027
-0.002
0.0018
-0.0017
-0.0024
0.0018
0.0047
0.0034
-0.0008
-0.008399999999999999
-0.0148
-0.0043
0.0043
0.0059
0.0002
-0.0024
-0.0046
-0.0078
-0.0043
-0.0004
-0.0008
0.0018
0.0072
0.0066
0.0062
0.0018
-0.0071
-0.0097
0.005
0.0107
0.0091
0.004
0.0008
0.0024
0.0021
0.0062
0.0056
0.0069
0.0072
0.0123
0.0136
0.008800000000000001
0.004
-0.004
-0.0036
0.0094
0.0133
0.008200000000000001
0.0021
-0.0014
-0.0059
-0.0062
-0.0024
-0.0081
-0.0081
-0.004
-0.0024
-0.0024
-0.0075
-0.0177
-0.0237
-0.0135
-0.0004
0.008200000000000001
0.0047
0.0047
0.0094
0.0152
0.0254
0.042
0.0547
0.0713
0.0927
0.1134
0.1331
0.1513
0.1676
0.1918
0.2352
0.2718
0.3002
0.3225
0.3474
0.3668
0.3847
0.4099
0.4287
0.4411
0.4536
0.467
0.4721
0.4654
0.4501
0.4293
0.4131
0.408
0.3936
0.3659
0.3369
0.3056
0.2725
0.2435
0.2199
0.1902
0.1622
0.136
0.1115
0.0901
0.0531
0.0273
0.0005
-0.008399999999999999
-0.0161
-0.0272
-0.0451
-0.0601
-0.0699
-0.07920000000000001
-0.083
-0.0853
-0.08939999999999999
-0.0888
-0.0843
-0.0837
-0.0843
-0.08840000000000001
-0.09420000000000001
-0.097
-0.0808
-0.0703
-0.0687
-0.0709
-0.0731
-0.0703
-0.0693
-0.062
-0.0607
-0.0604
-0.0559
-0.0486
-0.0486
-0.047
-0.0527
-0.0604
-0.0604
-0.0457
-0.039
-0.0419
-0.0454
-0.0489
-0.0518
-0.0508
-0.0457
-0.0489
-0.0476
-0.0448
-0.0384
-0.0416
-0.0444
-0.0511
-0.0582
-0.0502
-0.04
-0.0349
-0.0397
-0.0451
-0.046
-0.048
-0.047
-0.04
-0.04
-0.0409
-0.0346
-0.0295
-0.0317
-0.0377
-0.0451
-0.0464
-0.0311
-0.024
-0.024
-0.0285
-0.0298
-0.0317
-0.0317
-0.0269
-0.024
-0.0215
-0.0209
-0.017
-0.0135
-0.0154
-0.0183
-0.0256
-0.0269
-0.0122
-0.0055
-0.0059
-0.008699999999999999
-0.0119
-0.0129
-0.0122
-0.0043
-0.0055
-0.003
0.0021
0.0056
0.0078
0.0062
-0.0004
-0.0062
0.0034
0.0158
0.0222
0.02
0.0158
0.0126
0.0126
0.018
0.0251
0.0263
0.0276
0.0318
0.0372
0.0372
0.0334
0.0267
0.0222
0.0375
0.0464
0.0487
0.0429
0.0385
0.0362
0.0381
0.0426
0.0426
0.0439
0.0451
0.0499
0.0534
0.0512
0.0455
0.0378
0.0378
0.0522
0.0608
0.0589
0.0522
0.049
0.049
0.0518
0.0585
0.056
0.0573
0.063
0.0687
0.0703
0.06710000000000001
0.0605
0.0566
0.0659
0.07770000000000001
0.08400000000000001
0.0815
0.07770000000000001
0.0789
0.07829999999999999
0.08309999999999999
0.0914
0.0914
0.0946
0.1009
0.1092
0.1115
0.1086
0.1038
0.1016
0.1172
0.129
0.1322
0.1315
0.1315
0.1341
0.1338
0.1414
0.1481
0.151
0.1548
0.1637
0.1701
0.172
0.1701
0.1666
0.1708
0.1889
0.1991
0.2007
0.1991
0.1995
0.2026
0.2046
0.216
0.2186
0.2231
0.2291
0.2374
0.2419
0.2393
0.2361
0.2317
0.2403
0.2556
0.2645
0.2604
0.2572
0.2568
0.2562
0.2619
0.2709
0.2683
0.267
0.2747
0.2773
0.2744
0.2696
0.2619
0.2575
0.2696
0.276
0.2744
0.2658
0.261
0.2581
0.2543
0.2543
0.2521
0.2476
0.2457
0.2463
0.2431
0.2374
0.2256
0.2141
0.2065
0.2125
0.2128
0.2042
0.194
0.1806
0.172
0.165
0.1615
0.152
0.1437
0.1379
0.1322
0.1287
0.1143
0.0997
0.0828
0.0786
0.0796
0.0767
0.064
0.0512
0.0391
0.0295
0.0206
0.0161
0.0043
-0.0024
-0.0075
-0.0059
-0.0202
-0.0346
-0.0492
-0.0617
-0.0566
-0.0556
-0.062
-0.0747
-0.0849
-0.0939
-0.1025
-0.1047
-0.1063
-0.1143
-0.1194
-0.1251
-0.1235
-0.134
-0.1414
-0.1567
-0.1634
-0.1513
-0.149
-0.1551
-0.164
-0.172
-0.1768
-0.1803
-0.1774
-0.1803
-0.1799
-0.1841
-0.1847
-0.178
-0.1847
-0.1927
-0.2048
-0.2026
-0.1889
-0.1841
-0.1901
-0.1949
-0.1997
-0.2023
-0.1991
-0.193
-0.1981
-0.1997
-0.1892
-0.1898
-0.1908
-0.1898
-0.2
-0.2045
-0.1927
-0.1835
-0.1809
-0.1854
-0.1886
-0.1908
-0.1914
-0.186
-0.1825
-0.1844
-0.1822
-0.1764
-0.1717
-0.1784
-0.1803
-0.1876
-0.1898
-0.1739
-0.1653
-0.1675
-0.172
-0.1752
-0.1748
-0.1748
-0.1681
-0.1662
-0.1646
-0.1592
-0.1548
-0.1583
-0.1544
-0.1615
-0.1697
-0.1643
-0.1484
-0.1414
-0.1449
-0.1503
-0.1522
-0.1532
-0.1487
-0.141
-0.1417
-0.1388
-0.1391
-0.1296
-0.1324
-0.1302
-0.1359
-0.1401
-0.128
-0.1171
-0.1133
-0.113
-0.1168
-0.1165
-0.1159
-0.1104
-0.105
-0.1009
-0.0964
-0.08749999999999999
-0.08459999999999999
-0.0862
-0.08939999999999999
-0.09420000000000001
-0.0955
-0.07630000000000001
-0.06610000000000001
-0.0658
-0.0706
-0.0725
-0.0709
-0.06900000000000001
-0.0648
-0.0645
-0.0613
-0.0562
-0.0556
-0.0511
-0.0518
-0.0607
-0.0696
-0.06519999999999999
-0.054
-0.0476
-0.0511
-0.0566
-0.0597
-0.0639
-0.062
-0.0559
-0.0578
-0.0572
-0.0559
-0.0543
-0.0511
-0.0546
-0.0626
-0.0725
-0.061
-0.0515
-0.0486
-0.0556
-0.0601
-0.0623
-0.0655
-0.0617
-0.0591
-0.0633
-0.0639
-0.0588
-0.0588
-0.0591
-0.06419999999999999
-0.07439999999999999
-0.07820000000000001
-0.06419999999999999
-0.0566
-0.0572
-0.06419999999999999
-0.0677
-0.0693
-0.0712
-0.0677
-0.0677
-0.0658
-0.0626
-0.0633
-0.0617
-0.0639
-0.0696
-0.0789
-0.0776
-0.0648
-0.0588
-0.0617
-0.0655
-0.0703
-0.0731
-0.0731
-0.0687
-0.0703
-0.0684
-0.0684
-0.0623
-0.0639
-0.0664
-0.07439999999999999
-0.08169999999999999
-0.0722
-0.0633
-0.0594
-0.0658
-0.0703
-0.07149999999999999
-0.0747
-0.07190000000000001
-0.0668
-0.0703
-0.0725
-0.0636
-0.0617
-0.0658
-0.0709
-0.0808
-0.0856
-0.0709
-0.0626
-0.0645
-0.0728
-0.0779
-0.0795
-0.0814
-0.0766
-0.07630000000000001
-0.07630000000000001
-0.0735
-0.0706
-0.0696
-0.0738
-0.0824
-0.0945
-0.091
-0.0766
-0.07149999999999999
-0.077
-0.0843
-0.08840000000000001
-0.09
-0.0888
-0.0843
-0.08840000000000001
-0.0859
-0.0856
-0.08210000000000001
-0.0843
-0.0878
-0.0951
-0.1047
-0.0961
-0.08840000000000001
-0.0849
-0.09
-0.0948
-0.09669999999999999
-0.1015
-0.1006
-0.0955
-0.0958
-0.0935
-0.0945
-0.0888
-0.0919
-0.09859999999999999
-0.1063
-0.1117
-0.098
-0.0907
-0.0926
-0.099
-0.1034
-0.1053
-0.1066
-0.1028
-0.1012
-0.1018
-0.09859999999999999
-0.1018
-0.09859999999999999
-0.1041
-0.1085
-0.1171
-0.1168
-0.1047
-0.1009
-0.1076
-0.1085
-0.1127
-0.1187
-0.1184
-0.1136
-0.1181
-0.1216
-0.1162
-0.1194
-0.1184
-0.1229
-0.1318
-0.1436
-0.135
-0.1273
-0.128
-0.1379
-0.1449
-0.1506
-0.156
-0.157
-0.1548
-0.1615
-0.1666
-0.1602
-0.1621
-0.1745
-0.1768
-0.1927
-0.2013
-0.1895
-0.1863
-0.1924
-0.2
-0.2083
-0.2125
-0.2172
-0.216
-0.2198
-0.2182
-0.2169
-0.2176
-0.2195
-0.2236
-0.2326
-0.2456
-0.2466
-0.2345
-0.231
-0.2345
-0.2389
-0.2431
-0.2447
-0.2472
-0.2428
-0.2437
-0.2399
-0.2437
-0.2341
-0.2389
-0.2392
-0.2453
-0.2526
-0.2443
-0.2329
-0.2271
-0.2319
-0.2383
-0.2408
-0.2415
-0.2367
-0.2303
-0.2332
-0.2319
-0.2223
-0.2182
-0.2249
-0.223
-0.2319
-0.2373
-0.2233
-0.2141
-0.2112
-0.2176
-0.2204
-0.2192
-0.2188
-0.2147
-0.2128
-0.2128
-0.2061
-0.2061
-0.2035
-0.2023
-0.2061
-0.2121
-0.2125
-0.1972
-0.1882
-0.187
-0.1854
-0.1863
-0.1866
-0.1844
-0.1771
-0.1752
-0.1685
-0.1602
-0.1576
-0.149
-0.1528
-0.1564
-0.1618
-0.1528
-0.1398
-0.1347
-0.1391
-0.1426
-0.1449
-0.1458
-0.1433
-0.1385
-0.141
-0.1442
-0.1382
-0.1299
-0.1277
-0.128
-0.1334
-0.1401
-0.1232
-0.1111
-0.1069
-0.1073
-0.106
-0.1022
-0.0983
-0.0888
-0.08019999999999999
-0.0751
-0.0703
-0.0597
-0.0524
-0.0515
-0.0569
-0.0639
-0.062
-0.0457
-0.0346
-0.0397
-0.0451
-0.0495
-0.0515
-0.0524
-0.0483
-0.0502
-0.0505
-0.0508
-0.048
-0.046
-0.0543
-0.06610000000000001
-0.0735
-0.0696
-0.0601
-0.0556
-0.0617
-0.06710000000000001
-0.07190000000000001
-0.0757
-0.0741
-0.0712
-0.07539999999999999
-0.0741
-0.07630000000000001
-0.07149999999999999
-0.0684
-0.07630000000000001
-0.0872
-0.0919
-0.0795
-0.0738
-0.0751
-0.08169999999999999
-0.08649999999999999
-0.0888
-0.09420000000000001
-0.09039999999999999
-0.08840000000000001
-0.0926
-0.0935
-0.0919
-0.0907
-0.09229999999999999
-0.1015
-0.1117
-0.1155
-0.1031
-0.0974
-0.1025
-0.1104
-0.1171
-0.1203
-0.121
-0.1165
-0.1206
-0.1222
-0.1232
-0.1152
-0.1187
-0.1222
-0.1296
-0.1375
-0.1321
-0.121
-0.119
-0.1251
-0.1289
-0.1302
-0.1312
-0.1296
-0.1248
-0.128
-0.1302
-0.1273
-0.1213
-0.1175
-0.1245
-0.1328
-0.1375
-0.1238
-0.1155
-0.113
-0.1194
-0.1245
-0.1242
-0.1251
-0.121
-0.1171
-0.1165
-0.1175
-0.1114
-0.1069
-0.1085
-0.1152
-0.1222
-0.1219
-0.1092
-0.1009
-0.1037
-0.1073
-0.1092
-0.1092
-0.1092
-0.1031
-0.1057
-0.1022
-0.09859999999999999
-0.0958
-0.09229999999999999
-0.097
-0.105
-0.1133
-0.1095
-0.1002
-0.0955
-0.1006
-0.106
-0.1095
-0.1127
-0.1114
-0.1066
-0.1082
-0.1079
-0.1057
-0.099
-0.09859999999999999
-0.0977
-0.1006
-0.0993
-0.08169999999999999
-0.0639
-0.0518
-0.0476
-0.0374
-0.0231
-0.008699999999999999
0.0145
0.0381
0.0598
0.0856
0.1188
0.1507
0.1781
0.2017
0.2234
0.2508
0.2957
0.3235
0.3413
0.3566
0.3713
0.3825
0.3933
0.4051
0.4083
0.4045
0.3933
0.3904
0.3723
0.3544
0.3235
0.2919
0.2696
0.2514
0.2291
0.196
0.1625
0.1325
0.1022
0.0742
0.0522
0.0257
-0.002
-0.0116
-0.0288
-0.0495
-0.0658
-0.0868
-0.1066
-0.1066
-0.1041
-0.1082
-0.1184
-0.1267
-0.1299
-0.1315
-0.1286
-0.1261
-0.127
-0.1254
-0.1171
-0.1127
-0.1136
-0.1143
-0.1184
-0.12
-0.1037
-0.0935
-0.0935
-0.0964
-0.0964
-0.0955
-0.0948
-0.08649999999999999
-0.0859
-0.083
-0.0776
-0.077
-0.0722
-0.0722
-0.07820000000000001
-0.08459999999999999
-0.08019999999999999
-0.0658
-0.0582
-0.0617
-0.0648
-0.06419999999999999
-0.0668
-0.0645
-0.0582
-0.0578
-0.0562
-0.0473
-0.0489
-0.0451
-0.0492
-0.0546
-0.061
-0.0486
-0.0371
-0.0326
-0.0384
-0.0438
-0.0438
-0.0457
-0.0406
-0.0365
-0.0365
-0.0355
-0.0275
-0.0256
-0.0272
-0.032
-0.0358
-0.0387
-0.0234
-0.0148
-0.0173
-0.0212
-0.0231
-0.0221
-0.0205
-0.0142
-0.0145
-0.0113
-0.008399999999999999
-0.0024
0.0002
-0.0024
-0.0062
-0.01
-0.0065
0.008500000000000001
0.0171
0.0152
0.011
0.0091
0.0094
0.012
0.0203
0.0209
0.0216
0.0276
0.0311
0.033
0.0324
0.026
0.0206
0.0305
0.0416
0.0477
0.0448
0.0429
0.0394
0.0378
0.0423
0.0487
0.0471
0.049
0.0553
0.0595
0.0569
0.0515
0.0429
0.0404
0.055
0.0624
0.0605
0.0557
0.0518
0.0509
0.0499
0.0541
0.055
0.0566
0.0579
0.0633
0.06710000000000001
0.06519999999999999
0.0598
0.0499
0.0525
0.0694
0.0764
0.0751
0.0726
0.07000000000000001
0.06560000000000001
0.0707
0.07829999999999999
0.07539999999999999
0.07829999999999999
0.08309999999999999
0.0866
0.0872
0.0866
0.08019999999999999
0.0745
0.08500000000000001
0.0955
0.1016
0.0997
0.0955
0.0911
0.09229999999999999
0.0987
0.1051
0.1051
0.1086
0.1143
0.1191
0.1201
0.1169
0.1111
0.1111
0.1303
0.1402
0.1414
0.1389
0.1382
0.1405
0.1443
0.1535
0.1571
0.1606
0.1653
0.1746
0.1819
0.1826
0.1771
0.1733
0.1797
0.1982
0.2077
0.2062
0.2062
0.2049
0.2068
0.2128
0.2208
0.2218
0.2256
0.2329
0.239
0.2419
0.2409
0.2377
0.2342
0.2441
0.2556
0.2645
0.2619
0.2578
0.2568
0.2575
0.261
0.2667
0.267
0.2706
0.2744
0.2773
0.2757
0.2725
0.2639
0.2591
0.2718
0.2788
0.2792
0.2706
0.2639
0.2604
0.2568
0.2597
0.2553
0.2514
0.2508
0.2514
0.247
0.2396
0.2304
0.2173
0.2125
0.2157
0.2183
0.2097
0.1975
0.1854
0.1759
0.1704
0.1692
0.1574
0.1507
0.1453
0.1382
0.1271
0.1172
0.1029
0.0882
0.08500000000000001
0.08309999999999999
0.07770000000000001
0.0646
0.0502
0.0391
0.0279
0.0216
0.0161
0.0031
-0.008399999999999999
-0.0122
-0.0106
-0.0275
-0.0368
-0.0531
-0.0658
-0.0585
-0.0591
-0.0668
-0.077
-0.08840000000000001
-0.097
-0.1022
-0.1031
-0.1085
-0.1124
-0.1178
-0.1194
-0.1251
-0.1305
-0.1404
-0.1509
-0.1554
-0.1449
-0.1426
-0.1487
-0.1564
-0.163
-0.1697
-0.1717
-0.1688
-0.1717
-0.171
-0.1694
-0.1717
-0.1755
-0.1739
-0.1854
-0.1943
-0.1863
-0.1768
-0.1752
-0.1815
-0.186
-0.1886
-0.1901
-0.1882
-0.1844
-0.185
-0.1809
-0.1784
-0.1755
-0.1825
-0.186
-0.1921
-0.1956
-0.1815
-0.1755
-0.1752
-0.1799
-0.1831
-0.1835
-0.1847
-0.1806
-0.178
-0.179
-0.1745
-0.1736
-0.1701
-0.1707
-0.1742
-0.1809
-0.1803
-0.1662
-0.1605
-0.1602
-0.1634
-0.1653
-0.1669
-0.1672
-0.1595
-0.1602
-0.1589
-0.1519
-0.1458
-0.1497
-0.1493
-0.1551
-0.1611
-0.1535
-0.1414
-0.1363
-0.1395
-0.1404
-0.1417
-0.1455
-0.1404
-0.1334
-0.1359
-0.135
-0.1238
-0.1235
-0.1206
-0.127
-0.1324
-0.1356
-0.1229
-0.1136
-0.112
-0.1139
-0.1181
-0.1213
-0.1194
-0.1124
-0.1095
-0.1092
-0.1037
-0.099
-0.0935
-0.0983
-0.1028
-0.1073
-0.1079
-0.0926
-0.0856
-0.08649999999999999
-0.0897
-0.091
-0.0907
-0.0897
-0.08459999999999999
-0.0849
-0.0827
-0.0779
-0.0795
-0.0722
-0.0747
-0.07920000000000001
-0.08649999999999999
-0.08110000000000001
-0.0699
-0.0617
-0.0655
-0.0703
-0.0731
-0.07539999999999999
-0.0706
-0.0636
-0.0658
-0.0636
-0.0578
-0.0527
-0.0562
-0.0601
-0.0677
-0.0735
-0.0597
-0.0518
-0.0492
-0.0537
-0.0582
-0.0594
-0.0613
-0.0575
-0.0559
-0.0559
-0.0546
-0.0537
-0.0511
-0.0502
-0.0559
-0.0645
-0.0645
-0.0499
-0.0438
-0.0489
-0.0534
-0.0559
-0.0575
-0.0572
-0.0515
-0.0524
-0.0505
-0.0467
-0.0489
-0.0428
-0.0483
-0.054
-0.0601
-0.0556
-0.0435
-0.0387
-0.0451
-0.0489
-0.0505
-0.0511
-0.0499
-0.0454
-0.048
-0.0499
-0.0406
-0.0438
-0.0425
-0.0457
-0.0527
-0.0585
-0.0457
-0.0377
-0.0368
-0.0428
-0.048
-0.0495
-0.0515
-0.0467
-0.0444
-0.0464
-0.0457
-0.0413
-0.0428
-0.0425
-0.048
-0.0585
-0.0607
-0.0476
-0.0397
-0.0425
-0.0467
-0.0502
-0.0521
-0.0531
-0.0489
-0.0505
-0.0505
-0.0464
-0.0464
-0.0422
-0.0438
-0.0531
-0.0588
-0.0527
-0.0454
-0.0387
-0.0413
-0.0467
-0.0505
-0.0543
-0.0515
-0.0464
-0.0492
-0.0511
-0.0451
-0.0448
-0.0432
-0.0486
-0.0566
-0.0633
-0.0521
-0.0444
-0.0435
-0.048
-0.0531
-0.0543
-0.0562
-0.0534
-0.0502
-0.0508
-0.0486
-0.0435
-0.0448
-0.0438
-0.0486
-0.0566
-0.0588
-0.0464
-0.0371
-0.04
-0.0464
-0.0492
-0.0492
-0.0502
-0.0448
-0.0467
-0.048
-0.0451
-0.0409
-0.0435
-0.0454
-0.0499
-0.0578
-0.0534
-0.0419
-0.0346
-0.0397
-0.0448
-0.0499
-0.0521
-0.0486
-0.0428
-0.0454
-0.0454
-0.0377
-0.0352
-0.0403
-0.0435
-0.0502
-0.0566
-0.0432
-0.0349
-0.0346
-0.0406
-0.0441
-0.0448
-0.047
-0.0435
-0.0403
-0.0403
-0.0406
-0.0314
-0.0339
-0.0374
-0.0406
-0.048
-0.0489
-0.0365
-0.0295
-0.032
-0.0358
-0.0384
-0.0432
-0.0438
-0.039
-0.0393
-0.0393
-0.0381
-0.032
-0.0311
-0.0355
-0.0432
-0.0515
-0.048
-0.0349
-0.0279
-0.0304
-0.0374
-0.0432
-0.0435
-0.04
-0.0339
-0.0352
-0.0349
-0.0346
-0.0288
-0.0291
-0.0317
-0.0362
-0.0425
-0.0301
-0.0212
-0.0177
-0.0221
-0.026
-0.0269
-0.0279
-0.024
-0.0186
-0.018
-0.0173
-0.0097
-0.0091
-0.0113
-0.0167
-0.0218
-0.0253
-0.0116
-0.0049
-0.0062
-0.0094
-0.0142
-0.0151
-0.0157
-0.01
-0.0113
-0.0097
-0.008699999999999999
-0.0033
-0.0011
-0.0033
-0.0106
-0.0199
-0.0164
-0.0024
0.0027
-0.002
-0.0059
-0.008399999999999999
-0.0113
-0.0097
-0.0046
-0.0062
-0.0055
-0.0011
0.0037
0.0021
-0.002
-0.008699999999999999
-0.0138
-0.004
0.005
0.0094
0.0056
0.0008
-0.0008
-0.0027
0.0008
0.0062
0.0056
0.0069
0.012
0.0149
0.0136
0.0114
0.0047
0.0034
0.0196
0.0298
0.0267
0.0225
0.0219
0.0235
0.0225
0.0308
0.0314
0.0308
0.0337
0.0413
0.0426
0.0413
0.0359
0.0273
0.0279
0.0404
0.048
0.0436
0.0372
0.0343
0.0334
0.0353
0.0394
0.0343
0.0346
0.04
0.042
0.0439
0.04
0.034
0.0289
0.0394
0.049
0.0515
0.0471
0.042
0.0416
0.0407
0.0439
0.0499
0.0483
0.0487
0.0506
0.0525
0.049
0.042
0.0324
0.0295
0.04
0.0458
0.0413
0.0321
0.0263
0.0222
0.0177
0.0206
0.018
0.0158
0.0149
0.0149
0.0152
0.008200000000000001
0.0005
-0.0094
-0.011
-0.002
0.0005
-0.0033
-0.0097
-0.0135
-0.0215
-0.0218
-0.0167
-0.0212
-0.024
-0.0218
-0.0199
-0.0231
-0.0263
-0.0355
-0.0435
-0.0355
-0.0269
-0.0224
-0.0272
-0.0349
-0.0409
-0.0448
-0.0406
-0.0371
-0.0381
-0.0384
-0.0377
-0.0314
-0.0371
-0.0441
-0.0499
-0.0521
-0.0381
-0.0339
-0.0333
-0.0384
-0.0416
-0.0419
-0.0441
-0.0397
-0.0397
-0.0387
-0.0381
-0.0326
-0.0301
-0.032
-0.0387
-0.0476
-0.0483
-0.0339
-0.0256
-0.0301
-0.0346
-0.0384
-0.0413
-0.0403
-0.0355
-0.0397
-0.0381
-0.0371
-0.0307
-0.0358
-0.0387
-0.0454
-0.0524
-0.0457
-0.0371
-0.0339
-0.0397
-0.0428
-0.0451
-0.0492
-0.0467
-0.039
-0.0384
-0.0339
-0.0253
-0.0173
-0.0119
-0.0106
-0.0094
0.0015
0.0286
0.0502
0.0694
0.0853
0.1025
0.1271
0.158
0.1905
0.2195
0.2495
0.2855
0.3206
0.3458
0.3633
0.3815
0.3962
0.4147
0.4434
0.4619
0.4663
0.4609
0.4513
0.4405
0.4316
0.4188
0.3984
0.3742
0.3592
0.3397
0.3066
0.2747
0.2399
0.2023
0.1781
0.1571
0.1341
0.1019
0.0716
0.0439
0.0161
-0.0017
-0.0148
-0.0333
-0.0467
-0.055
-0.0636
-0.08210000000000001
-0.09
-0.1053
-0.1136
-0.1028
-0.0983
-0.1022
-0.1076
-0.1104
-0.1117
-0.1114
-0.106
-0.1031
-0.1006
-0.0958
-0.091
-0.08459999999999999
-0.08110000000000001
-0.08649999999999999
-0.09229999999999999
-0.09
-0.0738
-0.0633
-0.0645
-0.0677
-0.0674
-0.0677
-0.06519999999999999
-0.0578
-0.0575
-0.0559
-0.0543
-0.046
-0.0502
-0.048
-0.0546
-0.0601
-0.0524
-0.0403
-0.0368
-0.0425
-0.0448
-0.0467
-0.0473
-0.0432
-0.0381
-0.0393
-0.0381
-0.033
-0.0326
-0.0304
-0.0346
-0.0403
-0.0448
-0.0298
-0.0205
-0.0193
-0.0244
-0.0263
-0.0282
-0.0272
-0.0202
-0.0205
-0.0215
-0.0161
-0.0138
-0.0119
-0.01
-0.0157
-0.0231
-0.0256
-0.01
-0.0008
-0.0049
-0.01
-0.0126
-0.0138
-0.0126
-0.008399999999999999
-0.0113
-0.0091
-0.0052
0.0018
0.0005
-0.002
-0.008699999999999999
-0.0161
-0.008399999999999999
0.0047
0.0104
0.0043
0.0015
-0.0014
-0.0017
0.0021
0.008200000000000001
0.0062
0.008500000000000001
0.0129
0.0165
0.0184
0.012
0.0047
-0.0017
0.012
0.0219
0.0241
0.019
0.0126
0.0114
0.011
0.0171
0.0196
0.0177
0.0209
0.026
0.0289
0.027
0.0238
0.0168
0.0152
0.0327
0.042
0.04
0.0372
0.0349
0.034
0.0359
0.0436
0.0436
0.0455
0.0512
0.0582
0.0579
0.0538
0.049
0.0436
0.0509
0.0636
0.0694
0.06619999999999999
0.0646
0.0624
0.0611
0.06519999999999999
0.0716
0.0716
0.07480000000000001
0.08210000000000001
0.0853
0.08690000000000001
0.08599999999999999
0.0809
0.07770000000000001
0.0936
0.1051
0.1086
0.1051
0.1048
0.1054
0.106
0.1156
0.1204
0.121
0.1242
0.1331
0.137
0.1395
0.1382
0.1322
0.1322
0.1491
0.1599
0.1612
0.1596
0.159
0.159
0.1637
0.1736
0.1746
0.1803
0.1883
0.1902
0.1966
0.1975
0.1963
0.1921
0.1991
0.2135
0.2227
0.2227
0.2208
0.2199
0.2208
0.224
0.2317
0.2326
0.2368
0.2419
0.2463
0.2482
0.2466
0.2403
0.2368
0.2492
0.2591
0.2623
0.2565
0.2546
0.2543
0.2527
0.2565
0.2604
0.26
0.2588
0.2626
0.2645
0.2616
0.2549
0.2441
0.2406
0.254
0.2584
0.254
0.2454
0.2377
0.2339
0.2297
0.2291
0.2224
0.2199
0.217
0.2164
0.2119
0.203
0.188
0.1733
0.1698
0.1733
0.1727
0.1606
0.1484
0.137
0.1245
0.1194
0.1156
0.1029
0.093
0.0882
0.0856
0.0742
0.0614
0.0467
0.0324
0.0337
0.0327
0.0267
0.0123
-0.0008
-0.008399999999999999
-0.0205
-0.024
-0.0295
-0.0413
-0.0492
-0.0457
-0.0515
-0.0617
-0.0735
-0.09
-0.09959999999999999
-0.08939999999999999
-0.09
-0.099
-0.1092
-0.1184
-0.1257
-0.1312
-0.1312
-0.1353
-0.1363
-0.1468
-0.1385
-0.1426
-0.1535
-0.1618
-0.1739
-0.1729
-0.165
-0.1608
-0.1678
-0.1748
-0.1803
-0.1854
-0.1857
-0.1828
-0.186
-0.1857
-0.1819
-0.179
-0.185
-0.1911
-0.1968
-0.2051
-0.1946
-0.1863
-0.1841
-0.1905
-0.1959
-0.1959
-0.1978
-0.1959
-0.1917
-0.1927
-0.1898
-0.1857
-0.1831
-0.1831
-0.1898
-0.1972
-0.2003
-0.1854
-0.1784
-0.179
-0.1831
-0.186
-0.1873
-0.187
-0.1815
-0.1815
-0.1806
-0.1707
-0.1758
-0.1726
-0.1752
-0.1784
-0.1841
-0.1806
-0.1675
-0.1621
-0.1662
-0.1688
-0.1694
-0.1704
-0.1697
-0.1666
-0.1662
-0.1592
-0.1551
-0.1599
-0.1579
-0.1599
-0.1675
-0.1729
-0.1624
-0.1532
-0.1506
-0.1554
-0.1586
-0.1595
-0.1608
-0.1567
-0.1525
-0.1509
-0.1471
-0.1442
-0.1407
-0.1398
-0.1455
-0.1528
-0.1557
-0.1372
-0.1277
-0.1286
-0.135
-0.1385
-0.1369
-0.1347
-0.1299
-0.1299
-0.1305
-0.1216
-0.1146
-0.1216
-0.1171
-0.1242
-0.1318
-0.128
-0.1127
-0.106
-0.1088
-0.112
-0.1146
-0.1162
-0.1124
-0.1041
-0.1073
-0.1063
-0.0974
-0.0945
-0.0919
-0.0948
-0.1025
-0.1069
-0.0951
-0.0837
-0.08019999999999999
-0.08400000000000001
-0.0868
-0.0868
-0.0853
-0.08210000000000001
-0.07729999999999999
-0.0776
-0.07539999999999999
-0.0699
-0.0655
-0.0629
-0.0674
-0.0725
-0.076
-0.0607
-0.0505
-0.0489
-0.054
-0.0543
-0.0534
-0.0524
-0.047
-0.0457
-0.0416
-0.0368
-0.0323
-0.0285
-0.0311
-0.0352
-0.0409
-0.0384
-0.0244
-0.0145
-0.0196
-0.0256
-0.0266
-0.0272
-0.024
-0.0202
-0.0215
-0.0186
-0.0164
-0.0116
-0.0122
-0.0154
-0.0224
-0.0279
-0.018
-0.008699999999999999
-0.0065
-0.0094
-0.0138
-0.0167
-0.0189
-0.0151
-0.0116
-0.0129
-0.011
-0.0078
-0.008699999999999999
-0.0081
-0.0126
-0.0212
-0.026
-0.0097
-0.002
-0.0049
-0.0122
-0.0142
-0.0151
-0.018
-0.0116
-0.0119
-0.0116
-0.01
-0.0052
-0.0033
-0.0065
-0.0106
-0.0199
-0.0186
-0.0046
0.0031
-0.0011
-0.0043
-0.0081
-0.0106
-0.0094
-0.0049
-0.0068
-0.004
-0.0004
0.0002
0.0005
-0.0059
-0.0129
-0.0215
-0.0129
-0.0046
-0.0004
-0.008399999999999999
-0.0138
-0.0167
-0.0196
-0.0167
-0.0138
-0.0151
-0.0161
-0.0145
-0.0081
-0.0103
-0.0173
-0.0253
-0.0304
-0.0164
-0.008399999999999999
-0.01
-0.0193
-0.0202
-0.0205
-0.0247
-0.0215
-0.0218
-0.0218
-0.0224
-0.0145
-0.0151
-0.0202
-0.0269
-0.0355
-0.0346
-0.0205
-0.0142
-0.0193
-0.0269
-0.0269
-0.0285
-0.0272
-0.0256
-0.0275
-0.0247
-0.0189
-0.0221
-0.0189
-0.0244
-0.0311
-0.0377
-0.0295
-0.0196
-0.017
-0.0253
-0.0288
-0.0298
-0.0311
-0.0285
-0.0244
-0.0275
-0.0256
-0.0266
-0.0183
-0.0218
-0.0269
-0.0346
-0.0387
-0.025
-0.017
-0.0167
-0.0224
-0.0279
-0.0295
-0.0304
-0.0253
-0.0244
-0.0231
-0.0228
-0.0157
-0.0196
-0.0202
-0.0253
-0.0349
-0.0349
-0.0205
-0.0142
-0.017
-0.0237
-0.0298
-0.0311
-0.0307
-0.026
-0.0291
-0.0266
-0.025
-0.0209
-0.025
-0.0275
-0.0355
-0.0432
-0.0362
-0.025
-0.0205
-0.026
-0.0317
-0.0342
-0.0371
-0.0339
-0.0279
-0.0291
-0.0285
-0.0215
-0.0202
-0.0247
-0.0269
-0.032
-0.0368
-0.026
-0.0173
-0.0154
-0.0196
-0.0237
-0.0231
-0.0234
-0.0164
-0.0129
-0.0119
-0.008699999999999999
-0.0017
0.0031
0.0015
-0.0036
-0.0081
-0.0065
0.0104
0.0187
0.0171
0.0142
0.0117
0.011
0.0107
0.0171
0.0161
0.018
0.0225
0.0289
0.0302
0.0251
0.0171
0.0094
0.0187
0.0311
0.0375
0.0311
0.0289
0.0282
0.0267
0.0305
0.0375
0.0359
0.0356
0.041
0.0455
0.0429
0.0388
0.0349
0.0311
0.0426
0.0509
0.0515
0.0445
0.0397
0.0378
0.0343
0.0381
0.0394
0.0359
0.0369
0.0372
0.0353
0.0337
0.0263
0.0149
0.0094
0.0241
0.0273
0.0206
0.0129
0.0059
-0.0001
-0.0008
0.0008
-0.004
-0.0036
-0.0052
-0.0024
-0.0068
-0.0091
-0.017
-0.026
-0.0234
-0.0135
-0.0081
-0.0132
-0.0196
-0.0218
-0.0247
-0.0244
-0.0199
-0.0237
-0.0247
-0.0167
-0.0126
-0.0157
-0.0221
-0.0282
-0.0339
-0.0209
-0.0154
-0.0145
-0.0186
-0.0228
-0.024
-0.0263
-0.024
-0.0212
-0.0221
-0.0183
-0.0145
-0.0116
-0.0135
-0.0193
-0.0269
-0.0282
-0.0135
-0.0059
-0.0078
-0.0116
-0.0142
-0.0135
-0.017
-0.0091
-0.0097
-0.008399999999999999
-0.0081
-0.0027
-0.0017
-0.0049
-0.0103
-0.0189
-0.0129
-0.002
0.0034
-0.004
-0.0091
-0.011
-0.0154
-0.0151
-0.0094
-0.0119
-0.0094
-0.0071
-0.0055
-0.0049
-0.0097
-0.017
-0.0202
-0.0052
0.0056
0.0133
0.0133
0.0139
0.0196
0.0289
0.0467
0.0633
0.07729999999999999
0.0949
0.1198
0.1443
0.1695
0.1902
0.2097
0.2377
0.2846
0.3222
0.3535
0.371
0.3857
0.4092
0.4316
0.4536
0.4679
0.4813
0.4918
0.4979
0.4931
0.48
0.4603
0.4373
0.4239
0.4147
0.3974
0.3675
0.3334
0.3021
0.2718
0.2428
0.2199
0.1861
0.1574
0.1351
0.1105
0.0936
0.0598
0.0349
0.0098
0.0043
-0.002
-0.0129
-0.0295
-0.0435
-0.0511
-0.0591
-0.0623
-0.0633
-0.0674
-0.06900000000000001
-0.0597
-0.0585
-0.0604
-0.0633
-0.0696
-0.0722
-0.054
-0.0422
-0.0416
-0.0438
-0.0435
-0.0409
-0.0381
-0.0307
-0.0285
-0.025
-0.018
-0.01
-0.0062
-0.0062
-0.0119
-0.018
-0.0094
0.0059
0.0133
0.0098
0.0072
0.0066
0.0056
0.0094
0.0171
0.0136
0.0168
0.0231
0.0289
0.0267
0.0254
0.0184
0.0104
0.0222
0.0346
0.0385
0.0327
0.0305
0.0308
0.0279
0.0321
0.0359
0.0369
0.0388
0.0455
0.0477
0.0467
0.0423
0.0356
0.0346
0.0502
0.0589
0.0566
0.0534
0.0502
0.0496
0.0502
0.055
0.0538
0.0547
0.0592
0.06519999999999999
0.0665
0.0646
0.0582
0.0502
0.0534
0.07000000000000001
0.07829999999999999
0.0722
0.06710000000000001
0.0665
0.0659
0.0684
0.0738
0.0707
0.0732
0.07829999999999999
0.0824
0.0828
0.0796
0.07099999999999999
0.063
0.0751
0.0847
0.0876
0.08210000000000001
0.07729999999999999
0.0767
0.07539999999999999
0.0786
0.0837
0.0818
0.0834
0.0882
0.0939
0.093
0.08690000000000001
0.0793
0.078
0.09710000000000001
0.1051
0.1019
0.09710000000000001
0.0936
0.0949
0.0958
0.1016
0.1029
0.1051
0.1064
0.1102
0.1131
0.1108
0.1076
0.0997
0.1029
0.1175
0.1249
0.1207
0.1185
0.1166
0.1162
0.1194
0.1287
0.1268
0.1255
0.1328
0.1392
0.1411
0.1389
0.1341
0.1287
0.1418
0.1526
0.1561
0.1551
0.1551
0.1555
0.1548
0.1602
0.1682
0.1714
0.1752
0.1822
0.1889
0.1921
0.1905
0.1851
0.1848
0.203
0.2157
0.2189
0.2138
0.2138
0.2164
0.2192
0.2262
0.2288
0.2317
0.2364
0.2444
0.2495
0.2489
0.2444
0.2371
0.2438
0.2597
0.2696
0.267
0.2645
0.2658
0.2655
0.269
0.2776
0.2776
0.2804
0.2862
0.2916
0.2929
0.2919
0.2859
0.2827
0.2929
0.3031
0.3082
0.305
0.3008
0.2996
0.2989
0.304
0.3082
0.3079
0.3098
0.3152
0.3155
0.3136
0.3091
0.3015
0.2967
0.3091
0.3165
0.3146
0.3069
0.3012
0.2961
0.2929
0.2954
0.2932
0.2897
0.2878
0.2881
0.2868
0.2804
0.2693
0.2556
0.2505
0.26
0.2619
0.2527
0.239
0.2288
0.2195
0.2132
0.2122
0.2017
0.1947
0.1912
0.1877
0.1736
0.1609
0.1459
0.1306
0.1306
0.1325
0.1258
0.1095
0.0974
0.0866
0.0716
0.0668
0.06519999999999999
0.0541
0.0464
0.0385
0.0349
0.0276
0.012
-0.0043
-0.0164
-0.0106
-0.0116
-0.0186
-0.0304
-0.0438
-0.0518
-0.0597
-0.0623
-0.0696
-0.0738
-0.0814
-0.0808
-0.0872
-0.09229999999999999
-0.1034
-0.1181
-0.121
-0.1127
-0.1101
-0.1178
-0.1261
-0.1324
-0.1379
-0.1407
-0.1385
-0.1439
-0.1477
-0.1391
-0.1455
-0.1436
-0.1465
-0.1589
-0.1678
-0.1608
-0.1513
-0.1493
-0.1548
-0.1592
-0.1618
-0.1656
-0.1637
-0.1583
-0.1605
-0.1624
-0.1554
-0.1519
-0.1516
-0.1611
-0.1675
-0.172
-0.1592
-0.1519
-0.1516
-0.1564
-0.1592
-0.1599
-0.1618
-0.1573
-0.1532
-0.1519
-0.1516
-0.1493
-0.1388
-0.1433
-0.1493
-0.1567
-0.1548
-0.1391
-0.1308
-0.1331
-0.1369
-0.1385
-0.1404
-0.1375
-0.1312
-0.1321
-0.1324
-0.1242
-0.1238
-0.1168
-0.121
-0.1286
-0.1347
-0.1248
-0.113
-0.1095
-0.1143
-0.1155
-0.1155
-0.1181
-0.1149
-0.1101
-0.1104
-0.1053
-0.09959999999999999
-0.0977
-0.1015
-0.1057
-0.1114
-0.1149
-0.0983
-0.09039999999999999
-0.0888
-0.0935
-0.09669999999999999
-0.0964
-0.0961
-0.09
-0.0868
-0.08649999999999999
-0.083
-0.07539999999999999
-0.0703
-0.0751
-0.08169999999999999
-0.0856
-0.0837
-0.06900000000000001
-0.061
-0.06419999999999999
-0.0658
-0.0687
-0.0696
-0.0674
-0.0648
-0.0658
-0.0623
-0.0601
-0.0572
-0.0511
-0.0559
-0.0636
-0.0709
-0.0623
-0.0492
-0.0435
-0.0492
-0.0546
-0.0572
-0.0575
-0.0534
-0.047
-0.0499
-0.0486
-0.0409
-0.0374
-0.039
-0.0441
-0.054
-0.0582
-0.0422
-0.033
-0.0336
-0.0403
-0.0438
-0.0438
-0.0438
-0.0413
-0.04
-0.04
-0.0397
-0.0355
-0.0291
-0.032
-0.039
-0.0483
-0.0489
-0.0346
-0.0263
-0.0291
-0.0355
-0.0397
-0.0397
-0.0406
-0.0362
-0.0377
-0.0346
-0.032
-0.0333
-0.0272
-0.0314
-0.0368
-0.0464
-0.0413
-0.0288
-0.0237
-0.0266
-0.0291
-0.0317
-0.0349
-0.032
-0.0253
-0.026
-0.0256
-0.0244
-0.0173
-0.0189
-0.0244
-0.0317
-0.0371
-0.0231
-0.0161
-0.0148
-0.0205
-0.025
-0.0282
-0.0307
-0.0272
-0.024
-0.025
-0.0256
-0.0167
-0.0205
-0.0212
-0.026
-0.0358
-0.0371
-0.0231
-0.0157
-0.018
-0.0253
-0.0285
-0.0301
-0.0301
-0.026
-0.0279
-0.0272
-0.0231
-0.0244
-0.0205
-0.0253
-0.0307
-0.0387
-0.0349
-0.024
-0.0189
-0.0224
-0.0275
-0.0291
-0.0314
-0.0307
-0.024
-0.0253
-0.0237
-0.0189
-0.0202
-0.017
-0.0228
-0.0301
-0.0355
-0.0234
-0.0148
-0.0142
-0.0202
-0.0253
-0.025
-0.0291
-0.0253
-0.0231
-0.0215
-0.0196
-0.0215
-0.0167
-0.0199
-0.025
-0.0333
-0.0346
-0.0199
-0.0129
-0.0167
-0.0224
-0.0256
-0.0269
-0.0256
-0.0215
-0.0221
-0.0205
-0.0173
-0.0154
-0.0154
-0.0177
-0.025
-0.0311
-0.025
-0.0135
-0.0078
-0.0122
-0.0173
-0.0199
-0.0224
-0.0199
-0.0151
-0.0183
-0.0173
-0.0164
-0.0106
-0.0129
-0.0151
-0.0228
-0.0291
-0.0177
-0.0091
-0.0078
-0.0145
-0.0177
-0.0199
-0.0228
-0.0167
-0.0142
-0.0138
-0.0122
-0.0122
-0.0075
-0.0068
-0.01
-0.0199
-0.0231
-0.0065
0.0005
0.0002
-0.0046
-0.0065
-0.0097
-0.0091
-0.0017
-0.0024
0.0002
0.0047
0.0094
0.0117
0.0098
0.0069
0.0011
0.008200000000000001
0.0241
0.0327
0.0289
0.0267
0.0273
0.0267
0.0311
0.0391
0.0381
0.0397
0.0451
0.0477
0.0474
0.0436
0.0388
0.0321
0.0416
0.0502
0.0528
0.0477
0.0423
0.0391
0.0375
0.0432
0.0464
0.0464
0.0499
0.0553
0.0569
0.0531
0.049
0.0423
0.0423
0.0582
0.06619999999999999
0.06270000000000001
0.0576
0.0547
0.0541
0.0525
0.0544
0.0528
0.0534
0.0528
0.0553
0.0528
0.049
0.0407
0.0298
0.0295
0.0394
0.0432
0.0353
0.0292
0.0241
0.0168
0.0155
0.0177
0.0126
0.0107
0.0171
0.0104
0.0072
0.0008
-0.0075
-0.0148
-0.0052
-0.0017
-0.002
-0.008399999999999999
-0.0135
-0.0183
-0.0215
-0.0202
-0.0177
-0.0209
-0.0228
-0.0154
-0.0157
-0.0199
-0.0253
-0.0336
-0.04
-0.0266
-0.0183
-0.0205
-0.0269
-0.0326
-0.0368
-0.0362
-0.0314
-0.033
-0.0352
-0.0339
-0.0307
-0.0275
-0.032
-0.0406
-0.048
-0.0428
-0.0304
-0.025
-0.0304
-0.0336
-0.0368
-0.0416
-0.039
-0.0326
-0.0349
-0.0336
-0.033
-0.0256
-0.0266
-0.032
-0.039
-0.0464
-0.0342
-0.025
-0.0234
-0.0272
-0.0317
-0.0362
-0.0409
-0.0377
-0.033
-0.0365
-0.039
-0.0301
-0.0307
-0.0323
-0.0425
-0.0515
-0.055
-0.0409
-0.0323
-0.0346
-0.039
-0.0384
-0.0384
-0.0349
-0.0256
-0.0212
-0.0135
-0.0017
0.0149
0.0289
0.0432
0.0538
0.0633
0.0863
0.1223
0.1545
0.1778
0.2042
0.2307
0.2578
0.2922
0.3276
0.3452
0.3662
0.3923
0.4188
0.4322
0.4402
0.444
0.4434
0.4504
0.4529
0.4459
0.4249
0.4003
0.3796
0.3557
0.334
0.3098
0.2788
0.2495
0.2275
0.1909
0.1596
0.1315
0.0882
0.0605
0.0496
0.0324
0.0072
-0.0202
-0.0428
-0.0588
-0.0738
-0.08400000000000001
-0.0945
-0.1009
-0.1034
-0.1057
-0.1136
-0.1159
-0.1238
-0.1324
-0.1308
-0.1159
-0.1073
-0.1079
-0.1104
-0.112
-0.1101
-0.1057
-0.098
-0.0977
-0.0926
-0.08459999999999999
-0.07539999999999999
-0.0757
-0.077
-0.0805
-0.08400000000000001
-0.0722
-0.0613
-0.0546
-0.0553
-0.0582
-0.0594
-0.0604
-0.0556
-0.0473
-0.0467
-0.0438
-0.0393
-0.0355
-0.0352
-0.0374
-0.0432
-0.0473
-0.0311
-0.0234
-0.0215
-0.0237
-0.0253
-0.0272
-0.0279
-0.0221
-0.0202
-0.0196
-0.017
-0.0091
-0.0078
-0.01
-0.0164
-0.0228
-0.0212
-0.0071
0.0002
-0.0036
-0.0071
-0.0094
-0.0106
-0.0091
-0.0024
-0.003
-0.0024
0.0031
0.0075
0.008200000000000001
0.0059
-0.0011
-0.0078
0.0018
0.0129
0.02
0.0142
0.0098
0.0091
0.0062
0.0104
0.0168
0.0161
0.0139
0.0193
0.026
0.0225
0.019
0.0114
0.0075
0.0238
0.0308
0.0302
0.0225
0.02
0.02
0.0193
0.0251
0.0244
0.0238
0.0254
0.0308
0.0337
0.0314
0.0267
0.0174
0.0177
0.034
0.0404
0.0375
0.0334
0.0302
0.0305
0.033
0.04
0.0385
0.0404
0.0436
0.0493
0.0496
0.0474
0.0423
0.0381
0.0467
0.0605
0.0646
0.0601
0.0579
0.0569
0.055
0.0611
0.0678
0.06809999999999999
0.0697
0.07539999999999999
0.0799
0.0809
0.07770000000000001
0.0735
0.0678
0.08309999999999999
0.0949
0.0965
0.0936
0.0901
0.0917
0.0927
0.1006
0.1041
0.106
0.1089
0.1169
0.1194
0.1194
0.1175
0.1121
0.115
0.1325
0.1418
0.1414
0.1398
0.1402
0.1411
0.144
0.1523
0.1542
0.1583
0.165
0.173
0.1755
0.1759
0.172
0.1682
0.1787
0.1931
0.2014
0.1995
0.1975
0.1995
0.1985
0.2055
0.2132
0.2148
0.2205
0.2278
0.2339
0.2368
0.2342
0.2297
0.2282
0.2457
0.2559
0.2588
0.2562
0.2559
0.2575
0.2588
0.2632
0.268
0.2712
0.2728
0.2801
0.2833
0.2811
0.2769
0.2709
0.2747
0.2887
0.2932
0.2919
0.2887
0.2846
0.283
0.2846
0.2871
0.2839
0.2849
0.2865
0.2865
0.2849
0.2785
0.267
0.2581
0.2607
0.2677
0.2677
0.2568
0.2492
0.2422
0.2339
0.2307
0.2282
0.2192
0.2135
0.2116
0.2065
0.1982
0.1873
0.1714
0.1561
0.1599
0.1599
0.1523
0.1376
0.1258
0.1143
0.1009
0.0958
0.09039999999999999
0.0815
0.0732
0.0694
0.0592
0.0502
0.0327
0.0174
0.0075
0.0139
0.012
0.0002
-0.0129
-0.0266
-0.0355
-0.0425
-0.0444
-0.0543
-0.0582
-0.0668
-0.0639
-0.07539999999999999
-0.0814
-0.0974
-0.1088
-0.1073
-0.1012
-0.1015
-0.1114
-0.121
-0.1264
-0.1331
-0.134
-0.1318
-0.1372
-0.1388
-0.1363
-0.1382
-0.1414
-0.1522
-0.1605
-0.1678
-0.156
-0.15
-0.1516
-0.1592
-0.164
-0.1662
-0.1713
-0.1704
-0.1659
-0.1662
-0.1634
-0.1688
-0.1621
-0.1688
-0.1717
-0.1806
-0.1825
-0.1666
-0.1602
-0.163
-0.1678
-0.1726
-0.1729
-0.1717
-0.164
-0.1666
-0.1675
-0.164
-0.1592
-0.1573
-0.1615
-0.1653
-0.172
-0.1666
-0.1535
-0.1481
-0.1525
-0.1548
-0.1586
-0.1618
-0.1595
-0.1519
-0.1544
-0.1554
-0.1468
-0.1426
-0.1452
-0.1465
-0.1528
-0.1573
-0.1442
-0.1353
-0.1334
-0.1359
-0.1395
-0.1398
-0.1391
-0.1334
-0.1283
-0.1286
-0.1318
-0.1254
-0.1184
-0.1197
-0.1213
-0.128
-0.1293
-0.1127
-0.1037
-0.1041
-0.1104
-0.1124
-0.1127
-0.1124
-0.1041
-0.1037
-0.1002
-0.0958
-0.0961
-0.09229999999999999
-0.0907
-0.0993
-0.1076
-0.099
-0.0862
-0.07820000000000001
-0.08169999999999999
-0.0856
-0.0897
-0.091
-0.08649999999999999
-0.07920000000000001
-0.08210000000000001
-0.07820000000000001
-0.07630000000000001
-0.0674
-0.0699
-0.0728
-0.0805
-0.0843
-0.0706
-0.0613
-0.0578
-0.062
-0.0658
-0.0664
-0.0674
-0.0623
-0.0575
-0.0575
-0.0597
-0.0531
-0.0492
-0.0495
-0.054
-0.0633
-0.0655
-0.0502
-0.0406
-0.0438
-0.0492
-0.0518
-0.0537
-0.0534
-0.047
-0.048
-0.0499
-0.0502
-0.0397
-0.0381
-0.0435
-0.0508
-0.0582
-0.0537
-0.0416
-0.0368
-0.0432
-0.047
-0.047
-0.0505
-0.0502
-0.0441
-0.0476
-0.0438
-0.0435
-0.0365
-0.04
-0.0432
-0.0515
-0.0588
-0.0473
-0.0409
-0.0381
-0.0432
-0.048
-0.0508
-0.054
-0.0508
-0.047
-0.0499
-0.0486
-0.0435
-0.0438
-0.0464
-0.0518
-0.062
-0.06610000000000001
-0.0518
-0.0448
-0.0489
-0.0553
-0.0582
-0.0594
-0.0604
-0.0572
-0.0582
-0.0594
-0.0559
-0.0531
-0.0559
-0.0566
-0.0629
-0.07190000000000001
-0.06900000000000001
-0.0566
-0.0518
-0.0582
-0.0633
-0.0648
-0.0684
-0.06710000000000001
-0.0613
-0.0648
-0.0645
-0.0572
-0.0537
-0.0553
-0.0623
-0.0712
-0.0786
-0.0645
-0.0566
-0.0562
-0.0629
-0.06610000000000001
-0.0674
-0.0693
-0.0677
-0.06519999999999999
-0.0677
-0.0703
-0.062
-0.0617
-0.0617
-0.0648
-0.0751
-0.07920000000000001
-0.0639
-0.0569
-0.0594
-0.06519999999999999
-0.0687
-0.0706
-0.0712
-0.0664
-0.06519999999999999
-0.0626
-0.0607
-0.062
-0.0582
-0.062
-0.0687
-0.077
-0.0738
-0.0607
-0.054
-0.0604
-0.0655
-0.0684
-0.0709
-0.0677
-0.0639
-0.06610000000000001
-0.0658
-0.0582
-0.0607
-0.0648
-0.0633
-0.0712
-0.0789
-0.0677
-0.0597
-0.0572
-0.0617
-0.0658
-0.0684
-0.0722
-0.0699
-0.0658
-0.0668
-0.0645
-0.0617
-0.0559
-0.0623
-0.0655
-0.0735
-0.07820000000000001
-0.0636
-0.0556
-0.0553
-0.0626
-0.0684
-0.0684
-0.0658
-0.0613
-0.0626
-0.0636
-0.0585
-0.0524
-0.0534
-0.0585
-0.0633
-0.0699
-0.0703
-0.0591
-0.0508
-0.055
-0.0613
-0.0633
-0.06419999999999999
-0.0633
-0.0569
-0.0607
-0.0623
-0.0546
-0.0505
-0.0553
-0.0572
-0.0636
-0.0693
-0.0591
-0.0499
-0.046
-0.0511
-0.055
-0.0556
-0.0566
-0.054
-0.0483
-0.0489
-0.0473
-0.0403
-0.0377
-0.0381
-0.0422
-0.0492
-0.0508
-0.0336
-0.0234
-0.0231
-0.0256
-0.0282
-0.0263
-0.0244
-0.0161
-0.0135
-0.0106
-0.0046
0.0015
0.0059
0.0031
-0.0014
-0.0078
-0.0043
0.0114
0.0206
0.0177
0.011
0.0066
0.0043
0.0059
0.0145
0.0101
0.0104
0.0152
0.0184
0.0174
0.0142
0.008200000000000001
0.0005
0.0104
0.0206
0.0267
0.0212
0.0171
0.0161
0.0139
0.018
0.0238
0.0206
0.0209
0.0273
0.0305
0.0289
0.0238
0.0161
0.0101
0.0228
0.0292
0.0276
0.0219
0.0161
0.0133
0.0091
0.0129
0.0098
0.0075
0.0072
0.0098
0.0101
0.0027
-0.0027
-0.0122
-0.017
-0.0075
-0.003
-0.0078
-0.0129
-0.0196
-0.0247
-0.0266
-0.0228
-0.025
-0.0253
-0.0244
-0.024
-0.0263
-0.0311
-0.0406
-0.0499
-0.0409
-0.0333
-0.0288
-0.0346
-0.0416
-0.0457
-0.0486
-0.0454
-0.0406
-0.0432
-0.0435
-0.0365
-0.0393
-0.04
-0.0454
-0.0521
-0.0566
-0.0435
-0.0365
-0.0346
-0.04
-0.0448
-0.0473
-0.0483
-0.0438
-0.0413
-0.0413
-0.0416
-0.0358
-0.0342
-0.039
-0.0425
-0.0499
-0.0502
-0.0355
-0.0285
-0.0323
-0.0368
-0.039
-0.04
-0.0387
-0.0362
-0.0365
-0.0323
-0.0307
-0.025
-0.0291
-0.0301
-0.0358
-0.0457
-0.0384
-0.0266
-0.0221
-0.0307
-0.0362
-0.0374
-0.0387
-0.0355
-0.033
-0.0355
-0.0336
-0.0285
-0.0224
-0.0205
-0.0196
-0.0218
-0.0205
0.0008
0.0171
0.0282
0.0353
0.0467
0.0646
0.08210000000000001
0.1073
0.1303
0.1561
0.1851
0.2164
0.2502
0.2779
0.3024
0.3254
0.3506
0.3841
0.4112
0.4271
0.4386
0.4472
0.4583
0.4666
0.4733
0.4647
0.4555
0.4469
0.4303
0.4112
0.3828
0.3582
0.3222
0.2996
0.2811
0.2553
0.2192
0.1857
0.1545
0.1233
0.0984
0.0767
0.0471
0.0311
0.0145
-0.0046
-0.0196
-0.0448
-0.0623
-0.07820000000000001
-0.07539999999999999
-0.0757
-0.08110000000000001
-0.0897
-0.0977
-0.09959999999999999
-0.1022
-0.1002
-0.0951
-0.09320000000000001
-0.09
-0.08110000000000001
-0.0789
-0.0786
-0.08169999999999999
-0.0859
-0.0827
-0.0639
-0.0534
-0.0556
-0.0566
-0.0566
-0.0553
-0.0511
-0.0448
-0.0444
-0.0406
-0.0377
-0.0295
-0.0253
-0.0282
-0.0339
-0.0387
-0.0295
-0.0161
-0.0097
-0.0142
-0.0154
-0.018
-0.0183
-0.0142
-0.0075
-0.0068
-0.0049
-0.0011
0.0034
0.0053
0.0031
-0.0049
-0.0081
0.005
0.0139
0.0158
0.0107
0.008800000000000001
0.008500000000000001
0.0069
0.012
0.0161
0.0158
0.018
0.0235
0.0267
0.0231
0.0177
0.0133
0.0133
0.0276
0.0353
0.0343
0.0302
0.0267
0.027
0.0289
0.034
0.033
0.0353
0.04
0.0458
0.0467
0.0455
0.0391
0.0305
0.0378
0.0509
0.0563
0.0528
0.049
0.0467
0.0455
0.0474
0.0541
0.0515
0.0525
0.0592
0.062
0.0614
0.0573
0.0499
0.0445
0.0598
0.0687
0.0707
0.06710000000000001
0.0646
0.0617
0.0614
0.0659
0.0707
0.07000000000000001
0.0716
0.078
0.0824
0.0809
0.07480000000000001
0.0665
0.0675
0.08210000000000001
0.0898
0.0885
0.0844
0.0818
0.0799
0.08119999999999999
0.08690000000000001
0.08599999999999999
0.0895
0.0936
0.0974
0.099
0.0987
0.093
0.0863
0.0949
0.1095
0.1153
0.1124
0.108
0.1086
0.1083
0.1131
0.122
0.1191
0.122
0.1284
0.1335
0.1344
0.1319
0.1277
0.1233
0.1373
0.1472
0.1513
0.1488
0.1465
0.1469
0.1475
0.1551
0.159
0.1602
0.1647
0.1724
0.1778
0.1768
0.1752
0.172
0.1727
0.1902
0.1995
0.2011
0.1985
0.1985
0.2011
0.2046
0.2144
0.2167
0.2211
0.2285
0.2355
0.2396
0.2412
0.2387
0.2352
0.2431
0.2591
0.2696
0.2693
0.269
0.2683
0.2677
0.2741
0.2839
0.2852
0.2897
0.2977
0.3031
0.3021
0.3002
0.297
0.2929
0.3063
0.3158
0.32
0.3161
0.3126
0.3126
0.3107
0.3146
0.3187
0.3184
0.3174
0.3209
0.3244
0.3225
0.3171
0.3085
0.3012
0.3146
0.3203
0.3161
0.3088
0.3012
0.297
0.2919
0.2935
0.2887
0.2836
0.282
0.2814
0.2766
0.2664
0.2537
0.2384
0.2348
0.2403
0.2409
0.2272
0.2138
0.2033
0.1924
0.1864
0.1845
0.1708
0.1618
0.1602
0.1523
0.1427
0.1261
0.1099
0.0949
0.09710000000000001
0.0955
0.08690000000000001
0.0732
0.0598
0.0464
0.0343
0.0289
0.0222
0.0133
0.008200000000000001
-0.0001
-0.0046
-0.0189
-0.0285
-0.047
-0.0569
-0.0483
-0.0489
-0.0591
-0.0722
-0.08459999999999999
-0.09
-0.0951
-0.097
-0.105
-0.1104
-0.1114
-0.1165
-0.1143
-0.1257
-0.134
-0.1487
-0.1481
-0.1385
-0.135
-0.1439
-0.1493
-0.1544
-0.1634
-0.1643
-0.1602
-0.1637
-0.1621
-0.1624
-0.1621
-0.1599
-0.163
-0.1745
-0.1838
-0.1732
-0.1653
-0.1637
-0.1694
-0.1745
-0.1774
-0.1806
-0.1787
-0.1748
-0.1774
-0.1745
-0.1748
-0.172
-0.1784
-0.1815
-0.1911
-0.1933
-0.1819
-0.1745
-0.1745
-0.179
-0.1825
-0.1857
-0.186
-0.1799
-0.1799
-0.1787
-0.1717
-0.1653
-0.1666
-0.1672
-0.1732
-0.1799
-0.1755
-0.1583
-0.1481
-0.1532
-0.1589
-0.1592
-0.1586
-0.1528
-0.1455
-0.1474
-0.1436
-0.1398
-0.1308
-0.1315
-0.1353
-0.1404
-0.1455
-0.1334
-0.1238
-0.1181
-0.1226
-0.1267
-0.1267
-0.1267
-0.1226
-0.1181
-0.1184
-0.1187
-0.1108
-0.1098
-0.1104
-0.113
-0.1187
-0.1213
-0.1066
-0.0993
-0.1002
-0.105
-0.1079
-0.1079
-0.1082
-0.1028
-0.1031
-0.1025
-0.09959999999999999
-0.0939
-0.0888
-0.0907
-0.09859999999999999
-0.1041
-0.1006
-0.08749999999999999
-0.0776
-0.0798
-0.0849
-0.0881
-0.0888
-0.08459999999999999
-0.076
-0.077
-0.0741
-0.0668
-0.0636
-0.0633
-0.0664
-0.0693
-0.0735
-0.0623
-0.0508
-0.046
-0.0508
-0.0534
-0.0534
-0.0543
-0.0489
-0.0448
-0.0451
-0.0425
-0.0342
-0.0355
-0.0365
-0.039
-0.046
-0.0492
-0.0333
-0.0272
-0.0275
-0.0314
-0.0336
-0.0339
-0.0346
-0.0304
-0.0304
-0.0291
-0.0253
-0.0202
-0.017
-0.0189
-0.0272
-0.0333
-0.0307
-0.0183
-0.008399999999999999
-0.0122
-0.0173
-0.0215
-0.0234
-0.0199
-0.0145
-0.0177
-0.0157
-0.0119
-0.008399999999999999
-0.0097
-0.0116
-0.0202
-0.0272
-0.0164
-0.0078
-0.0036
-0.008699999999999999
-0.0142
-0.0173
-0.0196
-0.0173
-0.0135
-0.0151
-0.0148
-0.008699999999999999
-0.01
-0.0116
-0.0164
-0.024
-0.0275
-0.0145
-0.008399999999999999
-0.01
-0.0151
-0.0205
-0.0202
-0.0221
-0.0186
-0.0173
-0.0167
-0.0151
-0.011
-0.0135
-0.0167
-0.0215
-0.0317
-0.0298
-0.0161
-0.01
-0.0148
-0.0196
-0.025
-0.0279
-0.0272
-0.0218
-0.0244
-0.0224
-0.018
-0.0177
-0.0167
-0.0209
-0.0291
-0.0352
-0.0266
-0.0164
-0.0129
-0.0177
-0.0224
-0.0247
-0.0272
-0.0253
-0.0205
-0.0221
-0.0224
-0.0202
-0.017
-0.018
-0.0234
-0.0307
-0.0352
-0.0205
-0.0135
-0.0151
-0.0228
-0.026
-0.0269
-0.0269
-0.0218
-0.0215
-0.0228
-0.0221
-0.0154
-0.0145
-0.0189
-0.0266
-0.0358
-0.0346
-0.0205
-0.0126
-0.0177
-0.0215
-0.0272
-0.0291
-0.0285
-0.0224
-0.0275
-0.026
-0.0231
-0.0151
-0.0173
-0.024
-0.0304
-0.0381
-0.0317
-0.0221
-0.0177
-0.0234
-0.0272
-0.0314
-0.0336
-0.0301
-0.0269
-0.0291
-0.0269
-0.0256
-0.0212
-0.0215
-0.0269
-0.0352
-0.04
-0.025
-0.0164
-0.0161
-0.0228
-0.0263
-0.0279
-0.0285
-0.025
-0.0215
-0.0199
-0.0189
-0.0148
-0.0151
-0.0161
-0.0202
-0.0288
-0.0298
-0.0151
-0.0065
-0.0103
-0.0151
-0.0173
-0.0196
-0.0186
-0.0119
-0.0142
-0.0135
-0.0097
-0.0049
-0.0036
-0.0065
-0.0135
-0.0189
-0.0094
-0.0001
0.0056
0.0018
-0.0011
-0.0024
-0.008699999999999999
-0.0043
0.0034
0.0018
0.0021
0.0021
0.0069
0.0056
0.0018
-0.0065
-0.0119
0.0027
0.008200000000000001
0.0078
0.0018
-0.0046
-0.0046
-0.0062
-0.0011
-0.0033
-0.004
-0.0027
0.0034
0.0037
-0.002
-0.0081
-0.0167
-0.0212
-0.0071
0.0002
-0.0046
-0.011
-0.0161
-0.0173
-0.0173
-0.0138
-0.0196
-0.0177
-0.0173
-0.01
-0.0145
-0.0186
-0.0275
-0.0368
-0.0301
-0.0196
-0.0164
-0.025
-0.0291
-0.032
-0.0384
-0.0362
-0.0304
-0.033
-0.0381
-0.0311
-0.0304
-0.033
-0.0409
-0.0489
-0.0537
-0.0409
-0.0362
-0.0362
-0.0409
-0.0467
-0.0483
-0.0499
-0.048
-0.0454
-0.0444
-0.0428
-0.0384
-0.0352
-0.04
-0.0422
-0.0495
-0.0515
-0.0358
-0.0269
-0.0288
-0.0333
-0.0342
-0.0339
-0.0323
-0.025
-0.0263
-0.0247
-0.0196
-0.0145
-0.0119
-0.0142
-0.0209
-0.0288
-0.0212
-0.008399999999999999
-0.003
-0.0078
-0.0129
-0.0161
-0.018
-0.0145
-0.0119
-0.0173
-0.0154
-0.01
-0.008699999999999999
-0.0116
-0.0157
-0.024
-0.0323
-0.0196
-0.0094
-0.0094
-0.0177
-0.0209
-0.0221
-0.025
-0.0212
-0.0199
-0.0205
-0.0193
-0.0138
-0.0119
-0.0164
-0.0228
-0.0336
-0.0336
-0.0205
-0.0126
-0.0161
-0.0228
-0.0301
-0.0314
-0.0336
-0.0301
-0.0336
-0.0346
-0.032
-0.0342
-0.032
-0.0368
-0.046
-0.055
-0.0521
-0.0441
-0.0397
-0.0473
-0.0543
-0.0582
-0.0597
-0.0588
-0.0531
-0.0588
-0.06419999999999999
-0.0546
-0.0524
-0.0582
-0.0617
-0.0703
-0.076
-0.0648
-0.0582
-0.0588
-0.0664
-0.06900000000000001
-0.0699
-0.0735
-0.0706
-0.0684
-0.0696
-0.0668
-0.0613
-0.0648
-0.0655
-0.0725
-0.0798
-0.08110000000000001
-0.06519999999999999
-0.0575
-0.0613
-0.06610000000000001
-0.0687
-0.0699
-0.0693
-0.062
-0.0633
-0.0617
-0.0597
-0.0508
-0.0543
-0.054
-0.0582
-0.0645
-0.0582
-0.047
-0.0409
-0.0444
-0.047
-0.048
-0.0492
-0.0454
-0.0381
-0.0387
-0.0365
-0.0336
-0.0269
-0.0275
-0.032
-0.039
-0.0435
-0.0285
-0.0202
-0.0193
-0.0237
-0.0285
-0.0285
-0.0295
-0.0247
-0.0199
-0.0193
-0.0193
-0.0106
-0.004
0.0027
0.0027
0.0011
0.0066
0.0321
0.0525
0.06560000000000001
0.07480000000000001
0.093
0.1105
0.1322
0.1606
0.1848
0.2151
0.2479
0.2801
0.3114
0.3391
0.3617
0.3764
0.401
0.4325
0.459
0.4679
0.4762
0.4829
0.4845
0.4845
0.4819
0.467
0.4542
0.4395
0.4277
0.4051
0.3745
0.3375
0.3024
0.2865
0.2664
0.2403
0.2065
0.1771
0.1475
0.1156
0.093
0.0751
0.0557
0.0388
0.0267
0.0184
-0.003
-0.018
-0.0362
-0.046
-0.0371
-0.0346
-0.0419
-0.0499
-0.0559
-0.0582
-0.0601
-0.0534
-0.0546
-0.0524
-0.048
-0.0448
-0.0403
-0.0435
-0.0483
-0.0531
-0.048
-0.0358
-0.0275
-0.0291
-0.0333
-0.0336
-0.0352
-0.0355
-0.0285
-0.0295
-0.0291
-0.0224
-0.0202
-0.0205
-0.0244
-0.0326
-0.04
-0.0279
-0.0209
-0.0164
-0.0244
-0.0295
-0.0295
-0.032
-0.0285
-0.0263
-0.0288
-0.0291
-0.0205
-0.0228
-0.0231
-0.0279
-0.0362
-0.0403
-0.0256
-0.017
-0.0196
-0.0253
-0.0288
-0.0317
-0.0333
-0.0275
-0.0285
-0.0269
-0.0256
-0.0199
-0.0209
-0.0231
-0.0279
-0.0377
-0.0355
-0.0205
-0.0154
-0.018
-0.0228
-0.0244
-0.0253
-0.0256
-0.0202
-0.0218
-0.0199
-0.0126
-0.011
-0.0106
-0.0122
-0.0202
-0.0279
-0.0154
-0.01
-0.0065
-0.0097
-0.0116
-0.0126
-0.0173
-0.0129
-0.0081
-0.01
-0.0078
-0.0027
-0.0017
-0.0033
-0.0078
-0.0138
-0.017
-0.0027
0.0047
0.0043
-0.0008
-0.0055
-0.0055
-0.0065
-0.0017
-0.002
0.0002
0.0031
0.0069
0.0072
0.0056
-0.0008
-0.0094
-0.008399999999999999
0.0059
0.0142
0.0104
0.0053
0.0021
0.0005
0.0024
0.0072
0.0059
0.0091
0.0123
0.0136
0.019
0.0145
0.0056
-0.0024
0.0123
0.0212
0.0267
0.0203
0.0171
0.0168
0.0158
0.0216
0.0247
0.0251
0.0267
0.034
0.0378
0.0359
0.033
0.0289
0.0254
0.0429
0.0541
0.0541
0.0496
0.0464
0.0487
0.0522
0.0595
0.0614
0.0636
0.06710000000000001
0.0745
0.0796
0.0799
0.0761
0.07190000000000001
0.077
0.09229999999999999
0.1025
0.1025
0.1016
0.1009
0.1035
0.1086
0.1172
0.1175
0.1229
0.13
0.1354
0.1398
0.1398
0.1366
0.1338
0.1469
0.1564
0.1637
0.1634
0.1628
0.1647
0.1637
0.172
0.1778
0.1803
0.1861
0.1953
0.2011
0.2017
0.1985
0.1924
0.1928
0.2116
0.2221
0.2221
0.2189
0.2173
0.217
0.218
0.2224
0.2246
0.2262
0.2278
0.231
0.2329
0.2275
0.2231
0.2151
0.217
0.2262
0.2307
0.224
0.2186
0.2138
0.2087
0.2068
0.21
0.2042
0.2017
0.2007
0.1982
0.194
0.1854
0.172
0.1593
0.1622
0.1666
0.1657
0.1523
0.1373
0.1287
0.1185
0.1147
0.1095
0.0993
0.0907
0.0828
0.08309999999999999
0.0735
0.0569
0.041
0.0276
0.0314
0.0276
0.0187
0.0047
-0.0075
-0.0186
-0.0288
-0.033
-0.0419
-0.0483
-0.0546
-0.0604
-0.0709
-0.0833
-0.0926
-0.106
-0.1117
-0.1069
-0.106
-0.1149
-0.1248
-0.135
-0.143
