0.011186
0.0035324
-0.00093234
-0.0066727
-0.024532
-0.018472
-0.0085862
-0.024532
-0.033142
-0.041115
-0.049726
-0.053234
-0.029634
-0.050044
-0.061206
-0.061525
-0.058017
-0.06025
-0.06025
-0.052277
-0.061525
-0.057379
-0.055147
-0.053552
-0.033142
-0.033142
-0.053234
-0.059293
-0.029953
-0.017835
-0.032504
-0.042391
-0.04845
-0.043028
-0.044304
-0.047812
-0.053234
-0.067903
-0.051958
-0.04558
-0.048769
-0.06025
-0.060569
-0.059931
-0.063758
-0.048131
-0.037607
-0.045899
-0.046855
-0.040477
-0.036331
-0.045899
-0.037926
-0.047812
-0.058017
-0.041434
-0.024851
-0.039202
-0.039839
-0.043028
-0.03665
-0.04271
-0.035056
-0.040477
-0.037607
-0.032186
-0.043347
-0.041753
-0.041434
-0.048131
-0.053234
-0.039202
-0.040158
-0.03665
-0.043666
-0.04845
-0.049088
-0.046218
-0.032823
-0.027402
-0.037926
-0.046218
-0.035694
-0.036331
-0.030272
-0.036331
-0.045899
-0.046536
-0.024851
-0.038245
-0.044623
-0.040158
-0.029634
-0.034099
-0.038245
-0.027083
-0.043028
-0.044623
-0.037288
-0.016559
-0.016878
-0.022937
-0.025488
-0.029953
-0.027721
-0.0105
-0.0047593
-0.0038025
-0.015283
-0.018472
-0.018472
-0.012732
-0.0060349
-0.032823
-0.037926
-0.030591
-0.039202
-0.038883
-0.050044
-0.056104
-0.071093
-0.057061
-0.054509
-0.053552
-0.059931
-0.056742
-0.053234
-0.05132
-0.044623
-0.027402
-0.017197
-0.027402
-0.019748
-0.017197
-0.016559
-0.013051
-0.011456
-0.022937
-0.0095429
-0.0031647
-0.0063538
-0.021661
-0.032186
-0.014327
-0.016559
-0.012413
-0.037926
-0.055147
-0.052277
-0.048769
-0.058655
-0.058336
-0.06025
-0.079065
-0.076833
-0.038883
-0.03378
-0.044942
-0.047493
-0.049088
-0.038883
-0.016559
0.0013
-0.015921
-0.014327
-0.0066727
-0.013051
-0.012094
-0.0073105
-0.0060349
-0.028359
-0.020386
-0.021024
-0.031548
-0.043347
-0.047493
-0.052277
-0.058655
-0.046536
-0.046536
-0.061206
-0.072687
-0.067903
-0.06886
-0.067585
-0.066628
-0.073006
-0.069817
-0.053871
-0.050044
-0.054828
-0.053552
-0.053234
-0.04558
-0.044304
-0.030591
-0.039839
-0.038883
-0.042072
-0.042391
-0.034099
-0.037607
-0.040477
-0.049407
-0.052277
-0.04271
-0.032504
-0.041434
-0.043666
-0.038245
-0.028996
-0.024213
-0.016559
-0.026126
-0.031548
-0.024851
-0.022618
-0.019429
-0.017835
-0.016878
-0.040477
-0.033461
-0.018791
-0.011775
-0.024532
-0.032186
-0.03091
-0.030591
-0.027402
-0.022618
-0.023575
-0.028996
-0.021343
-0.027083
-0.035694
-0.022937
0.0057648
-0.017197
-0.014327
-0.0079484
-0.010181
-0.022299
-0.021343
-0.014327
-0.021024
-0.0034836
-0.030591
-0.031229
-0.037926
-0.031548
-0.036331
-0.048131
-0.049407
-0.061206
-0.061844
-0.044623
-0.042072
-0.052596
-0.052915
-0.056423
-0.050044
-0.051958
-0.042391
-0.059293
-0.058017
-0.06312
-0.059612
-0.064714
-0.069817
-0.069179
-0.087995
-0.07173
-0.060569
-0.062163
-0.074282
-0.074601
-0.055466
-0.050044
-0.042391
-0.047174
-0.055466
-0.053234
-0.049088
-0.043985
-0.041434
-0.043347
-0.050363
-0.050682
-0.032504
-0.024532
-0.022299
-0.018153
-0.014008
-0.017197
-0.015921
-0.00061343
-0.010819
-0.0105
-0.0085862
-0.014645
-0.023894
-0.02804
-0.026126
-0.037926
-0.057061
-0.041434
-0.037607
-0.058974
-0.06312
-0.06312
-0.066947
-0.059293
-0.04845
-0.059612
-0.062163
-0.052277
-0.05419
-0.052277
-0.050682
-0.050363
-0.061844
-0.046218
-0.044304
-0.040477
-0.043985
-0.044623
-0.03952
-0.040158
-0.029315
-0.0031647
0.0067215
-0.021024
-0.013689
-0.0025269
-0.0069916
-0.0028458
-0.0038025
-0.012413
0.004808
0.012781
-0.0095429
-0.014008
-0.0069916
-0.010819
-0.036012
-0.03091
-0.043347
-0.042391
-0.050363
-0.057379
-0.066309
-0.074601
-0.066947
-0.085762
-0.088633
-0.070774
-0.069179
-0.075557
-0.075238
-0.072368
-0.063758
-0.053552
-0.032504
-0.034737
-0.04845
-0.038564
-0.028996
-0.028996
-0.028996
-0.026764
-0.040158
-0.021661
-0.020705
-0.01911
-0.023575
-0.042391
-0.038564
-0.03665
-0.031229
-0.030591
-0.042072
-0.049088
-0.041753
-0.050044
-0.033142
-0.030591
-0.037926
-0.021661
-0.017835
-0.026764
-0.022618
-0.017835
-0.013051
-0.010819
-0.010819
-0.013689
-0.022618
-0.026126
-0.023894
-0.019748
-0.02517
-0.040796
-0.056742
-0.066309
-0.040158
-0.047174
-0.053552
-0.057379
-0.052277
-0.047493
-0.049407
-0.043347
-0.032504
-0.041434
-0.034737
-0.030591
-0.030272
-0.028678
-0.028359
-0.02804
-0.037288
-0.023256
-0.018472
-0.019429
-0.023894
-0.027402
-0.027402
-0.023256
-0.017835
-0.02198
-0.02804
-0.034099
-0.031548
-0.033461
-0.034418
-0.034418
-0.044304
-0.049407
-0.036969
-0.029634
-0.035056
-0.036331
-0.036012
-0.035375
-0.034418
-0.02198
-0.018153
-0.023575
-0.026445
-0.020705
-0.019748
-0.02198
-0.01911
-0.027721
-0.013689
-0.0044404
-0.00061343
-0.0095429
-0.0082673
-0.0025269
-0.0063538
-0.0012513
0.0099106
-0.0069916
-0.011775
-0.016559
-0.024213
-0.02517
-0.025488
-0.029634
-0.044942
-0.055147
-0.047174
-0.050682
-0.057698
-0.065033
-0.059612
-0.056423
-0.045899
-0.039839
-0.04845
-0.028996
-0.027402
-0.033142
-0.03665
-0.035694
-0.032823
-0.018472
-0.012413
-0.021661
-0.022299
-0.025488
-0.020067
-0.02804
-0.040158
-0.02804
-0.041434
-0.041115
-0.044304
-0.043028
-0.043666
-0.049088
-0.028996
-0.026126
-0.019429
-0.027083
-0.015921
-0.009224
0.0016189
0.0013
0.00066221
0.0070404
0.016289
0.00098112
-0.029634
-0.0069916
-0.014327
-0.033461
-0.041753
-0.057379
-0.06312
-0.043347
-0.062482
-0.071093
-0.076833
-0.075876
-0.072368
-0.075557
-0.057698
-0.061206
-0.064395
-0.066628
-0.058017
-0.057698
-0.054828
-0.049407
-0.049088
-0.059293
-0.050682
-0.042391
-0.043985
-0.041753
-0.043028
-0.041115
-0.041115
-0.030272
-0.037288
-0.038883
-0.032823
-0.038883
-0.036331
-0.030591
-0.034737
-0.038883
-0.032823
-0.02804
-0.023575
-0.027721
-0.027721
-0.022937
-0.027083
-0.014327
0.0076782
-0.0082673
-0.017516
-0.013051
-0.017197
-0.014327
-0.0053971
-0.0060349
-0.0079484
-0.0025269
-0.0025269
0.0057648
-0.0028458
-0.0031647
-0.0044404
-0.0098618
0.0041702
-0.0105
-0.023575
-0.025807
-0.022299
-0.030272
-0.037926
-0.044304
-0.059293
-0.074282
-0.065352
-0.054509
-0.064395
-0.069179
-0.068222
-0.068541
-0.063439
-0.04845
-0.06599
-0.061844
-0.058974
-0.061525
-0.057698
-0.053234
-0.045261
-0.058336
-0.058336
-0.046855
-0.027721
-0.029634
-0.045899
-0.046855
-0.04271
-0.02198
-0.013689
-0.02804
-0.035375
-0.026764
-0.025807
-0.023256
-0.027402
-0.037288
-0.042072
-0.023256
-0.02517
-0.029953
-0.032504
-0.030591
-0.025807
-0.029315
-0.0073105
-0.00093234
-0.014964
-0.021343
-0.002208
-0.0041214
-0.0053971
2.4388e-05
-0.009224
-0.016878
-0.0034836
-0.012413
-0.011137
-0.0098618
-0.0076295
-0.015602
-0.021661
-0.012094
-0.030272
-0.036969
-0.024851
-0.022937
-0.032504
-0.039202
-0.041115
-0.049407
-0.037288
-0.036969
-0.038245
-0.051639
-0.045899
-0.044623
-0.047812
-0.043028
-0.023256
-0.043985
-0.055466
-0.039202
-0.033461
-0.032186
-0.034737
-0.034418
-0.049407
-0.03091
-0.023575
-0.024532
-0.020386
-0.026445
-0.03665
-0.04558
-0.020705
-0.023575
-0.031548
-0.036969
-0.040477
-0.041115
-0.043985
-0.044623
-0.052596
-0.056423
-0.027721
-0.016559
-0.029953
-0.031548
-0.029315
-0.026126
-0.022618
-0.017835
-0.028359
-0.025807
-0.023575
-0.030272
-0.043666
-0.038245
-0.037607
-0.055147
-0.04845
-0.044942
-0.044304
-0.040796
-0.039202
-0.036969
-0.039202
-0.026445
-0.012732
-0.019748
-0.02804
-0.021024
-0.024851
-0.026764
-0.024851
-0.034099
-0.046536
-0.031867
-0.031548
-0.036331
-0.049407
-0.053234
-0.053552
-0.055785
-0.036969
-0.040796
-0.049407
-0.051639
-0.038564
-0.041115
-0.040158
-0.038883
-0.04845
-0.050682
-0.03665
-0.024213
-0.037607
-0.041434
-0.035694
-0.040477
-0.032504
-0.014327
-0.029634
-0.033142
-0.013689
-0.0012513
-0.0031647
0.00098112
-0.00029452
-0.018791
-0.0073105
0.0013
0.021391
0.0032135
-0.00029452
-0.0076295
-0.011456
0.00098112
-0.002208
-0.035056
-0.043985
-0.040477
-0.044942
-0.044304
-0.052915
-0.066947
-0.074601
-0.057379
-0.053234
-0.057698
-0.052277
-0.052915
-0.044942
-0.040796
-0.035694
-0.046855
-0.041753
-0.041753
-0.03665
-0.038883
-0.046536
-0.04271
-0.045899
-0.052915
-0.053871
-0.041115
-0.043347
-0.04845
-0.049088
-0.049407
-0.04845
-0.036331
-0.046855
-0.050044
-0.04558
-0.044304
-0.043028
-0.04558
-0.047174
-0.053871
-0.036969
-0.036969
-0.038883
-0.047174
-0.053234
-0.042391
-0.043028
-0.028359
-0.02804
-0.036969
-0.042072
-0.041753
-0.027721
-0.025488
-0.026445
-0.031229
-0.03665
-0.029953
-0.023575
-0.019429
-0.023575
-0.026126
-0.026445
-0.032823
-0.020386
-0.032504
-0.029634
-0.036969
-0.036012
-0.040796
-0.040477
-0.040158
-0.053552
-0.055147
-0.040796
-0.031548
-0.043028
-0.040796
-0.03378
-0.032504
-0.03091
-0.018472
-0.029315
-0.036331
-0.035694
-0.032823
-0.031229
-0.041115
-0.043347
-0.053234
-0.043028
-0.035694
-0.040477
-0.046218
-0.052277
-0.049088
-0.047812
-0.037607
-0.031229
-0.035375
-0.03378
-0.031229
-0.031548
-0.02804
-0.024851
-0.029634
-0.034418
-0.015921
-0.0085862
-0.012094
-0.023575
-0.023894
-0.020705
-0.015602
-0.009224
-0.030272
-0.01624
-0.016559
-0.014008
-0.022618
-0.023256
0.0032135
-0.0012513
-0.016559
-0.002208
0.0067215
0.004808
-0.0018891
0.011824
0.004808
0.0131
0.015332
-0.0044404
-0.012413
-0.0085862
-0.03952
-0.031229
-0.034099
-0.041434
-0.059931
-0.056104
-0.062482
-0.064395
-0.064714
-0.066947
-0.06312
-0.064714
-0.05419
-0.049407
-0.056742
-0.050363
-0.050044
-0.047174
-0.044304
-0.040158
-0.040158
-0.047812
-0.030272
-0.023575
-0.028359
-0.036012
-0.032186
-0.025488
-0.024532
-0.02198
-0.032186
-0.026764
-0.030591
-0.026445
-0.022618
-0.030591
-0.027721
-0.035375
-0.033461
-0.024532
-0.020067
-0.021024
-0.020705
-0.020705
-0.021343
-0.0095429
-0.0079484
-0.024532
-0.037288
-0.029315
-0.034099
-0.036969
-0.045261
-0.048131
-0.055785
-0.039839
-0.04558
-0.059612
-0.06312
-0.054828
-0.04271
-0.044942
-0.040477
-0.034737
-0.035694
-0.037607
-0.031229
-0.021343
-0.017835
-0.021024
-0.020705
-0.03665
-0.027083
-0.012732
-0.010819
-0.016559
-0.022618
-0.022299
-0.031229
-0.025488
-0.024213
-0.020705
-0.034099
-0.033142
-0.030272
-0.037926
-0.039839
-0.047812
-0.045899
-0.038245
-0.032823
-0.034099
-0.030272
-0.040796
-0.036331
-0.032504
-0.024851
-0.041115
-0.049088
-0.035056
-0.038883
-0.043347
-0.043347
-0.043985
-0.055785
-0.037288
-0.035056
-0.036969
-0.045899
-0.041434
-0.045261
-0.038883
-0.018153
-0.01911
-0.03665
-0.042391
-0.034099
-0.029634
-0.037288
-0.038883
-0.043666
-0.052596
-0.039839
-0.029634
-0.038883
-0.038883
-0.039839
-0.038883
-0.036012
-0.012732
-0.019748
-0.01911
-0.018791
-0.016878
-0.014008
-0.014645
-0.013689
-0.018791
-0.019429
-0.013051
-0.015921
-0.022937
-0.021343
-0.023894
-0.029953
-0.019429
-0.015921
-0.037607
-0.040796
-0.041434
-0.044304
-0.035375
-0.036012
-0.040158
-0.051001
-0.037288
-0.035056
-0.036969
-0.037288
-0.03378
-0.032504
-0.032823
-0.025488
-0.019429
-0.024213
-0.028678
-0.027083
-0.02804
-0.028678
-0.02804
-0.035694
-0.037926
-0.030272
-0.026764
-0.032823
-0.035694
-0.035694
-0.033142
-0.040158
-0.030272
-0.034099
-0.034418
-0.037607
-0.037288
-0.033142
-0.034737
-0.029634
-0.034737
-0.039839
-0.029634
-0.030591
-0.033142
-0.034418
-0.03378
-0.034737
-0.029315
-0.014645
-0.024851
-0.04271
-0.03952
-0.023894
-0.018791
-0.026126
-0.021343
-0.032823
-0.022299
-0.0050782
-0.0079484
-0.0076295
-0.0060349
-0.0038025
-0.0044404
0.01023
0.00098112
-0.0105
-0.0060349
-0.009224
-0.014327
-0.015283
-0.026126
-0.036331
-0.035694
-0.027721
-0.028678
-0.032186
-0.026126
-0.013051
-0.022618
-0.02198
-0.011775
-0.020705
-0.016878
-0.014327
-0.01337
-0.014964
-0.012413
-0.023894
-0.028996
-0.036012
-0.032504
-0.02198
-0.039202
-0.043985
-0.03952
-0.04271
-0.04271
-0.031867
-0.044942
-0.049407
-0.04558
-0.039839
-0.03091
-0.043347
-0.042072
-0.047174
-0.036012
-0.037926
-0.03665
-0.041434
-0.042391
-0.033142
-0.028359
-0.026445
-0.026445
-0.031548
-0.040158
-0.041115
-0.036331
-0.029634
-0.046536
-0.055147
-0.063439
-0.04558
-0.040477
-0.044304
-0.051639
-0.057698
-0.058974
-0.056104
-0.043985
-0.055785
-0.055785
-0.052915
-0.046218
-0.050363
-0.051639
-0.047493
-0.055466
-0.050044
-0.040796
-0.037926
-0.04271
-0.044623
-0.04558
-0.038564
-0.035056
-0.023894
-0.038245
-0.045899
-0.034418
-0.036331
-0.03952
-0.040796
-0.039839
-0.041753
-0.028996
-0.03952
-0.046218
-0.038245
-0.023894
-0.024213
-0.033461
-0.021024
-0.022299
-0.025488
-0.029315
-0.02804
-0.026126
-0.020067
-0.022299
-0.031229
-0.048769
-0.022299
-0.014645
-0.020705
-0.02804
-0.029953
-0.038883
-0.031548
-0.01911
-0.025488
-0.034099
-0.033142
-0.031229
-0.027721
-0.032823
-0.038564
-0.041753
-0.03378
-0.032823
-0.022618
-0.029634
-0.03091
-0.028359
-0.021661
-0.022618
-0.010181
-0.018791
-0.023894
-0.01911
-0.016878
-0.013689
-0.013689
-0.012094
-0.019429
-0.0098618
-0.00029452
-0.0079484
-0.018791
-0.0069916
-0.0098618
-0.014645
-0.0015702
-0.014645
-0.026764
-0.027721
-0.021024
-0.028678
-0.032823
-0.03952
-0.049407
-0.057379
-0.039839
-0.035375
-0.049088
-0.04558
-0.037288
-0.035056
-0.029634
-0.022299
-0.032186
-0.03378
-0.02517
-0.022618
-0.017516
-0.015602
-0.015283
-0.015283
0.0079971
-0.0066727
0.00098112
-0.0012513
-0.0015702
2.4388e-05
-0.0028458
-0.0015702
0.0067215
-0.0050782
-0.030591
-0.028359
-0.021024
-0.023256
-0.039839
-0.047812
-0.055147
-0.047493
-0.036969
-0.036969
-0.045899
-0.051001
-0.04558
-0.042391
-0.032504
-0.036969
-0.037288
-0.039839
-0.032504
-0.04271
-0.042391
-0.04845
-0.052277
-0.058655
-0.06025
-0.044942
-0.049726
-0.050363
-0.048131
-0.051958
-0.050682
-0.039202
-0.047493
-0.045899
-0.035375
-0.035375
-0.038245
-0.040158
-0.041434
-0.045261
-0.035694
-0.029953
-0.028996
-0.036012
-0.038245
-0.033461
-0.041115
-0.040477
-0.022299
-0.031229
-0.044942
-0.04558
-0.044304
-0.038883
-0.04271
-0.051639
-0.057698
-0.043666
-0.038245
-0.04271
-0.042072
-0.042391
-0.040477
-0.040477
-0.031548
-0.036969
-0.037926
-0.037288
-0.03665
-0.036969
-0.038245
-0.034737
-0.041115
-0.04271
-0.032504
-0.02198
-0.028678
-0.02804
-0.022618
-0.022618
-0.023894
-0.013051
-0.020067
-0.019429
-0.023256
-0.025807
-0.019748
-0.027721
-0.028996
-0.043985
-0.042391
-0.037607
-0.039202
-0.048769
-0.03665
-0.033142
-0.041753
-0.03665
-0.031548
-0.040477
-0.041753
-0.037926
-0.031867
-0.025488
-0.030272
-0.03091
-0.040796
-0.028678
-0.023256
-0.018153
-0.01911
-0.022618
-0.027083
-0.032823
-0.018153
-0.019748
-0.024851
-0.036331
-0.041115
-0.037607
-0.043347
-0.046855
-0.052596
-0.06025
-0.052915
-0.053234
-0.059612
-0.055147
-0.042072
-0.044942
-0.049407
-0.031229
-0.030591
-0.028996
-0.024851
-0.019748
-0.022618
-0.014327
-0.013689
-0.030591
-0.021343
-0.009224
-0.0085862
-0.020705
-0.026764
-0.032823
-0.031867
-0.023575
-0.026126
-0.038883
-0.047174
-0.043985
-0.044942
-0.037926
-0.036012
-0.045261
-0.035056
-0.013689
-0.018791
-0.024213
-0.017197
-0.014327
-0.014645
-0.010819
-0.00093234
-0.01624
-0.014008
-0.027721
-0.040477
-0.032504
-0.032823
-0.047812
-0.066628
-0.066947
-0.058017
-0.06025
-0.069498
-0.070455
-0.062801
-0.062163
-0.059612
-0.044942
-0.052915
-0.055785
-0.047493
-0.043985
-0.043028
-0.040477
-0.038245
-0.05132
-0.042072
-0.033461
-0.024213
-0.036331
-0.031548
-0.025488
-0.022618
-0.018791
-0.01337
-0.027402
-0.031229
-0.026445
-0.03378
-0.030272
-0.012413
-0.028678
-0.04271
-0.037288
-0.027083
-0.031229
-0.033142
-0.03378
-0.032504
-0.025488
-0.014327
-0.028359
-0.032823
-0.02517
-0.020705
-0.026445
-0.025488
-0.023894
-0.031229
-0.03665
-0.022937
-0.01337
-0.014645
-0.017197
-0.021024
-0.018791
-0.0098618
0.0003433
-0.0085862
-0.017197
-0.005716
-0.0073105
-0.0105
-0.01624
-0.020705
-0.019748
-0.0063538
-0.015602
-0.02198
-0.028359
-0.026445
-0.024532
-0.035694
-0.01911
-0.01624
-0.032186
-0.034418
-0.03091
-0.041115
-0.043028
-0.034099
-0.040158
-0.055466
-0.033142
-0.02517
-0.034418
-0.036012
-0.032504
-0.033142
-0.028996
-0.016559
-0.02198
-0.017197
-0.024213
-0.03091
-0.026126
-0.022937
-0.031229
-0.040796
-0.036969
-0.020067
-0.014008
-0.029953
-0.033142
-0.030591
-0.026764
-0.032186
-0.014327
-0.023575
-0.031229
-0.032823
-0.033142
-0.044942
-0.038245
-0.038564
-0.055147
-0.044942
-0.041434
-0.051001
-0.055785
-0.05132
-0.052596
-0.049407
-0.036331
-0.032504
-0.04271
-0.04558
-0.038883
-0.038245
-0.038883
-0.037607
-0.044304
-0.055466
-0.038564
-0.037926
-0.033142
-0.035694
-0.038883
-0.033142
-0.03091
-0.018153
-0.021343
-0.025488
-0.034737
-0.024532
-0.023256
-0.019748
-0.022618
-0.024851
-0.028359
-0.01911
-0.018153
-0.027721
-0.028678
-0.027083
-0.028678
-0.031548
-0.017197
-0.030272
-0.041753
-0.032823
-0.031229
-0.028678
-0.040158
-0.052596
-0.066309
-0.036331
-0.035375
-0.041115
-0.045899
-0.050044
-0.045261
-0.04558
-0.035056
-0.03091
-0.036331
-0.04271
-0.034737
-0.028678
-0.027721
-0.025488
-0.038564
-0.041434
-0.025488
-0.016878
-0.023894
-0.027083
-0.024213
-0.021661
-0.022299
-0.0073105
-0.020067
-0.027402
-0.023575
-0.011456
-0.01911
-0.017516
-0.014645
-0.026126
-0.026445
-0.014964
-0.01337
-0.034737
-0.019748
-0.018791
-0.029634
-0.033142
-0.022618
-0.024532
-0.037288
-0.041434
-0.044623
-0.048131
-0.05132
-0.051001
-0.062482
-0.054828
-0.05419
-0.050044
-0.055785
-0.053871
-0.043347
-0.044942
-0.031548
-0.034737
-0.036331
-0.03378
-0.027721
-0.028996
-0.029953
-0.022299
-0.034099
-0.038245
-0.023894
-0.011456
-0.01624
-0.02198
-0.019429
-0.025488
-0.019748
-0.0018891
-0.016559
-0.0073105
-0.0073105
-0.014645
-0.02198
-0.018791
-0.0095429
-0.018153
-0.01624
-0.017197
-0.016559
-0.029315
-0.036331
-0.037607
-0.030591
-0.016878
-0.0053971
-0.024851
-0.032186
-0.022937
-0.021343
-0.013051
-0.015921
-0.011775
-0.024851
-0.005716
-0.0098618
-0.018472
-0.013051
-0.010819
-0.01337
-0.014327
-0.015921
-0.0031647
-0.01337
-0.04271
-0.037607
-0.034737
-0.033142
-0.038564
-0.050044
-0.053552
-0.047493
-0.044304
-0.052915
-0.050044
-0.052596
-0.045899
-0.055785
-0.054509
-0.053552
-0.050363
-0.047812
-0.04558
-0.046536
-0.050363
-0.044942
-0.04845
-0.050363
-0.043347
-0.043028
-0.043985
-0.037288
-0.041753
-0.04845
-0.037288
-0.023575
-0.038564
-0.040796
-0.027721
-0.034737
-0.023575
-0.028678
-0.030591
-0.036969
-0.013689
-0.010181
-0.013689
-0.015283
-0.021024
-0.020067
-0.012413
-0.0044404
-0.020386
-0.023575
-0.027721
-0.030272
-0.037607
-0.02517
-0.014964
-0.023575
-0.038564
-0.02517
-0.014645
-0.024851
-0.027083
-0.022618
-0.017197
-0.019429
-0.013051
-0.025488
-0.029315
-0.031229
-0.037288
-0.041115
-0.047493
-0.057379
-0.073006
-0.069817
-0.062163
-0.060569
-0.073006
-0.074919
-0.064395
-0.064714
-0.058017
-0.051001
-0.06025
-0.061525
-0.053552
-0.051639
-0.053871
-0.044623
-0.038245
-0.052915
-0.04271
-0.035056
-0.020386
-0.025488
-0.020705
-0.015921
-0.020705
-0.0073105
-0.012732
-0.021343
-0.019748
-0.015602
-0.00061343
-0.0089051
-0.016878
-0.02517
-0.030591
-0.012094
-0.0098618
-0.020705
-0.017197
-0.0038025
-0.014964
-0.017516
-0.014964
-0.022937
-0.018791
-0.013689
-0.02198
-0.028996
-0.034418
-0.044304
-0.055785
-0.044623
-0.03378
-0.037926
-0.047174
-0.04845
-0.049726
-0.039202
-0.032823
-0.022937
-0.033461
-0.038564
-0.02804
-0.028996
-0.019429
-0.020386
-0.02804
-0.030591
-0.0082673
-0.011775
-0.014008
-0.020067
-0.021343
-0.016559
-0.017835
-0.009224
-0.014008
-0.021661
-0.024213
-0.032504
-0.036012
-0.028678
-0.040158
-0.057379
-0.06599
-0.046855
-0.044304
-0.046218
-0.049407
-0.050682
-0.054828
-0.051958
-0.037607
-0.04271
-0.042391
-0.03952
-0.036969
-0.03952
-0.042072
-0.041434
-0.044942
-0.032186
-0.03091
-0.031229
-0.032186
-0.028359
-0.025488
-0.022299
-0.029953
-0.015283
-0.020386
-0.025807
-0.022618
-0.021024
-0.024851
-0.024532
-0.031548
-0.044623
-0.032504
-0.025807
-0.027083
-0.032823
-0.035375
-0.035694
-0.039839
-0.019748
-0.022937
-0.032823
-0.037607
-0.029634
-0.028996
-0.027083
-0.018472
-0.026126
-0.039839
-0.026126
-0.017197
-0.020067
-0.023894
-0.01911
-0.021024
-0.018791
-0.012094
-0.025488
-0.024851
-0.025807
-0.024851
-0.028996
-0.037288
-0.037607
-0.05419
-0.044942
-0.044304
-0.044623
-0.053871
-0.052915
-0.05132
-0.06025
-0.048131
-0.035056
-0.050363
-0.052277
-0.045899
-0.047812
-0.043985
-0.035056
-0.037288
-0.048769
-0.027402
-0.027402
-0.027402
-0.018472
-0.018791
-0.015283
-0.013051
-0.0031647
-0.014008
-0.023256
-0.022937
-0.022299
-0.018153
-0.023575
-0.027721
-0.045261
-0.053552
-0.036969
-0.02804
-0.043666
-0.046218
-0.045899
-0.046855
-0.035056
-0.025488
-0.041753
-0.044304
-0.037607
-0.034099
-0.035375
-0.032823
-0.034737
-0.046536
-0.034737
-0.03665
-0.033142
-0.034418
-0.03952
-0.035056
-0.04271
-0.033461
-0.018791
-0.03091
-0.037288
-0.034418
-0.039839
-0.041115
-0.035694
-0.037607
-0.043985
-0.030591
-0.026126
-0.038564
-0.03378
-0.027721
-0.026126
-0.024851
-0.014964
-0.021024
-0.018153
-0.019748
-0.01911
-0.017516
-0.023256
-0.024213
-0.036012
-0.037607
-0.028678
-0.024213
-0.032186
-0.03952
-0.047812
-0.049726
-0.044623
-0.037288
-0.04271
-0.04845
-0.052915
-0.053234
-0.052596
-0.052915
-0.046218
-0.059931
-0.054509
-0.049726
-0.038883
-0.031229
-0.035694
-0.031867
-0.028996
-0.015283
-0.0018891
-0.016878
-0.018472
-0.011775
-0.011456
-0.0095429
-0.018791
-0.023894
-0.028359
-0.020067
-0.019748
-0.028359
-0.035056
-0.041753
-0.03952
-0.042391
-0.032504
-0.040477
-0.039202
-0.03665
-0.035375
-0.035375
-0.034737
-0.04845
-0.051001
-0.045261
-0.034099
-0.026764
-0.023256
-0.023575
-0.024213
-0.023575
-0.0095429
0.0079971
-0.00061343
-0.0053971
-0.010181
-0.012413
0.0032135
0.0013
0.0022568
-0.015921
-0.00029452
-0.0079484
-0.016878
-0.02198
-0.027402
-0.026445
-0.045899
-0.028996
-0.019748
-0.046855
-0.055785
-0.051001
-0.049088
-0.052596
-0.053234
-0.061844
-0.066947
-0.052915
-0.05419
-0.056423
-0.053552
-0.046536
-0.043985
-0.052596
-0.031867
-0.034737
-0.034737
-0.034737
-0.031867
-0.03378
-0.032823
-0.033461
-0.04558
-0.039202
-0.026445
-0.021024
-0.029634
-0.031548
-0.024213
-0.028678
-0.026445
-0.014964
-0.022299
-0.02804
-0.023575
-0.022937
-0.025488
-0.029634
-0.032504
-0.04558
-0.031229
-0.032186
-0.035056
-0.044942
-0.041434
-0.042072
-0.041753
-0.035375
-0.029315
-0.038883
-0.038564
-0.032186
-0.03091
-0.033461
-0.032823
-0.030272
-0.012094
-0.00061343
-0.011137
-0.017197
-0.012413
-0.0047593
-0.00061343
-0.0050782
0.010867
-0.0034836
-0.014645
-0.0105
-0.019748
-0.017197
-0.036969
-0.041753
-0.05132
-0.053234
-0.046218
-0.047493
-0.058974
-0.063758
-0.065033
-0.065033
-0.060569
-0.050044
-0.059293
-0.064077
-0.058974
-0.054509
-0.053552
-0.055147
-0.054828
-0.068222
-0.06025
-0.056423
-0.044942
-0.043347
-0.047812
-0.044942
-0.036012
-0.023894
-0.019748
-0.024851
-0.031867
-0.027721
-0.02198
-0.017516
-0.014008
-0.016878
-0.017835
-0.011775
-0.0085862
-0.011456
-0.013689
-0.016559
-0.015921
-0.016878
-0.0050782
-0.013689
-0.013051
-0.027402
-0.027083
-0.018791
-0.012094
-0.018791
-0.036012
-0.03952
-0.028996
-0.02804
-0.031229
-0.036012
-0.034099
-0.035694
-0.038564
-0.040158
-0.048769
-0.049407
-0.042391
-0.043347
-0.042391
-0.04271
-0.055785
-0.069817
-0.042391
-0.029315
-0.027083
-0.031867
-0.035375
-0.031229
-0.029953
-0.018791
-0.0089051
-0.017197
-0.020386
-0.013689
-0.018472
-0.024532
-0.031867
-0.038564
-0.036969
-0.02804
-0.02517
-0.031867
-0.035694
-0.034099
-0.041115
-0.038883
-0.026445
-0.03665
-0.039202
-0.039202
-0.035056
-0.034737
-0.03378
-0.037288
-0.049407
-0.044942
-0.037288
-0.032186
-0.037288
-0.026445
-0.022299
-0.023575
-0.02198
-0.012094
-0.01911
-0.024851
-0.018791
-0.019748
-0.012094
-0.021024
-0.027721
-0.038564
-0.02804
-0.016878
-0.01911
-0.024213
-0.025488
-0.024532
-0.020386
-0.014008
-0.0089051
-0.019429
-0.028678
-0.022299
-0.020386
-0.024213
-0.01624
-0.029634
-0.039839
-0.030272
-0.026445
-0.035056
-0.03665
-0.040158
-0.043347
-0.039839
-0.024532
-0.03091
-0.027721
-0.032823
-0.032186
-0.026764
-0.026764
-0.023575
-0.033142
-0.031548
-0.02517
-0.024213
-0.028678
-0.032504
-0.034418
-0.032186
-0.023894
-0.020705
-0.03091
-0.039839
-0.044304
-0.034418
-0.031867
-0.031229
-0.036331
-0.051001
-0.030591
-0.029953
-0.02804
-0.036331
-0.038564
-0.041753
-0.040158
-0.024851
-0.039839
-0.038883
-0.044304
-0.051639
-0.044942
-0.040796
-0.038564
-0.05419
-0.060887
-0.046855
-0.03665
-0.034099
-0.032823
-0.03378
-0.034099
-0.028678
-0.013689
-0.02517
-0.027402
-0.02517
-0.015921
-0.018153
-0.021343
-0.014327
-0.019429
-0.020386
-0.02517
-0.019429
-0.020386
-0.023575
-0.024532
-0.026764
-0.022299
-0.0085862
-0.022937
-0.036969
-0.031548
-0.027721
-0.026445
-0.039839
-0.044942
-0.048769
-0.033461
-0.032504
-0.034099
-0.037926
-0.034737
-0.031867
-0.035694
-0.02517
-0.031229
-0.033461
-0.031548
-0.030272
-0.03091
-0.031548
-0.028678
-0.040158
-0.043028
-0.026126
-0.021024
-0.025488
-0.017835
-0.014964
-0.03091
-0.020386
-0.0034836
-0.014645
-0.016878
-0.014645
-0.017197
-0.014008
-0.01624
-0.011137
-0.023256
-0.024851
-0.01911
-0.0069916
-0.015602
-0.021343
-0.017835
-0.0095429
-0.0079484
-0.0025269
-0.0098618
-0.020386
-0.019748
-0.0085862
-0.014964
-0.01911
-0.024532
-0.038883
-0.027083
-0.031229
-0.030591
-0.038883
-0.043666
-0.04271
-0.044623
-0.037288
-0.043028
-0.043347
-0.050044
-0.047812
-0.043985
-0.046218
-0.048131
-0.056742
-0.061525
-0.052277
-0.041753
-0.046536
-0.04845
-0.045261
-0.043666
-0.039839
-0.028678
-0.042072
-0.038564
-0.03952
-0.031548
-0.023894
-0.026126
-0.024851
-0.031229
-0.02198
-0.012094
-0.0034836
-0.010181
-0.01337
-0.010181
-0.013051
0.0003433
0.0025757
-0.016878
-0.01624
-0.020705
-0.023256
-0.023256
-0.012413
-0.030591
-0.055147
-0.039839
-0.027083
-0.032823
-0.036012
-0.035375
-0.047174
-0.039202
-0.020705
-0.023894
-0.032504
-0.030591
-0.027721
-0.026126
-0.021024
-0.017516
-0.028359
-0.035056
-0.01624
-0.002208
-0.00093234
-0.002208
-0.0053971
-0.00093234
0.0025757
0.011824
0.0028946
0.0016189
0.0057648
-0.0031647
-0.0073105
-0.012413
-0.02198
-0.026445
-0.024851
-0.025488
-0.028359
-0.041115
-0.046855
-0.044304
-0.042072
-0.043347
-0.03378
-0.045261
-0.056742
-0.05419
-0.05132
-0.051639
-0.051639
-0.058336
-0.068222
-0.051958
-0.052277
-0.054828
-0.058017
-0.058336
-0.049088
-0.050044
-0.039202
-0.047812
-0.043985
-0.04558
-0.040477
-0.036331
-0.03665
-0.033142
-0.042391
-0.045261
-0.031867
-0.018791
-0.02517
-0.028996
-0.02804
-0.026764
-0.020067
-0.0066727
-0.019429
-0.021343
-0.020705
-0.019429
-0.018153
-0.01624
-0.022618
-0.044942
-0.03378
-0.027083
-0.024532
-0.031548
-0.03091
-0.030591
-0.033461
-0.022937
-0.016878
-0.020067
-0.01624
-0.023256
-0.027083
-0.02198
-0.017197
-0.017516
-0.021343
-0.014645
-0.010181
-0.012413
-0.021343
-0.021024
-0.021343
-0.020705
-0.01337
-0.027083
-0.034737
-0.032186
-0.037288
-0.026764
-0.032504
-0.048131
-0.057379
-0.052277
-0.044623
-0.039202
-0.042072
-0.043985
-0.044623
-0.045899
-0.03665
-0.027721
-0.034737
-0.02804
-0.024851
-0.023575
-0.021024
-0.020386
-0.018472
-0.027083
-0.020386
-0.016878
-0.015283
-0.022618
-0.020705
-0.018153
-0.023894
-0.014645
-0.009224
-0.027721
-0.032504
-0.029315
-0.02804
-0.029315
-0.028996
-0.037288
-0.043347
-0.029315
-0.023894
-0.029953
-0.032186
-0.035056
-0.02517
-0.032823
-0.023894
-0.032823
-0.031548
-0.033142
-0.032504
-0.031229
-0.029315
-0.026445
-0.034737
-0.038564
-0.028996
-0.027083
-0.027721
-0.02517
-0.023256
-0.021024
-0.018791
-0.0066727
-0.017197
-0.028678
-0.018472
-0.0063538
-0.011775
-0.024532
-0.024213
-0.028678
-0.013689
-0.017835
-0.024532
-0.031229
-0.028359
-0.025488
-0.028996
-0.02198
-0.019748
-0.029953
-0.038883
-0.035694
-0.026126
-0.02804
-0.033461
-0.030272
-0.04271
-0.03091
-0.021024
-0.022299
-0.022299
-0.02198
-0.014964
-0.016559
-0.0053971
-0.014964
-0.016878
-0.014327
-0.018472
-0.020705
-0.024851
-0.02198
-0.038245
-0.029634
-0.011775
-0.017835
-0.030591
-0.01911
-0.0063538
-0.024532
-0.015283
-0.0044404
-0.014964
-0.017516
-0.011137
-0.013689
-0.025488
-0.020705
-0.023894
-0.038564
-0.030591
-0.032823
-0.027721
-0.039839
-0.043347
-0.043028
-0.048131
-0.042391
-0.035375
-0.038564
-0.04271
-0.039839
-0.042391
-0.040158
-0.042391
-0.050363
-0.053871
-0.039202
-0.035375
-0.038245
-0.034418
-0.033142
-0.031867
-0.029315
-0.020705
-0.023256
-0.030591
-0.024532
-0.021024
-0.020386
-0.020705
-0.021024
-0.024213
-0.019429
-0.018153
-0.01624
-0.024851
-0.01911
-0.018472
-0.014645
-0.012094
0.008316
-0.0018891
-0.020067
-0.014964
-0.018153
-0.010819
-0.012413
-0.012413
-0.025488
-0.018153
-0.018791
-0.013689
-0.022618
-0.035375
-0.036969
-0.041115
-0.028678
-0.024532
-0.027083
-0.03378
-0.02804
-0.025488
-0.022937
-0.019429
-0.036012
-0.03952
-0.017835
-0.018791
-0.025488
-0.018472
-0.016559
-0.019748
-0.019429
-0.016559
-0.025807
-0.028678
-0.045261
-0.040477
-0.034418
-0.036012
-0.040158
-0.046218
-0.04558
-0.038245
-0.035056
-0.031548
-0.032823
-0.034418
-0.036012
-0.030272
-0.021024
-0.035694
-0.041115
-0.030591
-0.037926
-0.038245
-0.037288
-0.032186
-0.047174
-0.02804
-0.030272
-0.028996
-0.02517
-0.020386
-0.01624
-0.01624
-0.0066727
0.0035324
-0.0050782
-0.01624
-0.0095429
-0.0085862
-0.014964
-0.0095429
-0.023256
-0.033142
-0.021343
-0.014008
-0.021024
-0.0063538
-0.020386
-0.015602
-0.011456
0.0095917
-0.0034836
-0.01911
0.0041702
0.0028946
0.0054459
-0.00061343
-0.0031647
-0.0041214
-0.0098618
-0.0018891
-0.0047593
-0.015283
-0.0105
-0.022299
-0.018153
-0.011775
0.0032135
-0.020067
-0.030591
-0.031867
-0.031229
-0.032186
-0.027083
-0.029953
-0.040477
-0.023575
-0.032504
-0.037607
-0.037288
-0.029634
-0.02517
-0.034737
-0.027083
-0.015602
-0.018791
-0.035056
-0.02804
-0.027083
-0.031867
-0.035375
-0.038883
-0.043028
-0.02804
-0.02804
-0.032504
-0.022299
-0.026126
-0.033461
-0.022299
-0.0031647
-0.027083
-0.0050782
0.0022568
0.0041702
-0.0031647
-0.011456
-0.0050782
-0.024851
-0.00061343
0.014056
0.0032135
-0.0098618
-0.0044404
-0.0012513
-0.0053971
-0.009224
-0.0034836
-0.01911
-0.024851
-0.012094
-0.018153
-0.020705
-0.023256
-0.033142
-0.045899
-0.035056
-0.033461
-0.039839
-0.059612
-0.065352
-0.062163
-0.063758
-0.053552
-0.053552
-0.059612
-0.066628
-0.058336
-0.056423
-0.052915
-0.054509
-0.060569
-0.064395
-0.049407
-0.028996
-0.027721
-0.018153
-0.017835
-0.021343
-0.028359
-0.011456
-0.024851
-0.023894
-0.02804
-0.02517
-0.0069916
-0.012732
-0.030272
-0.055785
-0.045899
-0.038564
-0.02517
-0.033142
-0.032504
-0.044942
-0.026445
-0.023575
-0.020386
-0.018153
-0.012094
-0.0089051
0.0025757
0.00066221
0.0076782
0.0057648
-0.0073105
0.010548
0.0060837
-0.012732
-0.0089051
0.0073593
-0.0085862
-0.028678
-0.013689
-0.035056
-0.053871
-0.060569
-0.059931
-0.062801
-0.071411
-0.074282
-0.078746
-0.083211
-0.070136
-0.066947
-0.070455
-0.069498
-0.057061
-0.060887
-0.058974
-0.042391
-0.046536
-0.053234
-0.049407
-0.041115
-0.042391
-0.051001
-0.063439
-0.075876
-0.067903
-0.066628
-0.066628
-0.073644
-0.074919
-0.075876
-0.071411
-0.062482
-0.042391
-0.050363
-0.054509
-0.057379
-0.04845
-0.044942
-0.047174
-0.040796
-0.03665
-0.0050782
-0.025488
-0.045261
-0.055466
-0.062163
-0.054509
-0.047493
-0.044942
-0.049726
-0.06025
-0.056104
-0.04845
-0.046855
-0.048131
-0.049088
-0.05132
-0.050682
-0.032186
-0.0085862
-0.0095429
0.0035324
-0.0038025
-0.014964
-0.02198
0.0022568
-0.0073105
-0.021024
-0.024213
-0.018791
-0.014327
0.012462
0.01884
-0.012094
-0.014327
-0.028996
-0.033461
-0.036012
0.008635
0.017883
0.004808
0.00098112
0.0076782
-0.0018891
-0.014327
-0.017197
-0.03091
-0.032504
-0.015283
-0.025488
-0.037607
-0.0105
-0.028996
-0.048131
-0.050044
-0.048131
-0.04558
-0.064395
-0.058017
-0.044942
-0.058017
-0.066947
-0.072049
-0.10171
-0.070455
-0.051639
-0.066947
-0.068541
-0.068222
-0.067266
-0.076195
-0.061844
-0.059293
-0.058017
-0.058017
-0.033142
-0.058017
-0.062482
-0.062163
-0.059293
-0.066628
-0.067903
-0.073644
-0.065671
-0.057379
-0.058017
-0.044304
-0.055785
-0.05132
-0.060569
-0.05132
-0.037288
-0.032823
-0.035375
-0.044304
-0.047174
-0.030272
-0.018153
-0.017197
-0.048131
-0.034418
-0.037607
-0.027721
-0.024851
-0.017197
0.0016189
0.028726
0.03351
0.026175
0.017883
0.0028946
-0.0053971
-0.0015702
0.011186
0.016608
-0.0044404
-0.0044404
-0.024213
-0.041434
-0.04271
-0.053871
-0.079703
-0.082254
-0.086719
-0.084487
-0.07779
-0.091822
-0.08927
-0.08066
-0.062163
-0.036331
-0.03952
-0.058336
-0.06886
-0.04845
-0.030272
-0.032186
-0.026764
-0.014008
-0.025488
-0.03091
-0.043028
-0.029953
-0.041753
-0.081298
-0.089908
-0.10681
-0.099794
-0.084487
-0.099476
-0.090546
-0.074919
-0.077152
-0.075876
-0.10394
-0.10649
-0.094373
-0.083849
-0.036331
-0.016559
-0.029634
-0.047493
-0.04845
-0.072368
-0.058017
-0.043347
-0.052915
-0.058336
-0.053234
-0.052915
-0.059931
-0.059293
-0.064714
-0.051958
-0.054828
-0.026764
-0.025807
-0.051001
-0.055785
-0.056104
-0.045261
-0.032186
-0.036331
-0.039202
0.0016189
-0.021661
-0.020067
-0.045261
-0.049088
-0.03378
-0.035694
0.0025757
0.0079971
-0.0085862
-0.077152
-0.053552
-0.058336
-0.064714
-0.081617
-0.081298
-0.11797
-0.10011
-0.12595
-0.11925
-0.1269
-0.10617
-0.14476
-0.16134
-0.13169
-0.11893
-0.1033
-0.079065
-0.036331
-0.041434
-0.061525
-0.067585
-0.065033
-0.040796
-0.011456
0.0019378
-0.018791
-0.026764
-0.031548
-0.047493
-0.047812
-0.026126
-0.047493
-0.07173
-0.084168
-0.093097
-0.082254
-0.069817
-0.050044
-0.074601
-0.067585
-0.054828
-0.072368
-0.079065
-0.064395
-0.073006
-0.070455
-0.060887
-0.030272
-0.071411
-0.10235
-0.086081
-0.09246
-0.087357
-0.099476
-0.11702
-0.12307
-0.080341
-0.097562
-0.094054
-0.092141
-0.05132
-0.0047593
-0.02198
-0.027402
-0.0050782
-0.016878
-0.0053971
0.011824
0.012143
0.018202
0.025218
-0.0073105
-0.03091
-0.017516
-0.017516
-0.038245
-0.017835
-0.035375
-0.054509
-0.074282
-0.060887
-0.050682
-0.057698
-0.059293
-0.046536
-0.061206
-0.059293
-0.056742
-0.017197
-0.016878
-0.04558
-0.05132
-0.046536
-0.055147
-0.050682
-0.042391
-0.023575
-0.028359
-0.044942
-0.094373
-0.082573
-0.084487
-0.11223
-0.11638
-0.11351
-0.13583
-0.11797
-0.11
-0.12977
-0.13743
-0.11542
-0.13583
-0.1403
-0.13264
-0.11606
-0.12212
-0.11064
-0.092141
-0.095011
-0.084806
-0.078109
-0.084806
-0.057379
-0.074282
-0.083211
-0.093735
-0.07779
-0.042072
-0.036331
-0.06599
-0.043985
-0.042072
-0.017835
-0.061206
-0.079065
-0.086719
-0.08927
-0.096286
-0.087676
-0.066628
-0.06886
-0.074601
-0.093097
-0.084806
-0.071093
-0.085125
-0.082254
-0.067585
-0.08927
-0.069817
-0.049088
-0.035375
-0.022937
-0.01911
-0.029953
-0.058017
-0.040477
-0.027402
-0.028678
-0.032504
-0.024851
-0.026764
-0.043666
-0.054509
-0.061844
-0.064077
-0.060887
-0.071411
-0.067903
-0.084487
-0.11255
-0.1218
-0.13232
-0.12244
-0.10075
-0.12977
-0.13551
-0.15241
-0.18144
-0.17155
-0.15784
-0.16677
-0.16868
-0.1572
-0.13838
-0.13009
-0.11893
-0.1387
-0.132
-0.08353
-0.058336
-0.038245
-0.017516
0.0095917
0.00098112
0.0070404
0.022029
0.023624
0.047223
0.028088
0.0054459
-0.011456
-0.0105
-0.011456
-0.044304
-0.086719
-0.10235
-0.096286
-0.10394
-0.12403
-0.13105
-0.10777
-0.10841
-0.10904
-0.10426
-0.11064
-0.090227
-0.087676
-0.10362
-0.045899
-0.046218
-0.077471
-0.05132
-0.031229
-0.046536
-0.074919
-0.072687
-0.06312
-0.081617
-0.0982
-0.08066
-0.087357
-0.064077
-0.10872
-0.087995
-0.10203
-0.090865
-0.085125
-0.087676
-0.03378
-0.043028
-0.072687
-0.088314
-0.080022
-0.067585
-0.078427
-0.083211
-0.098519
-0.11446
-0.13328
-0.1285
-0.10171
-0.10394
-0.13615
-0.15656
-0.14859
-0.1336
-0.10394
-0.1151
-0.13296
-0.11733
-0.11606
-0.12658
-0.0982
-0.088952
-0.060569
-0.090227
-0.089908
-0.078109
-0.086719
-0.091822
-0.07779
-0.075557
-0.064395
-0.061525
-0.021661
0.020435
0.022667
0.022986
0.0076782
-0.0041214
0.0092728
0.039569
0.04531
0.032872
0.062531
0.066039
0.036061
-0.0053971
-0.037607
-0.032186
-0.018791
-0.04558
-0.062163
-0.085125
-0.096286
-0.11255
-0.10043
-0.12499
-0.1269
-0.1387
-0.12307
-0.12658
-0.14795
-0.17538
-0.17378
-0.17952
-0.17506
-0.1639
-0.15624
-0.15241
-0.17633
-0.16166
-0.14699
-0.17219
-0.16262
-0.15497
-0.14699
-0.13392
-0.14444
-0.12563
-0.087357
-0.039839
-0.046536
-0.029315
-0.042391
-0.068222
-0.05419
-0.035694
-0.033142
-0.012413
-0.031229
-0.031229
-0.035375
-0.020386
-0.027721
-0.068222
-0.097243
-0.07779
-0.060569
-0.090865
-0.093097
-0.087038
-0.08927
-0.096924
-0.10553
-0.099157
-0.087357
-0.080022
-0.084487
-0.067266
-0.064077
-0.084487
-0.092141
-0.10139
-0.076514
-0.012732
-0.013689
-0.0076295
-0.0063538
-0.028996
-0.03091
-0.03378
-0.0095429
0.0064026
0.004808
-0.056742
-0.079703
-0.072049
-0.062163
-0.073963
-0.055147
-0.061206
-0.075876
-0.093735
-0.12084
-0.12148
-0.132
-0.14508
-0.13009
-0.10904
-0.12499
-0.13232
-0.14859
-0.13711
-0.13487
-0.14636
-0.13105
-0.18335
-0.17187
-0.16421
-0.16645
-0.1741
-0.18909
-0.14699
-0.1167
-0.094054
-0.11096
-0.11128
-0.1218
-0.10777
-0.069498
-0.058017
-0.062801
-0.074601
-0.066309
-0.051639
-0.033142
-0.064395
-0.073963
-0.061206
-0.086081
-0.097881
-0.060887
-0.080022
-0.11638
-0.1269
-0.12148
-0.12148
-0.11478
-0.10011
-0.10203
-0.096605
-0.06886
-0.031867
-0.041434
-0.051958
-0.028678
-0.034418
0.0013
0.018521
0.0057648
0.02458
-0.002208
-0.019748
0.0035324
-0.0089051
-0.021661
-0.05419
-0.061206
-0.083849
-0.11989
-0.14508
-0.19228
-0.18718
-0.13838
-0.14954
-0.16613
-0.16262
-0.20344
-0.22959
-0.22672
-0.18112
-0.16995
-0.15688
-0.13998
-0.084487
-0.044304
-0.0069916
-0.021343
-0.031229
-0.037607
-0.0034836
-0.0098618
-0.00061343
0.019159
-0.0012513
-0.027083
-0.01337
-0.033142
-0.11446
-0.1336
-0.13041
-0.12945
-0.14827
-0.16421
-0.1505
-0.15146
-0.17952
-0.17697
-0.13902
-0.11542
-0.12499
-0.11064
-0.11415
-0.14221
-0.13966
-0.14061
-0.14189
-0.11415
-0.095649
-0.10011
-0.13041
-0.1639
-0.17601
-0.18016
-0.14731
-0.14476
-0.14444
-0.12658
-0.11638
-0.10394
-0.10362
-0.10872
-0.11638
-0.10777
-0.092141
-0.055147
-0.036331
-0.044623
-0.012732
-0.032504
-0.00061343
0.0051269
-0.0069916
0.016927
0.029364
0.025856
-0.0038025
-0.014964
2.4388e-05
-0.012732
0.004808
-0.018153
-0.047812
-0.099476
-0.11351
-0.15433
-0.13519
-0.11223
-0.11446
-0.1639
-0.18973
-0.19834
-0.2044
-0.19674
-0.18207
-0.1757
-0.21205
-0.17888
-0.19132
-0.17442
-0.15784
-0.15528
-0.14412
-0.15656
-0.15337
-0.14636
-0.14667
-0.11989
-0.10809
-0.10649
-0.11989
-0.11223
-0.087357
-0.081298
-0.072368
-0.017197
-0.014964
-0.038883
-0.056423
-0.051639
-0.0073105
0.0016189
-0.030591
-0.037926
-0.031548
-0.029953
-0.043985
-0.056104
-0.077152
-0.0982
-0.10585
-0.11797
-0.094054
-0.10075
-0.1151
-0.11096
-0.12116
-0.11574
-0.11096
-0.11064
-0.095011
-0.075238
-0.045899
-0.019429
-0.065671
-0.040796
-0.027402
-0.0060349
-0.020705
0.0092728
-0.011775
-0.018791
-0.065352
-0.053871
-0.0105
-0.017197
-0.047493
-0.08066
-0.073963
-0.0864
-0.11128
-0.097881
-0.03091
0.015332
0.0057648
-0.010181
0.0028946
0.023305
0.01023
0.01884
0.0035324
0.032872
0.029045
-0.011775
-0.048769
-0.053234
-0.032504
-0.074282
-0.12116
-0.14859
-0.15401
-0.11159
-0.08066
-0.11733
-0.12563
-0.12595
-0.12212
-0.11383
-0.083211
-0.087357
-0.10235
-0.08066
-0.11319
-0.096286
-0.093416
-0.086719
-0.10904
-0.11383
-0.11478
-0.12148
-0.12276
-0.11733
-0.091503
-0.073006
-0.066309
-0.067266
-0.059293
-0.061844
-0.014327
-0.0053971
0.016289
-0.0073105
-0.02198
0.0095917
0.0073593
0.0044891
-0.021661
-0.0082673
0.0028946
0.0003433
0.012781
-0.012094
-0.040796
-0.056423
-0.064077
-0.052277
-0.082254
-0.083211
-0.061844
-0.044623
-0.032504
-0.02804
0.0028946
-0.012094
-0.022937
-0.045261
-0.0085862
-0.0069916
-0.0076295
-0.048131
-0.02198
-0.053552
-0.064077
-0.06312
-0.071411
-0.070774
-0.082254
-0.11765
-0.090227
-0.070455
-0.080979
-0.061525
-0.054828
-0.06886
-0.069817
-0.04558
-0.01624
-0.00061343
0.037337
0.079752
0.065082
0.048499
0.035423
0.0019378
0.0070404
-0.00093234
-0.027721
-0.018472
0.01597
-0.02198
-0.039839
-0.034418
-0.10553
-0.13679
-0.13487
-0.12722
-0.13615
-0.094692
-0.088952
-0.081935
-0.042391
-0.041753
-0.029315
-0.032823
-0.017197
-0.0076295
-0.0015702
-0.050044
-0.0041214
-0.0053971
-0.061206
-0.016878
-0.052915
-0.088633
-0.098519
-0.091503
-0.11829
-0.099476
-0.09246
-0.082892
-0.019748
0.031278
-0.0063538
0.024899
0.049137
0.04818
0.068271
0.049137
0.035742
0.0089539
-0.0053971
-0.012413
0.0067215
-0.0041214
-0.023575
-0.051958
-0.041753
-0.058017
-0.096286
-0.13264
-0.12595
-0.10266
-0.089908
-0.090227
-0.10075
-0.093097
-0.10043
-0.10043
-0.07173
-0.005716
-0.01624
-0.044304
-0.056742
-0.067903
-0.046536
-0.058655
-0.062163
-0.02517
-0.056423
-0.10043
-0.066947
-0.065033
-0.13009
-0.12913
-0.13774
-0.14954
-0.17857
-0.1674
-0.12052
-0.082254
-0.027721
-0.0015702
-0.016878
-0.023575
-0.0053971
0.0013
-0.0031647
0.024899
-0.0079484
-0.0034836
0.03351
0.040526
-0.002208
-0.032504
-0.062801
-0.039839
-0.044304
-0.076195
-0.055466
-0.036012
-0.041115
-0.025807
0.025856
0.077201
0.070185
0.078795
0.051688
0.0041702
-0.032504
-0.085443
0.017564
0.015651
-0.035694
-0.10075
-0.09533
-0.096924
-0.12499
-0.13073
-0.17282
-0.19228
-0.19738
-0.12499
-0.11159
-0.084806
-0.074601
-0.0076295
-0.032823
-0.026764
-0.0018891
-0.013689
-0.00061343
-0.009224
0.0051269
-0.01624
2.4388e-05
-0.01337
-0.059612
-0.063439
-0.080341
-0.10713
-0.12754
-0.13169
-0.1438
-0.13232
-0.098838
-0.05132
-0.056423
-0.023256
-0.02517
-0.015602
-0.010819
0.0051269
0.018202
-0.011775
0.0013
0.018521
0.016927
0.04531
0.085811
0.045629
0.059342
0.043077
0.032872
0.031278
0.0079971
0.045947
0.087725
0.093784
0.071141
-0.016878
-0.00029452
-0.012094
-0.022299
0.0016189
-0.014327
-0.070455
-0.10872
-0.10904
-0.098838
-0.11765
-0.14699
-0.12563
-0.10553
-0.11383
-0.087038
-0.073325
-0.066309
-0.02517
-0.0063538
-0.009224
-0.024851
0.011505
-0.0079484
-0.0073105
0.0041702
-0.011775
-0.009224
0.0022568
-0.035375
-0.036012
-0.03952
-0.084806
-0.095649
-0.092778
-0.10458
-0.1151
-0.10904
-0.03665
-0.0041214
-0.026445
-0.017516
0.0070404
-0.015283
-0.02198
-0.053871
-0.012094
-0.0015702
0.010867
0.0131
-0.04271
-0.061525
-0.080341
-0.089589
-0.11638
-0.13232
-0.14986
-0.14476
-0.1269
-0.10362
-0.080341
-0.0864
-0.057061
-0.073644
-0.071093
-0.02517
-0.037926
-0.005716
0.012462
0.016289
0.0038513
0.03351
0.0076782
0.030002
0.014375
-0.051958
-0.011137
0.0089539
-0.0050782
-0.0038025
-0.005716
0.0025757
-0.032504
-0.037607
-0.042391
-0.028359
-0.03378
-0.044942
-0.10075
-0.085762
-0.057698
0.004808
-0.035694
-0.030591
-0.050363
-0.010181
0.062531
0.043077
0.022986
-0.0028458
-0.005716
0.0060837
-0.015921
-0.0015702
-0.009224
-0.00029452
-0.0085862
0.0044891
-0.018472
-0.031229
-0.064077
-0.090546
-0.074282
-0.024213
-0.0025269
-0.020067
-0.035056
-0.033142
-0.043347
-0.024213
-0.037926
-0.067903
-0.059612
-0.044942
-0.057698
-0.037926
-0.011137
0.0038513
0.035742
-0.0050782
-0.041753
-0.051639
0.0051269
0.014056
-0.047174
-0.044942
-0.030272
-0.029315
-0.032823
-0.029634
-0.10235
-0.084168
-0.09246
-0.10266
-0.08927
-0.091184
-0.0864
-0.092141
-0.080022
-0.050363
-0.060887
-0.005716
0.037975
0.0060837
-0.027721
-0.045261
-0.065352
-0.048769
-0.070455
-0.06025
-0.047174
-0.04558
-0.050682
-0.069498
-0.056742
-0.065352
-0.057379
-0.039202
-0.050363
-0.048769
-0.053234
-0.031867
0.065401
0.03064
0.039569
0.052963
0.050093
0.053601
0.021072
0.014694
0.028407
0.0095917
0.06285
0.012462
-0.018472
-0.035694
-0.026126
-0.034099
-0.067266
-0.072368
-0.088952
-0.090865
-0.10777
-0.10617
-0.073006
-0.078109
-0.078427
-0.087995
-0.084487
-0.0982
-0.091822
-0.053871
-0.057379
-0.088633
-0.075557
-0.073963
-0.073963
-0.044304
0.0041702
-0.0028458
-0.0089051
-0.0041214
0.0089539
-0.0038025
-0.010819
-0.01337
-0.025488
-0.00061343
2.4388e-05
0.044353
0.035742
0.066995
0.059023
0.033829
0.025856
0.015013
0.010867
0.028407
0.0057648
0.026494
0.010548
-0.02198
0.046904
-0.017835
-0.050682
-0.071411
-0.095968
-0.10968
-0.10841
-0.094054
-0.096924
-0.099794
-0.10043
-0.058017
-0.028996
-0.016559
-0.046218
-0.046536
-0.0015702
-0.00061343
-0.0025269
-0.0069916
0.0032135
0.032553
0.00098112
0.0028946
-0.035694
-0.045899
-0.032186
-0.03952
-0.057379
-0.064395
-0.054509
-0.058974
-0.06886
-0.05419
-0.065352
-0.057698
-0.047493
-0.035694
-0.044304
-0.045261
-0.048769
-0.058974
-0.025807
0.023624
0.022667
-0.00061343
-0.010181
-0.0066727
-0.012094
0.013738
0.019159
0.0076782
0.008316
-0.0038025
-0.013051
-0.012413
-0.018791
-0.024532
-0.050044
-0.035694
-0.035694
-0.024213
-0.024213
-0.0066727
-0.017835
-0.034099
-0.015283
-0.01337
-0.012094
-0.024213
-0.046855
-0.024851
-0.0073105
0.0060837
-0.0076295
-0.010819
0.084536
0.10112
0.071779
0.055515
0.037656
0.044991
0.037975
0.053601
0.05392
0.05392
0.091233
0.12631
0.11196
0.051369
0.011824
-0.027721
-0.042391
-0.036969
-0.055785
-0.044942
-0.033142
-0.024213
-0.051958
-0.048769
-0.04845
-0.073006
-0.072368
-0.039839
-0.047812
-0.037607
-0.040796
-0.028678
-0.0085862
0.0054459
2.4388e-05
-0.020067
-0.023894
0.022348
0.014694
0.0070404
-0.0031647
-0.0095429
-0.036012
-0.03378
-0.036969
-0.038883
-0.038883
-0.039202
-0.05132
-0.055466
-0.04558
-0.034418
-0.038883
-0.041753
-0.032823
-0.02804
-0.018791
0.0070404
-0.0031647
-0.0047593
0.017883
0.02171
0.016289
0.017883
0.0054459
0.00098112
0.021072
0.01023
0.023305
0.020754
0.01597
0.0073593
0.015332
0.017246
0.0095917
-0.0031647
-0.0069916
-0.00061343
0.0013
0.0076782
0.0099106
0.0028946
0.015332
0.021391
0.032234
0.059661
0.10399
0.098568
0.093146
0.12504
0.16076
0.16458
0.11228
0.10782
0.13492
0.070503
0.070503
0.069547
0.087725
0.069866
0.025218
0.020116
-0.015921
-0.0018891
-0.021024
-0.046855
-0.042391
0.0003433
-0.0066727
-0.022299
-0.022618
-0.00093234
0.0016189
-0.029634
-0.043985
-0.018791
-0.013689
-0.046536
-0.04558
-0.037607
-0.066309
-0.070774
-0.073006
-0.062482
-0.05419
-0.056742
-0.078746
-0.081298
-0.059612
-0.044623
-0.043347
-0.044942
-0.056742
-0.039202
-0.027721
-0.022299
-0.019748
-0.014008
0.013419
0.0057648
0.027132
0.0051269
0.0057648
0.0051269
0.017883
0.018202
0.029045
0.027132
0.019797
0.0073593
0.0051269
-0.0031647
-0.00061343
0.0067215
0.031278
0.023943
0.014375
0.046266
0.022348
0.03638
0.046904
0.046585
0.040845
0.026494
0.053601
0.0079971
0.034467
0.049137
0.044991
0.025218
0.0131
0.022986
0.023943
0.017883
0.059342
0.071141
0.070503
0.058704
0.052326
0.060617
0.070822
0.067314
0.056471
0.071779
0.075925
0.11388
0.059979
0.047223
0.028726
0.019478
0.0032135
-0.0076295
0.012462
-0.01624
-0.047493
-0.034418
-0.045899
-0.054828
-0.058017
-0.057061
-0.030591
-0.010819
-0.0076295
-0.018472
-0.02198
-0.02517
-0.0066727
0.0076782
0.029683
0.069547
0.051369
0.058066
0.037656
0.052963
0.054558
0.061574
0.047861
0.040845
0.06285
0.07433
0.069547
0.030002
0.0025757
0.03925
0.054558
0.012462
0.0079971
0.015013
0.008316
-0.0085862
-0.010819
-0.040477
-0.024532
-0.021024
-0.011775
-0.01337
-0.031548
-0.012413
-0.010181
0.01023
0.031596
0.0095917
-0.0025269
-0.0050782
0.021072
0.018202
-0.00061343
0.0073593
0.012462
0.010548
-0.00061343
0.018202
0.018202
-0.0050782
-0.031867
-0.023894
-0.0069916
0.011505
-0.0028458
-0.024532
-0.015921
-0.017835
-0.013051
-0.0028458
-0.0082673
-0.015602
-0.00029452
-0.0012513
0.019478
0.028726
0.016289
0.012781
0.020435
0.02777
0.040845
0.017564
0.037018
0.03638
0.025218
0.025856
0.028088
0.034148
0.013419
0.010548
0.014056
-0.002208
0.0013
0.02171
0.015013
0.017564
0.015013
0.028088
0.055834
0.07146
0.073374
0.08039
0.063806
0.089
0.10239
0.081028
0.083579
0.068909
0.069547
0.084854
0.056471
0.046266
0.033829
0.03351
-0.0012513
-0.0053971
-0.0044404
-0.022937
-0.020705
-0.022299
-0.037288
-0.032186
-0.0050782
-0.014327
-0.0079484
-0.037288
-0.015283
-0.0034836
-0.014008
0.0057648
-0.0012513
-0.0105
-0.024851
0.0064026
-0.0044404
-0.021024
-0.0044404
-0.0044404
-0.012094
0.004808
0.0099106
-0.0038025
-0.009224
0.016608
0.004808
0.00066221
0.022348
0.00066221
-0.0076295
0.0003433
-0.0012513
-0.0098618
-0.0105
-0.020705
-0.024213
-0.015602
-0.014327
0.016927
-0.0079484
-0.020067
-0.024532
-0.012413
-0.002208
0.021072
0.0044891
-0.0095429
0.0054459
0.026494
0.035104
0.008316
0.023624
0.0067215
0.029045
0.037018
0.034786
0.017564
0.026494
0.036061
0.0095917
0.027132
0.029045
0.023624
0.01597
0.0099106
0.00066221
-0.0069916
0.0051269
0.004808
-0.028678
-0.0044404
0.013738
0.0076782
-0.0044404
-0.0069916
-0.0076295
-0.0082673
0.032553
0.037337
0.024262
0.020435
0.017883
0.035104
0.05679
0.053282
0.039888
0.047542
0.064125
0.058066
0.052645
0.039569
0.023624
0.03925
0.044672
0.032872
0.013419
2.4388e-05
0.0019378
0.0038513
-0.00093234
-0.012094
-0.034737
-0.022937
-0.018153
-0.02198
-0.016559
-0.015283
0.02171
0.043715
0.023624
0.050093
0.052007
0.037337
0.022029
0.040526
0.062531
0.063806
0.059023
0.060936
0.037975
0.03925
0.041483
0.046585
0.032553
0.017883
0.016608
0.00098112
0.0099106
-0.0018891
0.0070404
-0.0012513
-0.0044404
-0.013689
-0.018153
-0.0066727
-0.012094
-0.0015702
-0.0044404
0.018521
0.015013
0.013738
0.053601
0.083898
0.088681
0.1008
0.085492
0.05679
0.078795
0.085492
0.11451
0.10335
0.090595
0.050093
0.061255
0.07433
0.050412
0.036699
0.017883
0.0067215
0.011824
0.0035324
0.00098112
0.0028946
-0.0041214
0.00098112
0.0038513
-0.011456
-0.013689
-0.035694
-0.048131
-0.028359
-0.016878
-0.035056
-0.03665
-0.055785
-0.023575
-0.026126
-0.027083
-0.026445
-0.023256
-0.016559
-0.014964
0.0092728
0.030002
0.044034
0.040526
0.054239
0.064763
0.075606
0.079114
0.068271
0.069866
0.077201
0.088044
0.089319
0.043715
0.018202
0.031278
0.01023
-0.0047593
-0.014645
-0.023256
-0.036331
-0.044623
-0.039839
-0.029315
-0.046218
-0.015921
-0.011775
-0.022618
-0.0053971
2.4388e-05
0.02777
0.018202
0.029683
0.039888
0.070185
0.071141
0.048499
0.029364
0.060617
0.052326
0.03064
0.017564
0.015013
0.031596
0.0057648
0.017564
0.00066221
-0.017197
-0.01337
0.0028946
0.0019378
0.008635
0.0019378
-0.025488
-0.012094
-0.0018891
-0.002208
-0.023575
0.004808
0.03064
0.0044891
-0.035694
-0.047493
-0.037607
-0.036969
-0.069498
-0.062163
-0.068541
-0.063439
-0.085125
-0.10362
-0.083849
-0.075238
-0.075238
-0.064395
-0.056104
-0.056423
-0.041434
-0.034737
-0.035375
-0.015921
-0.023256
-0.022937
-0.0066727
0.0022568
0.027132
0.018202
-0.0060349
0.012781
0.020116
0.019159
0.0019378
0.032553
0.046266
0.018202
0.064444
0.017246
0.0016189
-0.0063538
0.0016189
0.016927
-0.0063538
0.0028946
-0.012094
0.0025757
-0.017197
-0.013689
-0.036012
-0.057061
0.0016189
0.036061
0.018521
0.014694
0.0057648
0.008316
0.027132
0.043715
0.01023
0.020754
0.066358
0.027132
0.025856
0.037975
0.03925
0.036061
0.0013
0.0003433
-0.0079484
-0.0105
-0.011775
-0.051001
-0.044623
-0.038245
-0.045899
2.4388e-05
0.029045
-0.02198
-0.041753
-0.024851
-0.0069916
-0.017835
-0.00093234
0.01597
0.01884
0.016289
0.023305
-0.021024
-0.033461
-0.019429
-0.029634
-0.051001
-0.07173
-0.10139
-0.11415
-0.087357
-0.096924
-0.11064
-0.11351
-0.10426
-0.090865
-0.10043
-0.0982
-0.09533
-0.096605
-0.089908
-0.075557
-0.085125
-0.061206
-0.059293
-0.068222
-0.083849
-0.075557
-0.077471
-0.072049
-0.059293
-0.044942
-0.039202
-0.032823
-0.020386
-0.019429
-0.014008
0.0099106
0.041802
0.036699
0.044672
0.052645
0.039888
0.025856
0.03925
0.043077
0.07433
0.067952
0.097292
0.13301
0.091233
0.072417
0.09793
0.08613
0.078795
0.069228
0.075925
0.062531
0.055515
0.036061
0.044353
-0.016559
-0.018791
-0.037288
-0.093735
-0.09533
-0.095649
-0.094054
-0.078746
-0.10681
-0.13519
-0.13551
-0.13487
-0.11733
-0.091184
-0.10171
-0.11319
-0.080341
-0.073006
-0.084806
-0.087038
-0.084806
-0.085125
-0.059293
0.008316
-0.0073105
-0.0076295
-0.0063538
-0.016878
-0.0041214
0.016608
0.020754
0.022029
0.020435
0.025537
0.010548
-0.009224
-0.005716
-0.011456
-0.025488
-0.041115
-0.039839
-0.071411
-0.073644
-0.06025
-0.049407
-0.04558
-0.048769
-0.058655
-0.070136
-0.048769
-0.031229
-0.020386
-0.012413
0.0079971
0.040207
0.017246
0.011186
0.0028946
-0.0079484
-0.032504
-0.0053971
0.0070404
-0.0015702
0.01884
0.0067215
-0.022618
-0.0012513
0.020754
0.014694
0.050731
0.022348
0.021391
0.047223
0.059661
0.049774
0.075925
0.061574
0.058385
0.040526
0.0070404
-0.0018891
-0.031229
-0.023256
-0.0098618
-0.019748
-0.033142
-0.053234
-0.055147
-0.068222
-0.076833
-0.051958
-0.061525
-0.087038
-0.06886
-0.078746
-0.060887
-0.078427
-0.078746
-0.072368
-0.092778
-0.095011
-0.10139
-0.10872
-0.10203
-0.09533
-0.088633
-0.081298
-0.037926
-0.046855
-0.063758
-0.038245
-0.049088
-0.047493
-0.044304
-0.035694
-0.023894
0.011505
0.01023
-0.02804
-0.056742
-0.039202
-0.010819
-0.029315
-0.019748
-0.02804
-0.03091
-0.03952
-0.059293
-0.048131
-0.026126
-0.016878
-0.02517
-0.016559
0.026175
0.016289
-0.011137
-0.005716
2.4388e-05
0.014694
0.022348
0.040526
0.025218
0.020435
0.02171
0.030959
-0.020386
-0.026764
-0.051958
-0.051639
-0.010181
-0.0044404
-0.002208
-0.029634
-0.026126
0.042439
0.10303
0.078157
0.053282
0.061255
0.075925
0.095697
0.1177
0.12185
0.11037
0.11579
0.066039
0.05392
0.023305
0.008316
-0.0076295
-0.042391
-0.065352
-0.085443
-0.093735
-0.0864
-0.088314
-0.092141
-0.078109
-0.052915
-0.073325
-0.085443
-0.065352
-0.032823
-0.0031647
0.0099106
0.028726
0.049455
0.013738
0.018521
0.02171
0.031596
0.039569
-0.0038025
-0.015921
-0.026445
-0.025807
-0.035056
-0.055785
-0.068541
-0.040477
-0.067266
-0.089589
-0.087357
-0.095968
-0.096605
-0.1049
-0.097881
-0.093416
-0.090865
-0.093097
-0.10043
-0.093097
-0.079703
-0.089908
-0.095968
-0.087357
-0.067903
-0.053234
-0.04845
-0.031867
-0.037607
-0.037607
-0.025488
0.0016189
-0.0041214
-0.0012513
0.0095917
0.013419
0.0079971
0.0060837
0.012462
-0.0012513
0.016927
0.053282
0.084536
0.051369
0.028088
0.038294
0.037018
0.069228
0.099843
0.087087
0.066995
0.05105
0.046585
0.05679
0.064763
0.040526
0.0038513
0.0044891
-0.0053971
-0.032504
-0.052277
-0.052596
-0.048131
-0.035375
0.0076782
0.022029
-0.019748
-0.032823
-0.038245
-0.026764
0.0067215
0.0057648
0.011186
0.013419
0.064125
0.10782
0.041483
-0.014008
-0.0050782
0.0089539
-0.017516
0.010867
-0.0050782
-0.022937
-0.039839
-0.071093
-0.082573
-0.079703
-0.078109
-0.087995
-0.081935
-0.061525
-0.057698
-0.058336
-0.055785
-0.048769
-0.032823
-0.029634
-0.0038025
-0.020705
-0.023575
-0.012413
0.0028946
0.0003433
0.0032135
-0.019748
-0.043347
-0.044942
-0.038883
-0.02517
-0.038883
-0.046855
-0.054828
-0.055785
-0.042072
-0.045261
-0.047174
-0.050044
-0.046855
-0.039839
-0.036331
-0.020705
-0.024851
-0.034418
-0.014645
-0.0073105
0.0003433
-0.0015702
-0.0076295
-0.0050782
-0.0028458
0.02171
0.02458
0.021072
0.010867
0.0051269
0.0092728
0.048818
0.071779
0.015332
0.026494
0.032234
0.03064
0.045629
0.064125
0.058704
0.055196
0.094422
0.14481
0.11993
0.050731
0.032872
0.046904
0.054239
0.059979
0.061574
0.064444
0.059342
0.078795
0.072417
0.014056
0.017883
0.023943
0.0079971
0.0067215
0.0076782
0.0073593
0.021072
0.0076782
0.015651
0.00098112
-0.012413
-0.030272
-0.043347
-0.037607
-0.029634
-0.038564
-0.026126
-0.038564
-0.03378
-0.059612
-0.061525
-0.085762
-0.074919
-0.068222
-0.059293
-0.064395
-0.087038
-0.077152
-0.083211
-0.07173
-0.064077
-0.056423
-0.052915
-0.036969
-0.030591
-0.027721
-0.014645
2.4388e-05
-0.0044404
-0.0034836
0.012781
0.008635
0.0070404
-0.0031647
-0.0063538
-0.014327
0.0131
0.0079971
0.0054459
-0.0012513
2.4388e-05
-0.0079484
-0.0095429
0.0016189
-0.002208
-0.0015702
-0.00061343
0.010548
0.015651
0.0070404
0.0032135
0.010867
0.0057648
0.017883
0.029683
0.026175
0.046266
0.074012
0.058385
0.038612
0.066358
0.078476
0.052645
0.046585
0.07146
0.047542
0.041164
0.057428
0.024899
0.023624
0.04531
0.053601
0.029045
0.034148
0.0064026
-0.0012513
0.033829
0.03064
0.033829
0.03638
0.030959
0.027132
0.019478
0.0131
0.016289
0.0131
0.0051269
2.4388e-05
0.0032135
-0.0034836
0.016289
0.0025757
0.0092728
0.0064026
0.015651
0.0044891
-0.0041214
0.0131
0.0073593
0.022029
-0.0079484
0.0013
0.030959
-0.0082673
-0.012094
-0.027721
-0.015921
-0.0047593
-0.029315
-0.044304
-0.032504
-0.041753
-0.047812
-0.053871
-0.06886
-0.088314
-0.07779
-0.067903
-0.083211
-0.062482
-0.067266
-0.070774
-0.083211
-0.078746
-0.058336
-0.050363
-0.043347
-0.034737
-0.033461
-0.039839
-0.03665
-0.011775
-0.017516
-0.016559
-0.012732
-0.0041214
0.0067215
0.010867
0.010867
0.0038513
0.01023
0.010867
0.014056
0.049455
0.04818
0.03925
0.028407
0.018202
0.021391
0.013738
0.023305
0.014375
0.021072
0.040526
0.037337
0.01597
-0.0050782
0.0095917
0.0076782
0.0051269
0.0092728
0.0003433
0.0131
0.032872
0.02777
0.0041702
-0.0012513
0.02777
0.0044891
0.022029
0.035104
0.02458
0.030959
0.042121
0.031915
0.023624
0.037018
0.023305
0.0041702
-0.029953
-0.027402
-0.020705
-0.038245
-0.055466
-0.056423
-0.070136
-0.066309
-0.060569
-0.072368
-0.079703
-0.075557
-0.06312
-0.041115
-0.020067
-0.021343
-0.012094
-0.0095429
-0.011456
-0.0050782
-0.0044404
-0.0015702
0.0019378
0.0003433
-0.0063538
0.017883
0.0131
-0.012094
-0.0047593
-0.0073105
-0.016878
-0.010819
-0.017835
-0.017516
-0.0031647
-0.020386
-0.01911
-0.031548
-0.036331
-0.041753
-0.032823
-0.011137
0.0079971
0.025537
0.0073593
0.0131
0.012781
0.0057648
0.023624
0.055515
0.071779
0.064763
0.040845
0.042758
0.0035324
0.013738
-0.027083
-0.010181
0.026175
0.014375
-0.015921
-0.042072
-0.08066
-0.091822
-0.076195
-0.081617
-0.079384
-0.06886
-0.070136
-0.064077
-0.072368
-0.094692
-0.10458
-0.05419
-0.032186
-0.023894
-0.032186
-0.032823
-0.026445
-0.0041214
0.011505
0.01884
0.0067215
-0.00093234
0.016608
0.0054459
-0.0018891
-0.0031647
-0.0053971
-0.01911
-0.00029452
-0.0047593
0.0019378
-0.0098618
-0.0098618
-0.016559
-0.023575
0.0051269
2.4388e-05
0.0051269
0.0044891
-0.0076295
-0.0063538
-0.0082673
-0.011775
-0.0018891
-0.014327
-0.0028458
0.008635
0.018202
0.0051269
-0.0098618
0.0099106
0.037975
0.036061
0.035423
0.035423
0.047223
0.04531
0.049137
0.035423
0.027132
0.042439
0.016927
-0.0085862
0.0041702
2.4388e-05
0.0089539
0.027132
-0.016559
-0.023894
-0.023894
-0.04271
-0.046855
-0.046218
-0.046536
-0.043347
-0.045899
-0.052277
-0.076195
-0.063758
-0.055466
-0.047493
-0.067266
-0.064714
-0.062163
-0.078746
-0.047174
-0.041434
-0.03952
-0.047493
-0.058336
-0.044304
-0.033142
-0.027402
-0.022937
-0.012094
0.017564
0.0076782
0.040845
0.067952
0.042121
0.042758
0.05392
0.077838
0.08326
0.079114
0.076882
0.063487
0.038294
0.03351
0.018521
0.0044891
-0.0031647
-0.015921
-0.03378
-0.052915
-0.051958
-0.06312
-0.071093
-0.078427
-0.056742
-0.052277
-0.068222
-0.055466
-0.032504
-0.017516
-0.014008
-0.0041214
-0.015921
-0.00029452
0.027132
0.026494
0.028726
0.028088
0.037656
0.022986
0.026175
0.037975
0.02171
0.0019378
0.0095917
0.01884
0.0076782
0.016608
-0.00061343
-0.023575
-0.0066727
0.012462
-0.0034836
-0.0098618
-0.0063538
0.013738
0.0092728
0.01884
2.4388e-05
0.01597
0.032872
0.043715
0.03064
0.014694
0.023624
0.017883
0.00098112
0.0092728
0.020754
0.014694
0.0041702
-0.0073105
-0.0085862
-0.013689
-0.042072
-0.057061
-0.056742
-0.06312
-0.058017
-0.050044
-0.044623
-0.055785
-0.088633
-0.050682
-0.031229
-0.040158
-0.015602
-0.01624
-0.01911
-0.009224
0.052007
0.046904
0.018521
0.0079971
0.017883
0.044034
0.058704
0.073693
0.036699
0.019478
0.05105
0.065082
0.089
0.058066
0.062212
0.059023
0.052326
0.074968
0.055196
0.052645
0.058066
0.043396
0.032872
-0.00029452
-0.027083
-0.031867
-0.038883
-0.061206
-0.053234
-0.082573
-0.11446
-0.11733
-0.10075
-0.075557
-0.03665
-0.018472
-0.01337
-0.036969
-0.035694
-0.0050782
0.0079971
0.031915
0.044353
0.060617
0.066358
0.081984
0.057109
0.028726
-0.0025269
-0.019429
-0.011775
-0.012732
-0.043347
-0.081935
-0.080979
-0.08353
-0.073325
-0.087357
-0.094373
-0.10107
-0.079384
-0.062163
-0.084487
-0.084806
-0.061525
-0.04558
-0.029315
-0.0089051
-0.029634
-0.036331
-0.058336
-0.031548
-0.030591
-0.012413
0.029045
-0.016878
-0.047812
-0.023256
-0.0069916
-0.0063538
0.0051269
0.031278
0.042758
0.073055
0.080709
0.073055
0.057747
0.095697
0.096654
0.070185
0.085492
0.093465
0.072736
0.080709
0.11069
0.074968
0.04818
0.044353
0.028088
2.4388e-05
0.0131
-0.016559
-0.045899
-0.050682
-0.045261
-0.024213
-0.042072
-0.056742
-0.091503
-0.10681
-0.084806
-0.11223
-0.091822
-0.088633
-0.10522
-0.10713
-0.086719
-0.082254
-0.084806
-0.066947
-0.072368
-0.043985
-0.042072
-0.088633
-0.065352
-0.074919
-0.034099
-0.021024
-0.038883
-0.014964
-0.002208
0.036061
0.0092728
-0.013689
-0.0041214
0.0131
-0.026764
-0.035375
-0.024532
0.00066221
-0.015921
-0.026445
-0.068222
-0.072368
-0.073644
-0.065671
-0.073006
-0.094054
-0.079065
-0.074601
-0.047493
-0.028996
-0.0015702
-0.06599
-0.05419
-0.013051
2.4388e-05
0.0044891
0.027451
0.018202
0.034148
0.040207
0.04818
0.035742
0.032872
0.0003433
-0.014964
0.023943
0.023624
0.018202
0.010867
0.0089539
0.015651
0.008635
-0.0085862
-0.020705
-0.009224
-0.0085862
0.0038513
0.039569
0.020435
0.062212
0.059023
0.021391
0.011505
0.0025757
-0.0105
0.0022568
0.034148
0.012462
0.00066221
-0.0098618
-0.039839
-0.048131
-0.066947
-0.075238
-0.058655
-0.052277
-0.051639
-0.076833
-0.10139
-0.090546
-0.076833
-0.043347
-0.047493
-0.034737
-0.064714
-0.069179
-0.068541
-0.055466
-0.047812
-0.056423
-0.011137
-0.043985
-0.088633
-0.06312
-0.096286
-0.097881
-0.11191
-0.10362
-0.10777
-0.10171
-0.1269
-0.10139
-0.092141
-0.096924
-0.1218
-0.095968
-0.038245
-0.020705
-0.029634
-0.048769
-0.036969
0.0070404
0.027132
0.021072
0.0073593
0.01597
0.016927
-0.024851
-0.045261
-0.050363
-0.03378
-0.034737
-0.017516
-0.025807
-0.04558
-0.04558
-0.031229
-0.0079484
-0.009224
-0.0053971
0.020116
-0.011775
-0.022299
0.057747
0.094422
0.078157
0.060298
0.034467
0.06285
0.066677
0.087725
0.070185
0.046904
0.021072
0.0076782
0.047861
0.0089539
-0.031548
-0.037607
-0.02804
-0.01337
-0.034099
-0.055785
-0.09246
-0.089908
-0.088952
-0.069498
-0.079384
-0.063439
-0.04845
-0.06599
-0.087357
-0.088314
-0.10394
-0.07779
-0.052915
-0.055147
-0.06312
-0.099157
-0.1202
-0.082892
-0.083211
-0.10298
-0.085443
-0.076195
-0.062163
-0.076833
-0.12307
-0.12371
-0.084806
-0.051639
-0.053552
-0.06025
-0.092778
-0.069817
-0.062801
-0.082892
-0.077471
-0.073006
-0.052915
-0.023894
-0.034099
-0.053552
-0.049407
-0.034737
-0.0034836
-0.041434
-0.046218
-0.032823
-0.010181
-0.01337
-0.015921
0.01884
-0.0082673
0.0092728
0.025537
0.037975
0.038931
0.063806
0.071141
0.032234
0.034148
0.032234
0.04531
0.032234
0.040526
0.012143
-0.032823
-0.049088
-0.043985
-0.032186
-0.057379
-0.094373
-0.11957
-0.11446
-0.091503
-0.098838
-0.11861
-0.099794
-0.11861
-0.099476
-0.087357
-0.11128
-0.090546
-0.077471
-0.075876
-0.079703
-0.064077
-0.075557
-0.057698
-0.06025
-0.053234
-0.054828
-0.058017
-0.046855
-0.01337
-0.019748
-0.042072
-0.032823
-0.0063538
-0.015921
-0.0079484
-0.014964
-0.049088
-0.035694
-0.020386
-0.022299
-0.0098618
-0.027083
-0.055147
-0.045261
-0.036331
-0.079703
-0.094054
-0.068541
-0.067266
-0.072687
-0.069817
-0.043028
-0.088952
-0.095011
-0.08066
-0.028996
-0.042391
-0.064395
-0.08927
-0.095011
-0.088314
-0.056423
-0.069817
-0.06599
-0.058974
-0.047493
-0.084806
-0.12499
-0.1387
-0.044304
-0.057379
-0.082573
-0.042391
-0.049726
-0.051001
-0.061525
-0.034099
-0.036969
-0.02517
-0.035694
-0.053234
-0.060569
-0.094054
-0.065033
-0.049407
-0.06599
-0.074601
-0.070136
-0.063439
-0.050363
-0.03665
-0.012094
-0.043985
-0.079384
-0.042072
-0.020067
-0.01624
-0.046536
-0.026126
-0.039202
-0.025807
-0.083211
-0.10968
-0.10936
-0.10841
-0.11351
-0.10043
-0.11223
-0.11415
-0.10553
-0.096286
-0.070136
-0.06025
-0.06312
-0.050363
-0.03091
-0.020386
-0.015602
0.00098112
-0.013051
0.0019378
-0.0034836
-0.0012513
-0.022299
-0.048769
-0.02517
-0.01911
-0.02198
-0.025807
-0.060569
-0.093416
-0.10522
-0.11606
-0.099157
-0.084806
-0.073006
-0.090865
-0.095011
-0.11351
-0.1049
-0.084487
-0.083849
-0.09533
-0.065033
-0.056423
-0.059612
-0.020705
-0.039839
-0.034737
-0.03952
0.0095917
0.0032135
-0.037288
-0.055785
-0.063758
-0.040477
-0.014964
-0.0018891
-0.037926
-0.037288
-0.024532
-0.06025
-0.058336
-0.027721
0.0076782
0.018202
0.035104
0.03638
0.021072
0.0076782
-0.022618
0.016608
-0.0044404
0.064125
-0.015283
-0.039839
-0.028996
-0.081298
-0.13105
-0.11893
-0.13456
-0.14636
-0.16039
-0.17027
-0.17027
-0.17538
-0.15624
-0.14317
-0.1336
-0.12658
-0.11255
-0.089589
-0.074601
-0.058017
-0.027083
-0.011456
-0.02198
-0.0044404
-0.01911
0.0070404
-0.014964
-0.043985
-0.0089051
-0.052915
-0.052915
-0.043666
-0.058017
-0.082892
-0.076833
-0.065352
-0.082573
-0.092141
-0.11733
-0.078109
-0.09533
-0.082573
-0.076833
-0.054828
-0.038883
-0.052915
-0.039839
-0.043028
-0.039202
-0.029315
0.01023
0.01884
-0.0076295
-0.014008
-0.038883
0.011505
-0.0028458
-0.018791
-0.033461
-0.039839
-0.086081
-0.058017
-0.073644
-0.043028
0.0051269
0.022667
0.029683
0.0073593
-0.01624
-0.023894
0.00066221
0.011824
-0.010181
-0.048769
0.042121
0.018202
-0.031229
-0.12658
-0.090865
-0.1049
-0.10936
-0.11446
-0.1454
-0.11989
-0.11159
-0.12499
-0.080341
-0.033461
-0.058655
-0.047812
-0.044942
0.022029
-0.011137
-0.0079484
-0.0044404
-0.036331
-0.0066727
0.0089539
-0.037607
-0.043985
-0.052277
-0.083849
-0.058017
-0.053552
-0.026764
-0.03665
-0.067266
-0.021024
0.043077
0.035104
0.017883
-0.015283
-0.046536
-0.029634
0.0051269
0.023624
0.023943
-0.020705
-0.07173
-0.080979
-0.076195
-0.086719
-0.08066
-0.11383
-0.096286
-0.093735
-0.11542
-0.11574
-0.11415
-0.11319
-0.09533
-0.053234
-0.054509
-0.060887
-0.069817
-0.080341
-0.057061
-0.032504
-0.038564
-0.063758
-0.035375
-0.055785
-0.053234
-0.048769
-0.020067
-0.063758
-0.035694
0.011505
-0.0025269
0.0070404
0.028726
0.07146
0.10303
0.076244
0.092508
0.058704
0.057109
0.082941
0.078795
0.028088
0.055515
0.008635
-0.046855
-0.052277
-0.051639
-0.06886
-0.12658
-0.13487
-0.13296
-0.15624
-0.14061
-0.12435
0.01023
0.0092728
0.0041702
-0.01337
-0.029953
-0.029953
-0.0095429
-0.01337
0.037337
0.089957
-0.034737
-0.058974
-0.051958
-0.058655
-0.098519
-0.12722
-0.15273
-0.1741
-0.17474
-0.18941
-0.18686
-0.1454
-0.11255
-0.11989
-0.10585
-0.087676
-0.064714
-0.046855
-0.049407
-0.043985
-0.0038025
0.012781
0.0057648
0.01597
-0.00093234
0.020754
-0.01337
0.0032135
-0.029315
-0.018791
-0.029953
-0.03952
-0.0063538
0.032872
-0.0073105
-0.035375
-0.046536
0.021391
0.18244
0.13716
0.070503
0.069228
0.067633
0.03064
0.020435
0.024262
-0.010819
0.026175
0.017883
0.015651
-0.062163
-0.080341
-0.10171
-0.14859
-0.21205
-0.17825
-0.19993
-0.12499
-0.014327
-0.017835
-0.056742
-0.058655
-0.062801
-0.074919
-0.045899
-0.0034836
-0.04271
-0.016559
-0.026126
-0.078109
-0.038883
-0.047493
-0.073644
-0.10043
-0.14221
-0.1556
-0.16453
-0.15465
-0.14986
-0.12626
-0.11542
-0.061525
-0.047174
-0.030591
-0.035375
-0.039839
-0.043666
-0.030591
-0.0079484
-0.065352
-0.026445
-0.05132
-0.034418
-0.048769
-0.068541
-0.09246
-0.11606
-0.12499
-0.12084
-0.12212
-0.11223
-0.074282
0.032234
0.052645
0.040526
0.041483
0.043396
0.054877
0.036061
-0.0018891
0.034467
0.0076782
0.048818
-0.019748
-0.0038025
0.010548
-0.064714
-0.10968
-0.1269
-0.13169
-0.14221
-0.13774
-0.13551
-0.13073
-0.12084
-0.10298
-0.087995
-0.08066
-0.050044
-0.040477
-0.019748
-0.02517
-0.03378
-0.011137
0.030002
0.061255
0.017246
-0.056104
0.020435
0.028088
-0.0105
-0.038245
-0.054509
-0.10139
-0.13551
-0.096924
-0.13392
-0.17793
-0.16932
-0.18718
-0.19961
-0.20121
-0.19738
-0.19547
-0.18112
-0.13806
-0.11829
-0.06025
0.026813
0.044034
0.023305
0.018521
0.016289
0.008316
0.012143
-0.017516
0.030002
0.046266
0.020754
0.0067215
-0.0060349
-0.050363
-0.078109
-0.095011
-0.10777
-0.10458
-0.086719
-0.082254
-0.10713
-0.099157
-0.073006
-0.050363
-0.050682
-0.066309
-0.062801
-0.08927
-0.067903
-0.081935
-0.055466
-0.047812
-0.11128
-0.11383
-0.034099
-0.022299
-0.0047593
0.014694
-0.039839
-0.037607
-0.051958
-0.029634
-0.050682
-0.040796
-0.045261
-0.090227
-0.032504
-0.035056
-0.081298
-0.14604
-0.14157
-0.14667
-0.16804
-0.1808
-0.17282
-0.14125
-0.058336
0.014375
-0.034418
-0.036012
-0.034099
-0.038245
-0.06312
-0.080979
-0.058336
-0.01911
-0.013051
-0.074919
-0.087038
-0.083849
-0.14444
-0.16804
-0.20216
-0.19132
-0.19961
-0.18367
-0.16007
-0.11861
-0.060887
0.025218
0.049137
0.067633
0.096016
0.10877
0.095378
0.072417
0.076882
0.057747
0.10048
0.10813
0.027132
0.00066221
-0.027721
-0.062482
-0.11861
-0.17314
-0.20472
-0.21301
-0.24299
-0.25351
-0.24586
-0.2382
-0.22672
-0.2044
-0.19036
-0.19993
-0.17761
-0.16995
-0.15241
-0.14221
-0.13998
-0.13838
-0.1218
-0.066309
-0.051001
-0.067585
-0.06025
-0.056104
-0.051639
-0.042391
-0.040158
-0.044623
-0.03665
-0.024532
-0.0038025
0.014375
-0.002208
-0.0060349
-0.030272
-0.052915
-0.022937
-0.0085862
-0.014327
-0.0050782
0.0019378
0.020754
0.032872
0.0095917
-0.029953
-0.01624
0.0070404
0.023943
0.087087
0.044991
0.041802
0.067314
0.079752
0.053282
0.019159
-0.027083
-0.027083
0.0079971
-0.0082673
-0.036331
-0.067266
-0.069817
-0.080341
-0.094692
-0.11446
-0.11638
-0.1269
-0.1151
-0.08353
-0.066628
-0.066309
-0.058336
-0.056742
-0.043985
-0.038883
-0.073644
-0.052277
-0.0105
-0.082573
-0.098838
-0.025807
-0.048131
-0.077152
-0.10171
-0.080341
-0.10936
-0.12276
-0.10585
-0.11096
-0.084487
-0.028996
0.022667
0.02171
0.025537
0.021391
0.012143
0.039569
-0.0073105
-0.044623
0.04818
0.073374
0.044353
-0.02804
-0.038883
-0.052596
-0.065671
-0.079384
-0.087676
-0.10936
-0.094692
-0.056742
-0.060887
-0.061206
-0.069817
-0.073963
-0.041753
-0.046855
-0.021343
-0.051639
-0.058974
-0.039839
-0.045899
-0.091503
-0.087676
-0.099476
-0.12371
-0.15018
-0.13296
-0.13551
-0.13105
-0.11542
-0.1049
-0.082573
-0.085762
-0.060887
-0.039202
0.0079971
0.038931
-0.016559
-0.028996
-0.015283
0.010548
0.012143
0.015013
-0.041434
-0.03952
-0.060887
-0.032186
-0.056104
-0.091822
-0.10362
-0.093416
-0.068222
-0.073006
-0.031867
-0.019429
0.0095917
-0.0098618
-0.023575
-0.009224
0.03638
-0.0069916
0.022348
0.029364
0.049137
0.06285
0.014694
-0.019748
-0.028996
-0.009224
-0.0105
0.012462
-0.0018891
-0.056423
-0.06025
-0.11191
-0.078746
-0.031867
0.0060837
-0.03091
-0.048131
0.019797
-0.035694
-0.065033
-0.053234
-0.065033
-0.078746
-0.10043
-0.10617
-0.059293
-0.066947
-0.077471
-0.10809
-0.10075
-0.088952
-0.09533
-0.13902
-0.086719
-0.075557
-0.09533
-0.069498
-0.10107
-0.059293
-0.00061343
-0.054828
-0.083849
-0.069179
-0.080341
-0.088314
-0.093735
-0.084168
-0.11478
-0.11128
-0.094373
-0.091503
-0.11
-0.11383
-0.093735
-0.044304
-0.025488
-0.065671
-0.053552
-0.031548
-0.018153
-0.021661
-0.070455
-0.058017
-0.050363
-0.045899
-0.053552
-0.053234
-0.012094
-0.01624
-0.064077
-0.07779
-0.054828
-0.023894
-0.027721
-0.04845
-0.032823
0.0013
0.015013
-0.010819
-0.00029452
-0.011456
-0.018472
-0.0015702
0.040845
0.044353
0.041802
0.0070404
0.0057648
0.041164
0.070185
0.0076782
-0.021343
0.056153
0.016608
0.028088
0.024899
0.020435
-0.015921
-0.085762
-0.095011
-0.091184
-0.06599
-0.06599
-0.097243
-0.13073
-0.11733
-0.12148
-0.13806
-0.14604
-0.14923
-0.12212
-0.13966
-0.13392
-0.13615
-0.12276
-0.080979
-0.072368
-0.073006
-0.067585
-0.083211
-0.04271
-0.046536
-0.04558
-0.04271
-0.032823
2.4388e-05
0.013738
-0.0063538
-0.0044404
-0.02198
-0.017197
-0.023256
-0.036331
-0.010181
-0.040158
-0.0089051
-0.027721
-0.028359
-0.032186
-0.034099
-0.073006
-0.059612
-0.02198
-0.047493
-0.060887
-0.046855
-0.053871
-0.041753
-0.0076295
0.016289
0.039569
0.023305
0.028088
0.058385
0.075925
0.070503
0.0089539
0.02458
0.03638
0.051369
-0.023894
-0.03091
-0.018153
-0.0041214
-0.017516
-0.04271
-0.091822
-0.093097
-0.093097
-0.076195
-0.07173
-0.049407
-0.087357
-0.067903
-0.062482
-0.042391
-0.034418
-0.05419
-0.034737
-0.034099
-0.070774
-0.064077
-0.035694
-0.017516
-0.04558
-0.055147
-0.01624
-0.012413
0.01884
0.035742
-0.0105
-0.042072
-0.015921
-0.0028458
-0.012732
-0.014645
0.0131
0.0057648
-0.016559
-0.054509
-0.052277
-0.037926
-0.071093
-0.10394
-0.065671
-0.03952
-0.041434
-0.083211
-0.076833
-0.088952
-0.084487
-0.01911
-0.014327
-0.069179
-0.034099
-0.015921
0.026175
0.023943
0.0051269
0.01597
0.035104
0.03064
0.025218
-0.019429
0.031596
0.053282
0.0064026
-0.017835
-0.017197
-0.050682
-0.077471
-0.053552
-0.047493
-0.025488
-0.076833
-0.069817
-0.061525
-0.085762
-0.073006
-0.062482
-0.072049
-0.074919
-0.071093
-0.072687
-0.069498
-0.064714
-0.064395
-0.078427
-0.056742
-0.043985
-0.028996
-0.012094
0.042439
0.063487
0.075925
0.099843
0.087406
0.082303
0.047542
0.12727
0.096335
0.12185
0.16044
0.10941
0.10112
0.046266
0.021391
0.027132
-0.013689
-0.032504
-0.022937
-0.049088
-0.042072
-0.080022
-0.10203
-0.094054
-0.096924
-0.077471
-0.096924
-0.09246
-0.092141
-0.078427
-0.074919
-0.082573
-0.069498
-0.061206
-0.052915
-0.043028
-0.03091
-0.024851
-0.051001
-0.03091
-0.03091
-0.032823
-0.023894
-0.014645
-0.021024
-0.057698
-0.032186
0.013419
0.022986
0.025856
0.029364
0.020754
0.031915
0.052645
0.028407
0.0095917
0.023305
0.025537
0.029364
0.076244
0.079433
0.052645
0.025537
0.029045
0.0060837
-0.0089051
-0.028996
0.013738
0.020435
0.01023
-0.016878
-0.018472
-0.017197
-0.030272
-0.029953
-0.041753
-0.048131
-0.04845
-0.064395
-0.034099
-0.0044404
0.046266
0.020754
0.017564
0.028726
0.027451
0.010867
-0.0095429
0.02458
0.052645
0.040207
0.03351
-0.0034836
0.00066221
-0.0047593
-0.047174
-0.03378
-0.044942
-0.043347
-0.027721
-0.032823
-0.035056
-0.031548
-0.019748
0.0028946
-0.0066727
-0.023256
-0.032504
-0.014327
-0.0038025
0.0076782
-0.022299
-0.036969
-0.032504
-0.0069916
-0.0079484
-0.020386
-0.03091
-0.033142
-0.035694
-0.012732
-0.02198
-0.032504
-0.018472
-0.015921
-0.01337
0.0054459
0.010548
-0.0098618
0.010548
0.02777
0.061255
0.040845
0.061893
0.06572
0.044353
0.078476
0.084854
0.070503
0.082622
0.069547
0.047861
0.040526
0.053601
0.020754
0.0003433
0.024899
0.0019378
-0.016559
-0.02517
-0.017516
-0.023575
-0.027721
-0.035375
-0.051639
-0.029315
-0.031548
-0.029315
-0.038245
-0.034099
-0.032186
-0.064395
-0.020386
-0.0050782
0.0035324
0.0041702
0.017564
0.022986
0.0089539
0.016608
0.043396
0.034148
0.039569
0.036699
0.046904
0.040207
0.011186
0.0051269
0.0016189
0.015332
0.0092728
0.0067215
-0.0082673
-0.02198
-0.0082673
-0.0060349
0.0041702
0.0073593
0.0070404
-0.020386
-0.017197
0.0044891
0.016927
0.022029
-0.0089051
0.0032135
0.018202
0.0035324
0.025537
0.023305
0.024899
0.020435
0.01597
0.030002
0.037656
0.0095917
0.0051269
0.035104
0.017246
0.017246
0.030321
0.019797
0.0025757
0.022348
0.026813
0.0079971
-0.0050782
0.019797
0.012143
-0.0085862
0.025218
0.023624
0.0076782
-0.0018891
0.0028946
0.0022568
-0.005716
-0.020067
-0.0025269
-0.00029452
0.0054459
0.035423
0.029045
0.028726
0.039569
0.05392
0.074649
0.057747
0.061574
0.059979
0.063487
0.054239
0.040845
0.043396
0.025218
0.028088
0.035104
0.045947
0.044034
0.026175
-0.014964
-0.014327
-0.018791
0.012462
0.03064
-0.0085862
-0.01337
-0.014645
-0.0060349
-0.00093234
-0.00061343
-0.030272
-0.028996
-0.027721
-0.0018891
-0.012094
-0.011137
-0.022299
-0.0085862
0.0003433
0.034786
-0.0012513
-0.0044404
0.0095917
-0.0073105
-0.01337
-0.014645
-0.0076295
-0.021024
0.0019378
0.00066221
-0.0089051
-0.00093234
0.004808
0.012781
0.021072
0.045629
0.045947
0.036699
0.037656
0.04818
0.063487
0.060936
0.043715
0.027451
0.01023
0.021072
0.040207
-0.0018891
0.0054459
-0.011775
-0.022299
-0.031229
-0.029315
-0.035694
-0.02804
-0.031867
-0.034099
-0.037607
-0.040477
-0.020386
-0.0105
0.0067215
0.0070404
0.042439
0.064763
0.076882
0.071141
0.051688
0.048499
0.10016
0.10654
0.10526
0.080071
0.061255
0.07433
0.035742
0.040207
0.018202
0.029045
0.03064
-0.021661
-0.029634
-0.036331
-0.030591
-0.025807
0.025856
-0.0073105
-0.0098618
-0.015921
-0.0044404
0.042439
0.045947
0.015651
-0.027402
-0.029634
-0.0031647
0.023305
0.00098112
-0.02198
-0.014645
-0.0034836
-0.043347
-0.027083
-0.041434
-0.035694
-0.036331
-0.024851
-0.020386
-0.023575
-0.0012513
-0.009224
0.029045
0.027451
0.041802
0.035423
0.023624
0.026175
0.026813
0.03351
0.053282
0.044353
0.029683
0.0057648
-0.012094
-0.013051
-0.011775
-0.011775
-0.029634
-0.013689
-0.0028458
-0.0044404
0.0067215
0.0073593
0.0095917
0.012781
0.010548
0.0022568
0.030002
0.0044891
0.030002
0.042758
0.042439
0.040845
0.015332
-0.0079484
-0.0082673
-0.0105
0.0019378
-0.026445
-0.030591
-0.020067
-0.02198
-0.038564
-0.052277
-0.051958
-0.051639
-0.060887
-0.062163
-0.066309
-0.061844
-0.074919
-0.056104
-0.033142
-0.015921
-0.00061343
0.016927
0.029364
0.026494
0.040845
0.019159
0.047223
0.030959
0.0057648
0.035104
0.059979
0.048499
0.00098112
-0.038564
-0.026764
-0.031229
-0.016878
-0.014645
-0.050682
-0.076833
-0.070136
-0.050044
-0.049088
-0.066309
-0.037926
-0.060887
-0.03952
-0.033461
-0.04845
-0.054509
-0.00061343
0.016927
0.0089539
0.015332
0.019478
0.014056
0.012462
0.019478
0.025856
-0.01624
0.017883
0.016289
0.0067215
-0.026445
-0.061206
-0.061206
-0.074919
-0.062482
-0.073325
-0.082573
-0.095011
-0.096286
-0.087357
-0.078109
-0.055466
-0.040796
-0.047812
-0.050682
-0.031548
-0.031548
-0.029953
-0.014645
-0.0025269
-0.037607
-0.014645
-0.0073105
-0.012094
-0.0041214
-0.014645
-0.032823
-0.044623
-0.043985
-0.055466
-0.042072
-0.050363
-0.02804
-0.041434
-0.051001
-0.041753
-0.03378
-0.04271
-0.0073105
0.01884
0.041802
0.033829
0.018202
0.025856
0.039888
0.092189
0.07433
0.082622
0.045947
0.038612
0.029045
0.017246
-0.0063538
-0.014645
-0.035375
-0.029315
0.0028946
-0.022937
-0.040158
-0.059293
-0.06025
-0.062482
-0.065033
-0.067585
-0.058017
-0.034099
-0.056423
-0.057061
-0.040477
-0.051958
-0.070136
-0.040477
-0.031229
-0.036969
-0.053871
-0.078746
-0.051639
-0.062482
-0.034418
-0.060569
-0.068541
-0.056104
-0.051639
-0.061844
-0.064714
-0.064077
-0.077152
-0.10011
-0.071411
-0.054509
-0.060887
-0.06025
-0.061525
-0.060887
-0.05132
-0.025807
-0.023256
-0.047174
-0.033142
-0.030591
-0.014964
-0.016878
-0.0076295
-0.01337
0.0041702
-0.00061343
0.00098112
-0.0076295
0.0079971
0.0079971
0.0051269
-0.0028458
0.0051269
0.0057648
0.025218
0.020435
0.0076782
-0.0018891
-0.0031647
0.0051269
0.029683
0.052645
0.10973
0.10941
0.10367
0.11101
0.097292
0.092508
0.13875
0.12886
0.11866
0.085811
0.12057
0.089319
0.090914
0.081346
0.037337
0.017246
0.0025757
-0.01911
-0.020386
-0.023575
-0.03091
-0.044942
-0.06025
-0.052596
-0.075557
-0.096924
-0.079065
-0.085125
-0.097243
-0.10872
-0.094054
-0.10745
-0.097881
-0.099157
-0.078746
-0.061844
-0.052277
-0.048131
-0.053234
-0.047493
-0.01911
0.0032135
0.01884
0.015651
-0.0060349
-0.0076295
-0.013051
-0.01337
-0.026126
-0.0085862
-0.0044404
-0.014964
-0.024851
-0.026764
-0.028359
-0.03091
-0.025807
-0.04845
-0.036969
-0.037607
-0.027083
-0.031229
-0.033142
-0.026764
-0.037926
-0.041753
-0.023575
0.0013
-0.0050782
0.0076782
0.017564
0.0079971
0.0073593
0.025537
0.018202
0.022348
0.061255
0.072098
0.085173
0.11706
0.12886
0.17766
0.1649
0.16745
0.1834
0.19073
0.20668
0.18818
0.16586
0.15406
0.17
0.17032
0.098886
0.074649
0.041802
-0.0073105
-0.0089051
-0.052277
-0.087676
-0.093097
-0.076195
-0.072687
-0.082254
-0.096286
-0.086719
-0.060887
-0.041434
-0.057061
-0.064714
-0.049407
-0.031867
-0.024213
-0.029953
-0.03378
-0.023894
-0.036969
-0.040477
-0.030591
-0.047812
-0.061206
-0.048131
-0.03378
-0.023575
-0.013051
-0.022299
-0.043028
-0.052915
-0.028359
-0.019748
-0.018791
-0.022937
-0.038245
-0.028996
-0.024532
-0.044623
-0.04558
-0.047812
-0.030591
-0.032504
-0.038245
-0.0079484
-0.0095429
-0.0079484
-0.030272
-0.041115
-0.038883
-0.018153
-0.005716
-0.019748
0.0060837
0.017246
0.016927
0.051369
0.069547
0.079752
0.074012
0.075606
0.066995
0.095378
0.072417
0.084217
0.094103
0.093784
0.092508
0.067952
0.039888
0.036061
0.031596
0.036061
0.019478
0.0016189
-0.012094
-0.025488
0.012781
0.0038513
-0.011456
-0.021343
-0.017835
0.0035324
0.022986
0.023624
0.0016189
0.0057648
0.015332
0.0003433
0.004808
0.10112
0.063169
0.028088
0.02458
0.034786
0.012143
0.0054459
0.011186
0.008635
0.0076782
-0.030591
-0.045899
-0.070136
-0.055466
-0.065033
-0.063758
-0.071411
-0.072687
-0.085762
-0.093416
-0.10458
-0.088952
-0.075557
-0.051639
-0.025488
0.025537
0.0054459
0.010548
-0.0079484
0.0057648
0.040207
0.052007
0.055196
0.031278
0.028088
0.008635
0.0025757
0.00066221
-0.0095429
-0.017516
-0.029634
-0.042072
-0.085762
-0.090546
-0.089589
-0.091503
-0.031229
-0.025488
-0.009224
0.017564
0.029683
0.037656
0.058066
0.09187
0.08039
0.092508
0.11706
0.081346
0.065401
0.054877
0.042439
0.059661
0.01597
-0.019748
-0.028359
-0.029953
-0.037607
-0.057698
-0.06312
-0.043985
-0.045261
-0.021661
-0.036012
-0.015921
0.0070404
0.01023
0.01023
0.049137
0.020116
0.023305
0.0067215
0.0064026
0.023305
0.023943
0.021072
-0.0044404
-0.025488
-0.015921
-0.02517
-0.032823
-0.082254
-0.091503
-0.041115
-0.088633
-0.078109
-0.091822
-0.073325
-0.076833
-0.078427
-0.081298
-0.071093
-0.052915
-0.032823
-0.043028
-0.062163
-0.049088
-0.026764
-0.0085862
-0.015921
-0.0085862
-0.0041214
0.00066221
-0.0089051
-0.050363
-0.02804
-0.036012
-0.030272
-0.01911
-0.038564
-0.063439
-0.047174
-0.062482
-0.059293
-0.05132
-0.041753
-0.028996
-0.024851
0.062531
0.050093
0.040207
0.032234
0.056153
0.06285
0.072098
0.07752
0.10399
0.082622
0.097611
0.087406
-0.00061343
-0.023575
-0.037607
-0.062801
-0.072368
-0.079703
-0.099157
-0.10649
-0.12754
-0.12052
-0.14285
-0.12882
-0.10617
-0.13615
-0.13456
-0.12626
-0.11957
-0.11446
-0.10841
-0.090227
-0.086719
-0.078109
-0.1151
-0.12945
-0.12212
-0.11064
-0.095649
-0.086719
-0.094054
-0.098838
-0.091184
-0.06886
-0.080022
-0.072368
-0.068541
-0.062163
-0.050682
-0.052915
-0.048769
-0.04845
-0.034099
-0.017197
-0.026764
-0.029634
-0.017516
0.0003433
-0.00093234
-0.002208
-0.017197
-0.014964
0.010548
0.029364
0.041164
0.029683
0.026175
0.04531
0.042121
0.044353
0.064125
0.056471
0.06285
0.058704
0.015013
0.029045
0.046266
0.040526
0.030959
0.00098112
-0.029315
-0.010181
0.0028946
0.012781
-0.056742
-0.093097
-0.043985
0.0022568
-0.015283
-0.023894
-0.035056
-0.026126
-0.013689
-0.0041214
-0.0038025
-0.018153
-0.03091
-0.03952
-0.03665
-0.041753
-0.047174
-0.017516
-0.028359
-0.04558
-0.052915
-0.057698
-0.058017
-0.045899
-0.050363
-0.024851
-0.031548
-0.032186
-0.047812
-0.059612
-0.053871
-0.060887
-0.043347
-0.038883
-0.03665
-0.043347
-0.056742
-0.085125
-0.064714
-0.066628
-0.060569
-0.048769
-0.051639
-0.061844
-0.048131
-0.055147
-0.058974
-0.056104
-0.053234
-0.046855
-0.04271
-0.052277
-0.034418
0.0022568
-0.011775
-0.015283
0.0013
0.0025757
0.019797
0.041483
0.031278
0.031596
0.031278
0.035742
0.038612
0.027451
0.030321
0.019478
0.0095917
0.004808
0.019159
0.024899
0.043715
0.026494
0.0079971
0.0003433
0.016927
0.025218
0.038612
0.058066
0.050412
0.054239
0.045629
0.048499
0.034786
0.045629
0.029683
0.04818
0.038612
0.021391
0.03064
0.022667
-0.0060349
-0.014327
-0.009224
-0.0044404
-0.014645
-0.031548
-0.019429
-0.041753
-0.037288
-0.036969
-0.049726
-0.030591
-0.022618
0.0041702
-0.00061343
-0.0038025
0.0025757
0.058385
0.032872
0.032553
0.06572
0.049774
0.019797
0.034786
0.059023
0.043715
0.051369
0.051688
0.053601
0.046585
0.034786
0.055515
0.044672
0.018521
0.014694
0.02777
0.02458
0.033829
0.018202
0.021391
0.018521
0.0032135
-0.0012513
0.0016189
-0.022618
-0.021024
-0.014645
-0.024213
-0.032186
-0.032823
-0.01911
-0.02804
-0.029953
-0.034099
-0.041115
-0.032504
-0.028678
-0.038245
-0.038245
-0.029953
-0.019748
-0.01911
-0.019429
-0.010181
-0.014645
-0.0044404
-0.009224
0.0099106
0.0016189
-0.012732
-0.01337
0.00066221
0.0067215
2.4388e-05
0.0076782
0.0070404
0.018202
0.034467
0.0035324
0.0051269
0.012143
0.0070404
0.015013
0.023624
0.052645
0.055515
0.072417
0.081665
0.071779
0.048818
0.011824
0.034148
0.019797
0.042758
0.052645
0.060617
0.047542
0.029683
0.0092728
0.017883
0.0054459
0.0060837
0.0035324
-0.0028458
-0.0105
-0.011775
-0.014327
-0.01624
-0.020705
-0.012732
-0.014008
-0.019748
-0.020067
-0.02198
-0.028996
-0.021661
-0.0034836
0.0067215
-0.01337
-0.013051
-0.014008
0.0044891
0.0131
0.037656
0.036699
0.025856
0.032872
0.040845
0.033191
0.035742
0.049137
0.047223
0.042121
0.055515
0.085811
0.06572
0.054239
0.058704
0.046904
0.031278
0.038294
0.050093
0.028407
0.064444
0.066995
0.050731
0.0060837
-0.009224
0.014694
0.0064026
0.016927
-0.011456
-0.021024
-0.02198
-0.044304
-0.057379
-0.05419
-0.048131
-0.04845
-0.063439
-0.061206
-0.050044
-0.025807
-0.04271
-0.036331
-0.039839
-0.025807
-0.0018891
-0.0069916
-0.010181
-0.0060349
0.0016189
0.0025757
-0.0079484
-0.0073105
-0.020386
-0.011775
-0.0076295
-0.011775
-0.012732
-0.020067
-0.026764
-0.034099
-0.02804
-0.0089051
-0.016878
-0.02804
-0.028996
-0.031867
-0.039839
-0.034737
-0.023256
-0.041115
-0.027083
-0.021024
-0.025488
-0.024851
-0.022937
-0.015283
-0.012732
-0.00029452
-0.0015702
-0.0028458
-0.0018891
0.00066221
0.0060837
0.008635
0.016289
0.0051269
0.0022568
0.015651
0.019159
0.023305
0.035742
0.035104
0.044991
0.047542
0.059661
0.052326
0.046585
0.060936
0.069228
0.06572
0.070503
0.070503
0.048499
0.055515
0.060936
0.074649
0.070503
0.057428
0.058385
0.043715
0.053282
0.059023
0.042121
0.01023
0.026813
0.02777
0.028407
0.02777
0.037337
-0.016559
-0.0015702
0.018521
-0.0031647
-0.029953
-0.017197
2.4388e-05
0.0025757
0.0076782
0.0032135
-0.013689
-0.048769
-0.034737
-0.019429
-0.035056
-0.037926
-0.04558
-0.048131
-0.050044
-0.045899
-0.05132
-0.053871
-0.060569
-0.052915
-0.05419
-0.03378
-0.044623
-0.048769
-0.043347
-0.042072
-0.035694
-0.033461
-0.028996
-0.039839
-0.028678
-0.033142
-0.024213
-0.020705
-0.017197
-0.0105
-0.013051
-0.0041214
0.0003433
0.0003433
-0.0076295
-0.0028458
-0.0060349
-0.0031647
-0.0025269
-0.0034836
-0.016559
-0.0038025
0.0028946
0.0019378
-0.0018891
-0.0041214
-0.0012513
0.0038513
0.015651
0.0073593
0.0070404
0.025537
0.021072
0.028088
0.041483
0.035742
0.021072
0.036699
0.043715
0.053601
0.049137
0.051369
0.050412
0.050093
0.042439
0.050093
0.04818
0.037656
0.031596
0.044353
0.03638
0.057428
0.05392
0.012143
0.018202
0.023943
0.03351
0.032234
0.040207
0.041164
0.043077
0.043077
0.028726
0.016289
0.012462
0.0057648
0.01597
0.011824
0.0035324
0.0032135
-0.019429
-0.01624
-0.012732
-0.016559
-0.031867
-0.041115
-0.044942
-0.026445
-0.020067
-0.050363
-0.066628
-0.064077
-0.060887
-0.063758
-0.064714
-0.061525
-0.073325
-0.065352
-0.053552
-0.042391
-0.03952
-0.03665
-0.038564
-0.033142
-0.022618
-0.0015702
-0.012413
-0.018153
-0.0028458
0.0019378
-0.0025269
-0.002208
-0.0063538
-0.019748
-0.0073105
-0.0044404
0.0013
-0.00061343
-0.0012513
-0.00029452
-0.0073105
0.0051269
0.011505
0.0060837
-0.00029452
0.0038513
0.0022568
0.0044891
0.0038513
-0.0018891
-0.020067
-0.0050782
0.0057648
0.0057648
-0.00029452
-0.00061343
-0.00061343
0.0054459
0.026813
0.018202
0.01884
0.015332
0.012781
0.016289
0.024262
0.028088
0.02171
0.028407
0.033829
0.030959
0.023624
0.021072
0.01884
0.023305
0.02458
0.027132
0.03064
0.030959
0.060298
0.044034
0.035423
0.033191
0.020435
0.015651
0.040207
0.046585
0.050731
0.050412
0.030002
0.019478
0.015332
0.011505
0.0041702
-0.0038025
-0.012413
-0.021024
-0.029953
-0.027721
-0.03378
-0.044304
-0.059612
-0.047493
-0.042072
-0.04845
-0.048131
-0.042391
-0.040796
-0.038564
-0.02517
-0.03378
-0.035056
-0.033142
-0.030591
-0.036012
-0.039839
-0.030591
-0.035694
-0.033142
-0.028996
-0.023575
-0.023894
-0.023894
-0.021024
-0.020067
-0.01337
0.0013
-0.0085862
-0.016559
-0.011775
-0.005716
-0.0060349
-0.0073105
-0.0085862
-0.023575
-0.0053971
-0.0031647
-0.0041214
-0.0079484
-0.009224
-0.0060349
-0.009224
0.0025757
0.0070404
0.0067215
0.0025757
0.012143
0.012462
0.019797
0.029045
0.029045
0.029364
0.035423
0.030002
0.028407
0.025856
0.043715
0.03351
0.017564
0.037656
0.026175
0.012781
0.0035324
-0.0076295
-0.0066727
-0.0105
-0.012413
-0.015921
-0.0034836
-0.0076295
-0.0015702
-0.0085862
-0.0015702
0.0028946
0.0060837
0.0092728
0.019159
0.0076782
0.0038513
0.0032135
0.0016189
-0.0076295
-0.012732
-0.019748
-0.031229
-0.020067
-0.014327
-0.02198
-0.036012
-0.047174
-0.030272
-0.023256
-0.014645
-0.014645
-0.019429
-0.024532
-0.020705
-0.021343
-0.021024
-0.01911
-0.016559
-0.026764
-0.017197
-0.011775
-0.011775
-0.017197
-0.019748
-0.020067
-0.0105
0.004808
-0.0095429
-0.012413
-0.0066727
-0.0018891
0.0019378
0.00098112
-0.0050782
-0.018153
-0.0105
-0.0038025
0.0054459
-0.0025269
-0.0044404
-0.002208
-0.0069916
-0.0066727
0.00098112
-0.0060349
-0.011456
-0.010819
-0.01337
-0.014327
-0.014327
-0.012732
-0.027402
-0.010819
-0.0105
-0.012413
-0.012413
-0.010819
-0.0089051
-0.0073105
-0.00061343
-0.0031647
-0.0047593
-0.0082673
-0.0012513
0.0041702
0.0051269
0.0016189
-0.0047593
-0.011456
0.0013
0.0079971
0.0016189
-0.0012513
0.0019378
0.0032135
0.0032135
0.015651
0.0025757
-0.0012513
-0.0012513
-0.0018891
-0.0025269
-0.005716
-0.002208
-0.010819
0.0019378
0.0044891
0.0089539
0.0070404
0.008635
0.011505
0.017564
0.019159
0.034467
0.031915
0.034467
0.037656
0.028407
0.02777
0.030002
0.02777
0.0016189
0.016289
0.024899
0.027451
0.035742
0.030321
0.028407
0.035104
0.03351
0.0079971
0.014694
0.024899
0.03064
0.01597
0.0131
-0.0028458
-0.015602
-0.027721
-0.021343
-0.015602
-0.023894
-0.01911
-0.024213
-0.034418
-0.033461
-0.020067
-0.027083
-0.029634
-0.026445
-0.022618
-0.022618
-0.022618
-0.035375
-0.047812
-0.031867
-0.037288
-0.039202
-0.044623
-0.048769
-0.052915
-0.056742
-0.053234
-0.04558
-0.051639
-0.056423
-0.051001
-0.051958
-0.047812
-0.044623
-0.043985
-0.058017
-0.041115
-0.034418
-0.032823
-0.031229
-0.028359
-0.027402
-0.022618
-0.014964
-0.019429
-0.016878
-0.010819
-0.0063538
-0.0063538
-0.0085862
-0.009224
-0.015283
-0.020705
0.0044891
0.008316
0.0025757
0.0003433
0.0013
0.0051269
0.012143
0.022348
0.012781
0.024899
0.029683
0.032872
0.044034
0.052007
0.049137
0.034467
0.048499
0.057109
0.060617
0.058704
0.064763
0.06285
0.05392
0.06285
0.071141
0.045947
0.0079971
-0.00061343
-0.009224
0.00066221
-0.0028458
-0.024851
-0.049726
-0.042391
-0.062482
-0.066309
-0.062482
-0.069498
-0.069817
-0.066309
-0.057698
-0.068222
-0.070774
-0.063758
-0.06025
-0.054509
-0.042391
-0.044942
-0.054509
-0.05419
-0.045899
-0.033142
-0.032823
-0.027083
-0.025488
-0.023894
-0.019429
0.0064026
-0.01337
-0.028996
-0.019748
-0.010819
-0.0105
-0.0085862
-0.0089051
-0.019748
-0.01337
-0.020386
-0.016878
-0.018472
-0.019748
-0.014008
-0.0105
-0.0085862
-0.0038025
-0.0089051
-0.018153
-0.012732
-0.011137
-0.0098618
-0.0079484
-0.011137
-0.024532
-0.005716
0.0041702
0.0067215
2.4388e-05
-0.0015702
0.008316
0.013419
0.026175
0.019797
0.018202
0.022348
0.022029
0.021391
0.019797
0.022029
0.024262
0.017564
0.017564
0.016608
0.012462
0.010548
0.0016189
-0.0031647
0.0022568
0.018521
-0.0025269
0.0035324
-0.0025269
0.011824
0.018202
-0.002208
-0.0034836
-0.010181
-0.0025269
0.0051269
0.015651
0.0073593
0.004808
0.0044891
0.0076782
0.0025757
-0.0073105
2.4388e-05
-0.013051
-0.017835
-0.018472
-0.012413
-0.021343
-0.024532
-0.039202
-0.018791
-0.018472
-0.023894
-0.029953
-0.022299
-0.0073105
-0.010819
-0.014645
-0.024532
-0.017835
-0.01911
-0.025807
-0.026445
-0.022937
-0.023575
-0.043347
-0.037926
-0.034418
-0.024213
-0.030272
-0.032504
-0.033142
-0.031548
-0.022618
-0.0012513
-0.012732
-0.020067
-0.018791
-0.01624
-0.017516
-0.0095429
-0.0085862
-0.023894
-0.012732
-0.012732
-0.0073105
-0.0063538
-0.0079484
-0.0044404
-0.0053971
0.0035324
0.0057648
-0.0028458
-0.009224
-0.0089051
0.0013
0.0028946
-0.00061343
-0.0063538
-0.021024
-0.0018891
0.0057648
0.00098112
0.0028946
0.0025757
-0.00029452
0.0019378
0.013738
0.0016189
0.0028946
0.0067215
0.015651
0.015013
0.0070404
0.004808
-0.00029452
0.0028946
0.0025757
0.013738
0.0076782
0.013738
0.012781
0.0092728
0.01597
0.023624
0.011186
0.008316
0.008316
0.023943
0.034148
0.023943
0.028088
0.020116
0.035104
0.037656
0.040845
0.034467
0.037975
0.034148
0.037656
0.039569
0.034467
0.010548
0.00098112
0.008635
0.0067215
-0.010181
-0.023894
-0.034099
-0.05132
-0.036012
-0.028678
-0.03378
-0.039202
-0.03952
-0.035375
-0.03378
-0.017835
-0.022299
-0.023894
-0.025807
-0.021343
-0.0076295
-0.0031647
-0.0066727
-0.023575
-0.027083
-0.015921
0.0076782
-0.005716
-0.0069916
-0.0015702
-0.0053971
-0.0066727
0.010548
-0.00029452
-0.014964
-0.0063538
-0.014964
-0.011456
-0.0034836
-0.0069916
-0.023575
-0.012413
-0.0089051
-0.0098618
-0.009224
-0.011775
-0.011456
-0.0095429
-0.005716
-0.0085862
-0.0044404
-0.0060349
-0.0047593
-0.016878
-0.021024
-0.017197
-0.019748
-0.034737
-0.02198
-0.014645
-0.01624
-0.021343
-0.023256
-0.016559
-0.009224
0.0019378
-0.002208
-0.002208
-0.00029452
0.0041702
0.0044891
0.00098112
-0.005716
-0.0098618
0.008316
0.021072
0.0089539
0.020435
0.023943
0.011824
0.0032135
0.0060837
0.022348
0.0092728
0.014694
0.024899
0.01884
0.0099106
-0.0044404
-0.0095429
-0.016559
-0.0105
-0.016878
-0.015602
-0.025807
-0.021661
-0.013689
0.0013
0.0038513
0.0016189
-0.0098618
-0.005716
0.0089539
0.018521
0.021391
0.02171
0.019797
0.0079971
0.031278
0.030002
0.029045
0.020435
0.011505
0.0057648
0.0051269
0.013419
-0.014645
-0.017516
-0.017516
-0.01911
-0.027083
-0.036331
-0.037607
-0.055466
-0.050044
-0.050044
-0.043028
-0.046218
-0.041753
-0.031548
-0.039202
-0.034099
-0.0095429
-0.011456
-0.019748
-0.017835
-0.015921
-0.020386
-0.015283
-0.0034836
-0.020705
-0.0076295
-0.014327
-0.010181
-0.014327
-0.013051
-0.012094
-0.0028458
0.0054459
-0.0089051
-0.0089051
0.0089539
0.0054459
-0.0018891
-0.0038025
-0.0012513
2.4388e-05
-0.00093234
0.0073593
0.013738
0.012143
0.010867
0.0131
0.019159
0.018202
0.040207
0.044672
0.052963
0.032234
0.041483
0.052326
0.04531
0.064125
0.040845
0.038931
0.03638
0.05392
0.053601
0.040526
0.026813
0.004808
-0.010819
0.010548
-0.0034836
-0.0085862
-0.012732
-0.02804
-0.031548
-0.038883
-0.034418
-0.052277
-0.049088
-0.058336
-0.038883
-0.036012
-0.034737
-0.041434
-0.031548
-0.0095429
-0.0053971
0.0019378
0.0076782
0.0079971
0.018521
0.017246
0.01023
0.024899
0.013738
0.025856
0.04531
0.035742
0.031278
0.0067215
0.019797
0.013738
0.022029
-0.0095429
-0.036969
-0.024213
-0.028996
-0.026445
-0.036012
-0.043985
-0.054828
-0.03665
-0.052596
-0.029634
-0.036969
-0.033461
0.028088
0.029364
0.019159
0.031278
0.041164
0.052645
0.056153
0.073374
0.094741
0.086449
0.052963
0.03925
0.056471
0.014056
0.023624
0.042439
0.010548
0.0092728
-0.010181
-0.028359
-0.022618
-0.03091
-0.035694
-0.038883
-0.021024
-0.030272
-0.011137
-0.018153
-0.046536
-0.014327
0.028407
0.0044891
0.0044891
0.014694
0.019159
0.031915
0.04531
0.016289
0.024899
0.021072
0.027132
0.0057648
-0.016878
-0.0089051
0.00098112
0.0064026
-0.0095429
-0.0038025
-0.047812
-0.054828
-0.046855
-0.048131
-0.038245
-0.018791
-0.030591
-0.04845
-0.068541
-0.066947
-0.06025
-0.054509
-0.060887
-0.084806
-0.062482
-0.067585
-0.073325
-0.043985
-0.036331
-0.04271
-0.04271
-0.04271
-0.042391
-0.029953
-0.033142
-0.035375
-0.018472
-0.015283
-0.017835
-0.016878
-0.024851
-0.020067
-0.0034836
-0.0105
-0.021024
-0.030591
-0.054509
-0.038564
0.0003433
-0.022299
-0.038883
-0.046536
-0.054509
-0.053552
-0.057061
-0.064395
-0.080022
-0.058017
-0.054828
-0.051001
-0.050682
-0.044942
-0.048769
-0.05132
-0.036969
-0.0063538
-0.0066727
-0.0098618
-0.0041214
-0.0076295
-0.014327
-0.01624
0.00098112
-0.0098618
0.0013
0.0041702
0.012462
0.0060837
0.0092728
-0.0028458
-0.0089051
0.010867
0.083898
0.075606
0.06572
0.059979
0.059023
0.07433
0.06285
0.070822
0.063487
0.058066
0.065401
0.037018
0.012462
-0.005716
-0.041115
-0.051001
-0.049407
-0.086081
-0.091503
-0.10936
-0.1269
-0.13902
-0.13169
-0.13679
-0.15178
-0.11478
-0.080341
-0.094373
-0.11319
-0.094054
-0.060887
-0.050363
-0.031548
-0.034418
-0.04271
-0.039202
-0.015283
-0.0053971
-0.012732
-0.027083
-0.069179
-0.056423
-0.029634
-0.042072
-0.031229
-0.047174
-0.058974
-0.08066
-0.091503
-0.074282
-0.086081
-0.070136
-0.030272
-0.0044404
-0.015602
-0.024213
0.0054459
-0.010819
0.0035324
0.017883
0.052963
0.08326
0.065401
0.046585
0.017246
0.020754
0.04818
0.024899
0.0016189
-0.036331
-0.10171
-0.13711
-0.14061
-0.1521
-0.1792
-0.17059
-0.14221
-0.17027
-0.191
-0.1741
-0.16103
-0.11861
-0.10617
-0.10394
-0.0982
-0.082892
-0.061844
-0.040477
-0.022937
0.0032135
0.012143
-0.022299
-0.026445
0.025856
0.031278
-0.0060349
-0.00061343
0.01884
0.028726
0.021391
0.014056
0.037337
0.053601
0.054239
0.061255
0.046266
0.022029
-0.0028458
0.0076782
0.0076782
-0.0069916
0.0044891
0.0019378
-0.016878
-0.056423
-0.071093
-0.064077
-0.094373
-0.087038
-0.091184
-0.091822
-0.094692
-0.11032
-0.10968
-0.094692
-0.082573
-0.067903
-0.055466
-0.067585
-0.079703
-0.097881
-0.087995
-0.076195
-0.064714
-0.058336
-0.051958
-0.052596
-0.090227
-0.065352
-0.07779
-0.075876
-0.082573
-0.071411
-0.045899
-0.068541
-0.03952
-0.046855
-0.03378
-0.0066727
0.022348
0.034786
0.030321
0.022986
0.020116
0.028088
0.026175
0.038612
0.03064
0.0060837
0.020435
0.04818
0.022348
-0.034099
-0.050363
-0.069179
-0.091184
-0.095968
-0.065352
-0.067585
-0.091503
-0.13551
-0.1438
-0.13169
-0.1033
-0.098838
-0.11032
-0.10809
-0.092778
-0.046536
-0.049088
-0.032186
-0.040477
-0.062163
-0.0089051
0.0016189
-0.043028
-0.030591
-0.018791
-0.037926
-0.053234
-0.059931
-0.06312
-0.054828
-0.064395
-0.070774
-0.086719
-0.081298
-0.078746
-0.057698
-0.032823
-0.047493
-0.054828
-0.045899
-0.043985
-0.0085862
-0.036012
-0.028678
-0.018153
-0.018791
-0.0018891
0.012462
-0.0073105
-0.030272
-0.038883
-0.034099
-0.064395
-0.033461
-0.023894
-0.037926
-0.039202
-0.015283
-0.022618
-0.049407
-0.027083
-0.060569
-0.067903
-0.055147
-0.068222
-0.065671
-0.047493
-0.071411
-0.092141
-0.096924
-0.084806
-0.084168
-0.10809
-0.075238
-0.093097
-0.073006
-0.06312
-0.060887
-0.061206
-0.039839
-0.028359
-0.0028458
0.011824
-0.0044404
-0.0079484
-0.00061343
-0.0066727
-0.016559
-0.0073105
-0.014645
0.036699
0.018521
0.01023
0.014056
-0.039839
-0.038883
-0.0098618
0.019159
0.0057648
0.00066221
0.022029
-0.02517
-0.002208
-0.0047593
-0.037607
-0.060887
-0.096605
-0.088952
-0.088633
-0.079703
-0.022299
-0.020067
-0.032186
-0.070774
-0.097881
-0.13487
-0.068222
-0.045899
-0.055147
-0.044304
-0.03091
-0.055466
-0.075557
-0.080979
-0.065033
-0.088633
-0.089589
-0.087357
-0.10936
-0.096286
-0.080979
-0.076195
-0.10809
-0.0864
-0.078427
-0.077152
-0.056104
-0.068222
-0.083849
-0.067585
-0.073006
-0.075876
-0.079703
-0.070455
-0.081298
-0.066628
-0.052596
-0.04558
-0.055785
-0.060569
-0.035375
-0.0082673
-0.0015702
0.016608
-0.02198
-0.038245
-0.035375
-0.032186
0.0035324
0.049774
0.032234
-0.011456
-0.005716
0.012781
-0.012094
-0.01911
-0.0025269
0.0022568
0.0016189
0.049137
0.031596
0.0060837
0.004808
-0.0028458
0.0073593
-0.0073105
-0.03952
-0.057379
-0.059931
-0.057379
-0.062163
-0.051639
-0.051958
-0.057379
-0.073325
-0.11446
-0.15847
-0.13392
-0.099794
-0.097562
-0.093097
-0.094054
-0.10362
-0.10203
-0.11191
-0.1151
-0.10458
-0.081935
-0.085125
-0.092141
-0.070136
-0.058017
-0.076195
-0.066947
-0.066309
-0.074919
-0.070136
-0.073644
-0.054509
-0.053234
-0.070774
-0.087357
-0.084806
-0.070455
-0.052915
-0.041434
-0.034737
-0.046218
-0.04271
-0.02198
-0.023575
0.0044891
0.028088
0.044353
0.022986
0.01597
0.0099106
0.029683
0.028088
0.0099106
0.017246
0.015013
0.022986
-0.0082673
-0.010181
0.011824
-0.030591
-0.064395
-0.067585
-0.06025
-0.077152
-0.095968
-0.079703
-0.10011
-0.1218
-0.11032
-0.12563
-0.11383
-0.090546
-0.11446
-0.15752
-0.14795
-0.1269
-0.10075
-0.092141
-0.11446
-0.10841
-0.11287
-0.10872
-0.11159
-0.11574
-0.12435
-0.087995
-0.058017
-0.053552
-0.062801
-0.070455
-0.06599
-0.049726
-0.025807
-0.054828
-0.037607
-0.055466
-0.051639
-0.040477
-0.024532
-0.050044
-0.068222
-0.079703
-0.052596
-0.048769
-0.062801
-0.082892
-0.081617
-0.076514
-0.074282
-0.04558
-0.088314
-0.098519
-0.09246
-0.096605
-0.090227
-0.067903
-0.066628
-0.06312
-0.067266
-0.069817
-0.053234
-0.06312
-0.06312
-0.032823
0.0028946
0.0095917
0.025218
0.010867
0.00066221
-0.0034836
-0.019429
-0.024213
0.0073593
-0.013689
-0.027721
-0.036969
-0.055785
-0.068541
-0.081617
-0.079384
-0.066628
-0.081298
-0.06025
-0.052277
-0.032504
-0.032186
-0.028359
-0.052277
-0.049088
-0.033142
0.0003433
0.008635
0.0019378
-0.016559
0.01023
-0.014327
-0.023256
-0.047812
-0.051639
-0.044942
-0.038883
-0.084487
-0.087676
-0.10171
-0.08927
-0.097562
-0.11957
-0.094054
-0.047493
-0.043347
-0.051639
-0.079703
-0.10617
-0.10139
-0.096286
-0.064077
-0.055147
-0.026764
-0.052277
-0.079703
-0.068222
-0.058974
-0.067903
-0.078109
-0.089589
-0.07779
-0.08066
-0.070136
-0.063439
-0.067266
-0.057061
-0.047493
-0.0047593
-0.018472
-0.034737
-0.019429
-0.024851
-0.024532
-0.038245
-0.032186
-0.017197
0.00066221
0.024899
-0.00029452
-0.046855
-0.01337
-0.002208
-0.018472
-0.016878
0.0016189
-0.0098618
-0.044304
-0.073963
-0.085443
-0.045899
-0.05132
-0.051639
-0.074919
-0.10139
-0.084487
-0.08066
-0.094054
-0.082892
-0.050363
-0.071093
-0.066309
-0.08927
-0.11861
-0.11128
-0.10011
-0.076833
-0.081298
-0.068541
-0.11
-0.16007
-0.14157
-0.13902
-0.14827
-0.14125
-0.12148
-0.11159
-0.12339
-0.11415
-0.11733
-0.1269
-0.094692
-0.043028
-0.062163
-0.073644
-0.048131
-0.043347
-0.03665
-0.011137
-0.0076295
0.017883
0.026175
0.0044891
0.02458
0.020754
0.020754
0.015332
-0.009224
0.028088
-0.023256
-0.036969
-0.053234
-0.057379
-0.073006
-0.075557
-0.058336
-0.058336
-0.055785
-0.077152
-0.080341
-0.09246
-0.088314
-0.067266
-0.048131
-0.017835
-0.053552
-0.090227
-0.044304
-0.029634
-0.038883
-0.067266
-0.08066
-0.06886
-0.078109
-0.087676
-0.053234
-0.0095429
-0.0089051
-0.0031647
0.02171
0.079752
0.12057
0.074649
0.075925
0.10144
0.12791
0.065082
0.058704
0.11547
0.10399
0.089638
-0.018791
-0.051639
-0.085443
-0.10075
-0.06886
-0.13232
-0.19036
-0.20312
-0.21843
-0.22449
-0.25223
-0.24075
-0.24139
-0.22959
-0.20567
-0.17761
-0.18399
-0.17187
-0.1454
-0.10266
-0.1033
-0.11542
-0.09533
-0.03952
-0.052915
-0.043985
-0.024213
-0.050363
-0.041115
-0.044942
-0.035694
-0.055466
-0.058017
-0.072368
-0.06599
-0.073006
-0.073325
-0.057379
-0.062482
-0.035694
0.0095917
0.01023
-0.00061343
-0.0044404
-0.005716
-0.015283
-0.0044404
0.0070404
0.032872
0.016927
-0.0076295
-0.014645
-0.027083
0.01023
0.027451
0.0057648
-0.01911
-0.034099
-0.026764
-0.0085862
-0.005716
-0.01624
0.0044891
0.039888
0.031596
0.019159
0.036699
0.013419
0.0013
-0.031548
-0.070455
-0.0085862
-0.0085862
-0.047174
-0.097562
-0.13328
-0.11446
-0.08927
-0.10522
-0.14476
-0.12882
-0.10522
-0.097562
-0.09533
-0.10011
-0.029634
0.028726
0.0035324
-0.021024
0.0076782
-0.014008
0.0070404
-0.0031647
-0.021343
-0.0095429
-0.012094
-0.040158
-0.057698
-0.053552
-0.093416
-0.11255
-0.073963
-0.02804
-0.042072
-0.055785
-0.058974
-0.057061
-0.02804
-0.010819
0.034148
0.0131
-0.0012513
0.0022568
-0.043347
-0.032823
-0.043666
-0.041115
-0.0864
-0.085443
-0.10043
-0.081617
-0.091184
-0.078109
-0.088952
-0.083211
-0.081935
-0.095011
-0.073325
-0.078746
-0.092141
-0.013051
-0.014008
-0.034099
-0.069498
-0.087357
-0.070774
-0.094373
-0.083849
-0.075876
-0.099157
-0.10203
-0.10011
-0.097562
-0.095968
-0.096286
-0.090546
-0.079065
-0.055147
-0.033461
-0.046218
-0.010819
0.020116
0.013419
0.019797
0.05392
0.052963
0.010548
0.025218
0.02458
-0.0028458
-0.014327
0.011824
-0.040158
-0.04271
-0.066947
-0.075876
-0.086719
-0.10394
-0.10298
-0.10043
-0.10107
-0.074919
-0.084168
-0.075876
-0.044623
-0.058017
-0.054828
-0.029953
-0.0060349
-0.0050782
0.028726
0.043077
0.10877
0.086768
0.063169
0.076882
0.089638
0.065401
0.092827
0.099843
0.069866
0.024262
0.03351
-0.024851
-0.058655
-0.058017
-0.051958
-0.072049
-0.075557
-0.088633
-0.13392
-0.12244
-0.11446
-0.085762
-0.053552
-0.0095429
-0.022299
0.0035324
0.011186
0.019159
0.014694
0.017246
0.059661
0.097292
0.096973
0.075925
0.01597
0.0013
-0.013689
-0.026126
-0.027402
-0.047174
-0.035375
-0.10553
-0.10522
-0.10522
-0.10011
-0.10394
-0.090865
-0.047812
0.017564
0.047223
0.0064026
0.0032135
0.012143
0.0076782
-0.0028458
-0.010819
-0.0018891
0.076244
0.0051269
-0.010819
-0.051639
-0.077152
-0.096924
-0.12212
-0.13998
-0.15369
-0.15178
-0.14125
-0.1454
-0.13806
-0.12595
-0.076833
-0.056423
-0.066628
-0.069498
-0.069817
-0.035375
0.010867
0.073374
0.05679
0.085811
0.12855
0.12791
0.084854
0.074968
0.090595
0.077201
0.04818
0.080071
0.079114
0.050093
0.00066221
-0.069817
-0.057379
-0.11606
-0.11638
-0.1269
-0.15178
-0.13424
-0.13456
-0.13774
-0.12913
-0.059293
-0.020386
-0.0015702
-0.0044404
-0.020067
-0.014645
0.019797
0.021072
0.0028946
-0.0053971
0.057109
0.027132
-0.017197
-0.027083
-0.025488
-0.075876
-0.078746
-0.07173
-0.091822
-0.10713
-0.090865
-0.067266
0.02171
0.058066
0.094103
0.099205
0.19328
0.22454
0.14577
0.12727
0.16331
0.15948
0.096973
0.11579
0.11738
0.089957
0.057747
-0.012094
-0.10075
-0.14061
-0.16836
-0.21141
-0.23629
-0.24203
-0.24586
-0.24873
-0.23087
-0.21173
-0.19132
-0.17888
-0.17123
-0.16198
-0.15018
-0.11989
-0.1033
-0.11319
-0.090227
-0.066309
-0.073006
-0.063439
-0.062163
-0.069498
-0.049088
-0.029953
-0.022937
-0.03665
-0.040477
-0.029953
-0.014964
-0.0082673
-0.0034836
-0.010181
-0.0015702
0.013738
0.01597
0.018521
0.017883
0.027451
0.0089539
0.010867
0.016608
0.02777
0.011505
0.014694
0.012143
0.0089539
-0.0025269
0.026494
-0.00093234
-0.012413
2.4388e-05
-0.009224
0.0051269
0.037656
0.085811
0.076882
0.098249
0.073693
0.081665
0.10941
0.11196
0.074968
0.066358
0.035104
0.079433
0.063487
0.052963
0.0095917
-0.014008
-0.047174
-0.06886
-0.11383
-0.11446
-0.094054
-0.10266
-0.12882
-0.14476
-0.12658
-0.11893
-0.11574
-0.10522
-0.060887
-0.076833
-0.08353
-0.081935
-0.086719
-0.06886
-0.047174
-0.049726
0.026494
0.044672
0.047223
0.013738
0.041164
0.00098112
-0.0028458
0.034786
0.072736
0.063487
0.027451
-0.0069916
-0.0098618
-0.042072
-0.084168
-0.057379
-0.050363
-0.058974
-0.064077
-0.095649
-0.11032
-0.1151
-0.12531
-0.11893
-0.081935
-0.096286
-0.10171
-0.097562
-0.10522
-0.056423
-0.051639
-0.065033
-0.084487
-0.063439
-0.044304
-0.027083
-0.048131
-0.045899
-0.027402
-0.021343
-0.018153
0.0060837
-0.00093234
0.00066221
0.0044891
0.015013
0.016289
0.014375
0.012462
0.0044891
0.010867
0.018521
0.01023
2.4388e-05
-0.010819
-0.013689
-0.012094
-0.01337
-0.019748
-0.033142
-0.052596
-0.040796
-0.043347
-0.057379
-0.063439
-0.06025
-0.074601
-0.060569
-0.042072
-0.041115
-0.038564
0.033829
0.015013
-0.0050782
0.042758
0.032872
0.023624
-0.002208
-0.0095429
0.029045
-0.043347
-0.023894
0.0067215
0.0076782
-0.04271
-0.047812
-0.069498
-0.087995
-0.058017
-0.04558
-0.018791
-0.0050782
0.020435
0.042121
0.027132
0.028726
0.017564
0.057428
0.047542
-0.00061343
0.028407
-0.0047593
0.012462
-0.044623
-0.061844
-0.069498
-0.098838
-0.12212
-0.13487
-0.12626
-0.13487
-0.13487
-0.13041
-0.1454
-0.14189
-0.14125
-0.13456
-0.11829
-0.099476
-0.094373
-0.088633
-0.09246
-0.072049
-0.067585
-0.032186
-0.04558
-0.018153
-0.0079484
-0.0041214
-0.0031647
-0.0098618
-0.016559
-0.0069916
0.030002
0.032234
0.018202
0.037975
0.047542
0.024899
-0.0044404
-0.027083
0.021391
0.023943
0.0044891
-0.030272
-0.0082673
0.0003433
-0.016559
-0.005716
-0.027083
-0.010819
0.0032135
0.0131
0.015332
0.0070404
0.014375
0.01884
0.026175
0.008316
-0.017197
-0.034418
-0.031229
-0.056742
0.0013
-0.014327
-0.057698
-0.072049
-0.044304
-0.005716
-0.018472
-0.026126
-0.016559
-0.021343
-0.024213
-0.033142
-0.050682
-0.03665
0.022348
-0.013689
-0.036331
-0.066947
-0.052915
-0.074282
-0.060569
-0.094054
-0.10777
-0.0982
-0.064077
0.0028946
0.0067215
-0.00093234
0.028407
0.050412
0.08326
0.067952
0.069547
0.038294
0.0089539
0.0003433
-0.038883
0.042121
0.029045
-0.0031647
-0.036331
-0.095968
-0.13105
-0.14636
-0.15911
-0.16039
-0.15528
-0.1505
-0.13041
-0.12276
-0.12276
-0.13232
-0.12499
-0.10171
-0.082573
-0.047493
-0.041434
-0.043985
-0.0076295
0.038294
0.028407
0.048499
0.032234
0.012143
0.027451
0.035742
0.039569
0.011824
-0.034737
-0.032823
-0.014327
0.014056
-0.036969
-0.068541
-0.069498
-0.048769
-0.062801
-0.063439
-0.054828
-0.053871
-0.036969
-0.030591
-0.071411
-0.014008
-0.0076295
0.0057648
0.0016189
0.02171
0.036061
0.031915
0.023305
0.030959
0.037975
0.0079971
0.031278
0.019159
0.066358
0.058704
0.034467
0.011505
-0.0079484
-0.027721
-0.075557
-0.090865
-0.036012
-0.056104
-0.092141
-0.087038
-0.10649
-0.12148
-0.10203
-0.11191
-0.10522
-0.11638
-0.11064
-0.099157
-0.099794
-0.088314
-0.069498
-0.018472
-0.021024
-0.031229
-0.03378
-0.027721
-0.021343
-0.032504
-0.051958
-0.013689
-0.02804
-0.049407
-0.02517
-0.029315
-0.046855
-0.065033
-0.071411
-0.088952
-0.080022
-0.048131
-0.051958
-0.070136
-0.032186
-0.017516
-0.02198
-0.021024
0.013419
0.01884
0.0051269
0.026494
0.082622
0.068909
0.064125
0.03064
0.028726
0.01884
0.023305
0.041164
0.0025757
0.0099106
-0.023575
-0.021024
-0.0050782
-0.0041214
-0.035694
-0.073325
-0.097243
-0.088952
-0.078746
-0.050682
-0.033461
-0.024532
0.027132
0.04531
0.015651
-0.015602
-0.010819
0.028726
0.016289
0.020754
-0.022618
-0.03378
0.037018
-0.0073105
-0.063439
-0.058655
-0.065352
-0.072368
-0.078746
-0.080341
-0.11032
-0.1049
-0.087038
-0.078427
-0.075876
-0.081617
-0.050363
0.0041702
0.023624
-0.0018891
-0.015921
0.035742
0.04531
-0.0038025
-0.038245
-0.0089051
0.0035324
0.014694
-0.048131
-0.041753
-0.037288
-0.05419
-0.065352
-0.075238
-0.1033
-0.13456
-0.13296
-0.15178
-0.12595
-0.12276
-0.12276
-0.11638
-0.090227
-0.069817
-0.067585
-0.081298
-0.08066
-0.065033
-0.04558
-0.02198
-0.0089051
-0.012732
-0.035375
-0.034099
-0.0095429
0.0044891
-0.016559
0.023305
0.02458
0.01597
0.055834
0.070822
0.050731
0.015013
0.037018
0.044034
0.047861
0.094741
0.061893
0.014375
0.019159
0.0079971
0.0013
-0.0015702
-0.050363
-0.024532
-0.037288
-0.005716
-0.015283
-0.037607
-0.04845
-0.040158
0.026175
0.046904
0.008635
-0.009224
-0.015602
-0.00061343
0.016289
-0.021024
-0.031867
-0.043028
-0.010819
0.016289
-0.0047593
-0.043028
-0.050682
-0.043028
-0.054828
-0.040477
-0.057698
-0.050363
-0.054509
-0.055785
-0.073325
-0.052915
-0.049088
-0.064714
-0.081298
-0.080341
-0.076833
-0.061525
-0.053234
-0.052915
-0.056104
-0.051958
-0.014645
-0.025807
-0.026126
-0.026445
-0.03378
-0.02517
-0.023256
-0.0076295
-0.022618
-0.0082673
-0.024213
-0.0095429
-0.020386
-0.026445
-0.041434
-0.023256
-0.017516
-0.014645
-0.018791
-0.023256
-0.020386
-0.029315
-0.013689
-0.014964
-0.0050782
-0.027083
0.0079971
0.055196
0.042439
0.028088
0.040526
0.060617
0.03925
0.053601
0.058066
0.076244
0.081028
0.043396
0.048818
0.076244
0.064125
0.027132
0.019797
-0.00061343
0.023624
0.014375
0.0079971
-0.0047593
-0.0053971
-0.005716
0.0038513
-0.0031647
-0.025807
-0.035694
-0.025807
-0.026445
-0.048769
-0.028678
-0.04845
0.0051269
-0.00093234
-0.024213
0.0095917
-0.0012513
-0.022618
-0.009224
0.0019378
0.0003433
-0.00093234
0.0092728
2.4388e-05
-0.026126
-0.027083
-0.021024
-0.038564
-0.089908
-0.080979
-0.04558
-0.058017
-0.06599
-0.066309
-0.085762
-0.08927
-0.066628
-0.066947
-0.065352
-0.079384
-0.055785
-0.047493
-0.044304
-0.032186
-0.019429
-0.034418
-0.021343
-0.023575
-0.019429
-0.021024
0.015013
0.0060837
-0.011775
0.0022568
-0.01337
0.0095917
0.0022568
-0.015921
-0.020705
-0.011137
-0.012413
-0.02804
-0.019748
-0.027083
-0.0018891
-0.0076295
-0.024213
-0.012732
-0.029315
-0.018153
-0.009224
-0.0098618
-0.015283
-0.027721
-0.027083
-0.014645
-0.0098618
-0.020386
-0.048131
-0.027721
-0.013051
-0.016559
-0.015921
-0.018791
-0.0085862
-0.017516
-0.0034836
0.0028946
0.019478
0.035423
0.056153
0.073055
0.11037
0.11993
0.10495
0.11069
0.12504
0.11834
0.12567
0.099843
0.074968
0.13588
0.13492
0.10112
0.040526
0.011824
-0.018791
-0.019748
-0.026126
-0.053234
-0.089589
-0.097562
-0.082254
-0.086719
-0.094692
-0.097881
-0.10585
-0.10617
-0.099794
-0.089908
-0.076833
-0.059612
-0.060887
-0.047493
-0.031229
-0.03952
-0.029315
-0.019748
-0.04271
0.010548
0.022667
0.024262
0.0057648
-0.0047593
-0.013051
-0.02198
0.013738
-0.0063538
-0.0095429
-0.023894
-0.0044404
-0.023575
-0.044942
-0.065033
-0.051639
-0.050044
-0.044623
-0.032823
-0.029953
-0.018472
-0.027721
-0.01911
-0.011775
-0.0028458
-0.017835
-0.002208
-0.00029452
-0.0012513
0.0003433
0.0131
0.023305
0.01597
0.02777
0.025856
0.058385
0.042758
0.028407
0.046904
0.046585
0.044353
0.11419
0.10845
0.051369
0.063487
0.084536
0.075287
0.054239
0.031915
-0.017197
-0.00093234
0.030321
0.013738
-0.011775
-0.014327
-0.025488
-0.037607
-0.032823
-0.047812
-0.04271
-0.033142
-0.042072
-0.035694
-0.0015702
-0.02517
-0.029315
-0.03378
-0.009224
-0.0028458
0.004808
0.0076782
0.0095917
0.0035324
-0.012732
0.016608
0.0099106
2.4388e-05
-0.0028458
0.02171
0.0044891
0.0095917
-0.00061343
-0.0050782
-0.00029452
-0.019748
-0.013051
-0.022618
-0.02198
-0.020067
-0.0031647
0.0019378
-0.0044404
-0.018791
-0.031229
-0.041115
-0.03091
-0.028359
-0.015921
-0.014327
-0.037607
-0.034099
-0.024213
0.024262
0.029045
0.0060837
-0.00061343
-0.015283
0.0003433
0.0060837
2.4388e-05
0.0028946
-0.022299
0.011186
0.02777
0.03064
0.014694
0.014375
0.04818
0.069228
0.063487
0.054239
0.07433
0.072098
0.040845
0.11164
0.072417
0.059342
0.05105
0.032553
0.024262
0.013738
0.017883
-0.0031647
0.018202
0.0003433
0.0032135
-0.0044404
-0.0015702
-0.0073105
0.0067215
0.058066
0.084536
0.090914
0.062531
0.056471
0.056471
0.017883
-0.038245
-0.002208
-0.038245
-0.039202
-0.074601
-0.059931
-0.088952
-0.13998
-0.16007
-0.1556
-0.14923
-0.16453
-0.13519
-0.10841
-0.087676
-0.091184
-0.093097
-0.093735
-0.10235
-0.091822
-0.06599
-0.066628
-0.026126
-0.020067
-0.041753
-0.055466
-0.058336
-0.03665
-0.048769
-0.06599
-0.076833
-0.072368
-0.058336
-0.058336
-0.058974
-0.073006
-0.043347
-0.046218
-0.04845
-0.038883
-0.027721
-0.023256
-0.028678
-0.01624
0.0003433
-0.0041214
0.0089539
-0.0085862
0.0044891
0.0095917
-0.0082673
-0.0063538
0.019159
0.035742
0.017883
0.0067215
0.0076782
-0.002208
-0.015921
-0.002208
0.034786
0.050412
0.057109
0.034786
0.031596
0.020435
0.01023
-0.011456
0.015651
0.041164
0.047542
-0.0089051
-0.017197
0.051369
0.050412
0.025856
0.0038513
-0.0012513
-0.0044404
-0.04558
-0.020386
0.016289
0.020116
0.032553
-0.018791
0.0067215
-0.00029452
0.0054459
-0.018472
-0.009224
-0.019429
-0.048131
-0.015602
-0.042072
-0.064395
-0.06312
-0.068541
-0.073006
-0.10649
-0.12371
-0.1403
-0.14349
-0.15337
-0.14954
-0.13009
-0.13296
-0.14827
-0.13902
-0.12658
-0.12244
-0.098838
-0.096286
-0.098838
-0.09533
-0.087038
-0.083211
-0.067585
-0.040477
-0.028996
-0.0063538
-0.0079484
0.017246
0.050412
0.069228
0.072098
0.072417
0.096973
0.10782
0.075606
0.085811
0.099843
0.093465
0.070822
0.034148
0.01597
0.021072
0.019478
0.0028946
-0.045261
-0.043347
-0.027083
-0.055147
-0.039839
0.013419
0.061574
0.026494
0.020435
0.0095917
0.022667
0.043715
0.037337
0.032234
0.031278
0.029364
0.025537
0.030959
0.053601
0.020116
-0.055147
-0.043985
-0.038245
-0.07779
-0.080979
-0.058974
-0.024532
-0.048131
-0.046536
-0.026764
-0.058017
-0.054509
-0.06025
-0.028996
-0.025488
-0.0089051
-0.026126
-0.035375
-0.012413
-0.0105
-0.041115
-0.038564
-0.059931
-0.011456
0.031915
-0.0063538
-0.029315
-0.025488
-0.0085862
-0.018791
-0.012413
-0.033142
-0.033142
0.0054459
-0.033461
0.0038513
0.029364
0.011505
-0.0018891
-0.014008
-0.012413
0.050412
0.058066
0.029364
0.041802
0.074968
0.014694
0.061255
0.071779
0.06572
0.075925
0.081665
0.037975
-0.023894
-0.038883
-0.068541
-0.065671
-0.085125
-0.093735
-0.09246
-0.051639
-0.049407
-0.058017
-0.033142
-0.030591
-0.022618
0.0076782
0.015651
0.051688
0.068271
0.093146
0.046904
0.019478
0.015013
0.0028946
0.022029
-0.047493
-0.094373
-0.11383
-0.12244
-0.15879
-0.15114
-0.18462
-0.18622
-0.12084
-0.12244
-0.13169
-0.10904
-0.10394
-0.079703
-0.069817
-0.047812
-0.0053971
-0.0105
-0.050682
-0.055147
0.01023
0.00098112
-0.040796
-0.03665
-0.069179
-0.090546
-0.084168
-0.10075
-0.10681
-0.10745
-0.11319
-0.13551
-0.096924
-0.099794
-0.088952
-0.099157
-0.055785
-0.009224
0.0032135
-0.012413
-0.0060349
-0.0050782
0.023943
0.021072
0.034786
0.046266
0.040845
0.010867
0.015332
0.0079971
0.096016
0.060617
0.056153
0.059979
0.021072
-0.0031647
0.0028946
0.05392
0.079114
0.099524
0.06859
0.10622
0.12727
0.066039
0.028407
0.034148
0.038294
0.037018
-0.046536
-0.033461
-0.019429
-0.031548
-0.060569
-0.0864
-0.079384
-0.088952
-0.11765
-0.16262
-0.17346
-0.14699
-0.13041
-0.14636
-0.15401
-0.14827
-0.13169
-0.11478
-0.0864
-0.079065
-0.056104
-0.033142
-0.0073105
-0.010819
-0.013689
0.020435
0.028407
0.041483
0.02171
0.00066221
0.01884
0.0067215
-0.0063538
-0.042391
-0.056742
-0.055785
-0.057061
-0.088952
-0.092141
-0.093097
-0.093735
-0.081298
-0.086719
-0.055785
-0.05419
-0.048131
-0.03665
-0.020705
-0.005716
-0.012732
-0.043985
0.0022568
0.034786
0.028407
0.028407
-0.0015702
-0.014645
0.0057648
0.023305
-0.011137
-0.050044
-0.018791
-0.039202
-0.038883
-0.022299
-0.024213
-0.018153
-0.018791
0.008635
0.0089539
-0.0038025
-0.0041214
0.0076782
-0.005716
0.013738
0.062531
0.022667
0.008635
0.0067215
0.0038513
0.0092728
-0.016878
-0.037288
-0.027083
-0.0047593
0.0076782
-0.019429
-0.034737
-0.011456
-0.0082673
-0.017516
0.024899
0.03638
0.045629
0.035104
0.0025757
0.023943
0.030959
0.041164
0.031596
0.013419
0.013738
0.012143
-0.0041214
0.0073593
-0.017835
-0.0082673
-0.013689
-0.0079484
-0.0028458
-0.024851
-0.032504
-0.025807
-0.068541
-0.06025
-0.033142
-0.053234
-0.03665
-0.04558
-0.047174
-0.066309
-0.048131
0.0070404
0.0051269
0.038931
0.047861
0.062531
0.089
0.094422
0.079114
0.06859
0.11101
0.10909
0.086449
0.089319
0.056471
0.064763
0.028088
-0.017835
-0.026764
-0.05419
-0.070136
-0.0864
-0.094054
-0.11733
-0.098838
-0.073006
-0.085443
-0.082573
-0.085762
-0.070774
-0.046218
-0.036331
-0.035694
-0.01337
0.0092728
-0.037607
-0.043985
-0.0041214
-0.02517
-0.043028
-0.052915
-0.04271
-0.041434
-0.056104
-0.058974
-0.077152
-0.041753
-0.042072
-0.014327
-0.0038025
-0.0085862
-0.005716
0.00098112
0.0067215
0.029045
0.047861
0.059661
0.054877
0.050412
0.029045
0.015332
0.065082
0.038294
0.050731
0.024262
0.016608
0.0038513
-0.0069916
0.018202
-0.0018891
0.0089539
-0.021024
-0.028678
-0.031229
-0.036331
-0.025807
-0.03952
-0.033142
-0.048131
-0.081298
-0.047812
-0.031548
-0.058336
-0.046218
-0.053552
-0.037607
-0.018791
-0.0047593
-0.019748
0.0019378
-0.012094
-0.022937
-0.018791
-0.019748
-0.012094
-0.0073105
0.026494
0.011824
-0.012413
-0.017197
-0.018153
-0.0050782
-0.0018891
-0.0105
-0.01624
-0.027721
-0.028996
-0.028678
-0.022618
-0.0105
0.0057648
0.0051269
-0.024851
-0.024213
0.011186
0.0035324
0.012781
0.021072
0.01023
0.043715
0.049455
0.044991
0.03925
0.020116
0.031915
0.030959
0.028407
0.044034
0.054877
0.046904
0.061893
0.10271
0.06572
-0.012094
-0.015283
0.035742
0.067314
0.068909
0.063806
0.03351
-0.029315
-0.029634
-0.012094
0.004808
-0.0050782
-0.058655
-0.0047593
-0.0063538
-0.020067
-0.040477
-0.028678
-0.022937
-0.017197
-0.024213
-0.010181
-0.0038025
-0.02198
-0.010181
0.0051269
-0.015921
-0.041753
-0.059612
-0.060569
-0.041115
-0.053234
-0.053234
-0.062482
-0.080979
-0.069179
-0.061525
-0.079384
-0.10298
-0.081617
-0.080979
-0.089908
-0.084487
-0.080979
-0.08353
-0.087676
-0.077152
-0.070774
-0.05419
0.014694
0.05679
0.02777
0.030321
0.034148
0.072098
0.084854
0.093465
0.10431
0.1244
0.11196
0.094741
0.052645
0.017883
0.0060837
0.023305
0.045629
0.01884
-0.013689
-0.017835
-0.010819
-0.01911
-0.047493
-0.064714
-0.04271
-0.023256
-0.016559
-0.041115
0.0067215
0.016608
-0.01911
-0.0015702
-0.0028458
-0.0031647
-0.037288
-0.02517
0.019478
0.020435
-0.0041214
-0.013689
0.016289
0.0032135
-0.014964
-0.013051
-0.05132
-0.036331
-0.0015702
0.017564
-0.022937
-0.021343
-0.0089051
-0.024851
-0.059612
-0.044942
-0.024213
-0.017516
-0.013051
-0.051001
-0.052915
-0.080022
-0.073963
-0.038883
-0.059931
-0.089908
-0.077471
-0.06886
-0.060569
-0.048769
-0.035694
-0.032186
-0.034099
-0.022937
-0.024851
-0.021343
-0.020386
0.0028946
0.048818
0.078476
0.05105
0.015651
-0.012094
0.016608
0.055834
0.061255
0.044672
0.081984
0.069547
0.04531
0.023624
-0.002208
0.0038513
0.028407
0.023943
0.022029
-0.0031647
-0.020067
-0.040158
-0.014327
-0.025488
-0.029953
-0.033461
-0.054828
-0.042391
-0.044304
-0.020705
0.05679
-0.0053971
-0.034099
-0.017197
-0.0105
-0.031229
-0.0012513
-0.0018891
-0.016878
0.0060837
0.016289
-0.011775
-0.033461
-0.050044
-0.017516
0.011505
0.0028946
-0.018153
-0.032823
-0.037607
-0.055147
-0.043028
-0.01337
-0.01337
-0.024851
-0.021343
-0.022299
-0.021343
-0.016878
-0.015921
-0.021024
-0.01337
-0.012732
0.017564
0.0028946
-0.0038025
-0.0073105
-0.0095429
-0.020705
-0.030591
-0.010181
-0.021343
-0.016878
-0.024851
-0.026764
-0.029315
-0.031229
-0.045261
-0.03378
-0.028359
0.0060837
0.016289
0.0022568
-0.013051
-0.013689
0.012462
0.031278
0.038612
0.034148
0.038294
0.037018
0.04531
0.042121
0.044034
0.042758
0.05392
0.051688
0.048818
0.060936
0.037656
0.011824
0.021391
0.035104
0.08039
0.043715
0.0035324
0.0131
0.043077
0.052007
0.053282
0.041483
0.030321
0.031596
0.046904
0.031596
0.044672
0.043396
0.02458
0.018521
0.020435
0.015651
0.0051269
0.018202
0.017564
-0.0060349
-0.0028458
-0.0018891
-0.0076295
-0.030591
-0.036012
-0.015602
-0.020386
-0.026445
-0.019429
-0.030272
-0.038883
-0.040477
-0.049088
-0.053234
-0.048769
-0.049407
-0.038883
-0.053871
-0.037926
-0.031229
-0.04271
-0.036969
-0.04845
-0.044942
-0.046218
-0.038245
-0.027402
-0.022937
-0.025488
-0.026126
-0.023256
-0.011456
-0.0028458
-0.0028458
-0.0082673
-0.0018891
0.0019378
-0.00029452
0.030959
0.013738
0.0022568
0.026494
0.03925
0.035104
0.03351
0.032234
0.029683
0.049137
0.054877
0.052963
0.066358
0.082303
0.097611
0.083898
0.071779
0.058385
0.072098
0.091552
0.069547
0.055834
0.067314
0.072736
0.062212
0.044034
0.046904
0.02171
0.02777
0.022348
0.008635
0.0131
0.037975
0.015651
-0.0098618
0.010548
-0.012094
-0.030591
-0.021343
-0.027402
-0.043347
-0.037288
-0.028996
-0.052277
-0.057698
-0.046218
-0.050044
-0.055466
-0.043985
-0.049407
-0.03091
