-0.030591
-0.051639
-0.031229
-0.0031647
0.011505
-0.020067
-0.028678
-0.047812
-0.032186
-0.03091
0.01597
0.0028946
-0.036012
-0.028996
-0.041434
-0.026764
-0.03091
-0.029315
-0.018791
-0.0105
0.0028946
0.013738
0.0057648
0.0016189
0.017564
0.029683
0.03064
0.059979
0.044353
0.03351
0.051688
0.07146
0.056153
0.05679
0.054877
0.036699
0.008316
-0.0085862
0.012781
0.016608
0.043077
0.030002
0.0051269
-0.0089051
-0.028996
-0.047812
-0.055785
-0.056742
-0.043028
-0.037288
-0.041753
-0.069817
-0.10107
-0.073006
-0.057061
-0.10203
-0.11159
-0.11861
-0.092778
-0.094692
-0.098519
-0.11032
-0.10043
-0.091503
-0.091822
-0.085762
-0.087676
-0.098838
-0.090546
-0.052277
-0.066309
-0.032186
-0.064077
-0.078109
-0.07779
-0.073006
-0.065033
-0.053552
-0.044942
-0.068541
-0.036331
-0.0105
-0.023256
-0.02517
-0.016559
-0.023894
-0.032504
-0.0060349
0.00098112
0.029364
-0.009224
0.023305
0.004808
-0.013051
-0.020705
-0.015283
-0.021343
-0.016878
-0.021343
-0.046536
-0.039202
-0.013689
-0.0053971
-0.026764
-0.0025269
-0.015602
-0.021661
-0.025488
-0.02198
-0.005716
-0.005716
0.01597
0.011824
0.0003433
0.01597
0.041164
0.037337
0.02171
0.026813
0.022029
0.031915
0.042439
0.052963
0.041164
-0.0025269
-0.035375
-0.017516
-0.034418
-0.023256
-0.057061
-0.015283
-0.015283
-0.047812
-0.055466
-0.069817
-0.067585
-0.056104
-0.038564
-0.0041214
-0.021661
2.4388e-05
-0.014645
-0.025807
0.016608
0.019478
-0.00061343
-0.01337
0.014694
0.0044891
-0.015921
-0.016878
-0.017197
0.00066221
0.0019378
0.01884
-0.026126
-0.042072
-0.04845
-0.059293
-0.04558
-0.041434
-0.070455
-0.056742
-0.050363
-0.077471
-0.10298
-0.10171
-0.10936
-0.10585
-0.082254
-0.093097
-0.088952
-0.091822
-0.093097
-0.096605
-0.09246
-0.092778
-0.072368
-0.063439
-0.051958
-0.038883
-0.023256
-0.031867
-0.03091
-0.023575
-0.0012513
-0.012094
-0.014008
-0.014964
-0.0076295
0.012143
-0.005716
0.0089539
0.0013
-0.029953
-0.042391
-0.023575
-0.020386
-0.018153
-0.015283
-0.018472
-0.022299
-0.018153
-0.031229
0.011186
0.0051269
-0.011775
-0.0044404
-0.02198
-0.021024
0.021072
0.032553
0.0003433
0.023305
0.010548
0.020116
0.023305
0.0051269
0.012781
0.008635
0.072098
0.075287
0.015651
0.032553
0.037975
0.034467
0.048499
0.032872
0.010867
-0.022618
-0.032504
-0.005716
-0.02804
-0.056104
-0.053234
-0.062163
-0.079703
-0.082892
-0.11606
-0.12276
-0.1202
-0.10617
-0.10522
-0.079703
-0.047812
-0.051001
-0.036331
-0.039202
-0.034099
-0.033142
-0.011137
0.033829
0.04531
0.022348
0.010867
-0.012413
0.019159
0.023624
0.025856
0.0051269
-0.0031647
-0.018791
-0.032504
-0.031229
-0.050363
-0.049407
-0.070455
-0.047174
-0.04845
-0.051639
-0.052915
-0.061844
-0.060887
-0.067903
-0.068222
-0.060569
-0.035694
-0.048769
-0.062482
-0.058017
-0.03378
-0.012413
0.0095917
0.039888
0.067314
0.044353
0.037018
0.052645
0.033829
0.030002
0.03064
0.042758
0.027451
0.012781
0.013419
0.0041702
-0.014008
-0.040477
-0.050044
-0.037288
-0.058655
-0.073325
-0.069817
-0.061844
-0.046218
-0.058655
-0.059612
-0.070455
-0.036331
-0.036331
-0.055147
-0.046218
-0.058655
-0.029634
-0.027721
-0.0066727
-0.017197
-0.0053971
0.0051269
0.01023
0.013738
0.022986
0.040207
0.052007
0.059023
0.054239
0.063169
0.043715
0.016608
-0.0069916
0.014375
0.025856
0.040526
0.044672
0.01023
0.0003433
-0.005716
-0.020067
-0.0095429
-0.010819
-0.032504
-0.028678
-0.011137
-0.028678
-0.021343
-0.04271
-0.041115
-0.048131
-0.04558
-0.037926
-0.02517
-0.023575
-0.027721
-0.041434
-0.034099
-0.038564
-0.053552
-0.062482
-0.077152
-0.028996
0.01023
-0.011456
-0.074282
-0.080341
-0.045261
-0.009224
-0.011137
-0.027721
-0.025488
-0.005716
0.008635
0.0051269
-0.014645
0.0003433
0.021072
0.017883
0.028088
-0.0028458
-0.0025269
-0.0085862
-0.018791
2.4388e-05
0.0003433
0.039888
0.055196
0.04531
0.043396
0.056153
0.032553
0.02777
0.031915
0.033829
0.01884
0.035104
-0.00029452
2.4388e-05
0.010548
-0.024213
-0.026764
-0.045899
-0.049088
-0.059293
-0.060887
-0.05419
-0.037607
-0.041434
-0.057061
-0.051958
-0.047174
-0.050363
-0.033461
-0.043985
-0.058336
-0.033142
-0.031867
-0.041753
-0.033142
-0.032823
-0.022937
-0.016878
-0.0082673
-0.0028458
-0.0063538
-0.011775
0.0019378
0.012781
0.0019378
-0.012413
0.014056
-0.020067
-0.011456
0.012781
0.0038513
-0.00093234
-0.002208
-0.0047593
-0.0095429
0.0019378
-0.028678
-0.034737
-0.037607
-0.037926
-0.010819
-0.012094
-0.014008
-0.017835
-0.018791
-0.028359
0.0003433
0.0032135
-0.015921
0.0089539
0.038931
0.073055
0.1295
0.083579
0.063169
0.06859
0.057747
0.056471
0.056153
0.079114
0.084854
0.10463
0.075606
0.050093
0.032872
0.022667
0.043715
0.0051269
0.010867
0.034148
-0.002208
-0.027721
0.0054459
0.0070404
-0.0066727
-0.02198
-0.052915
-0.074282
-0.053234
-0.050682
-0.064395
-0.057698
-0.070455
-0.086081
-0.085762
-0.066628
-0.079065
-0.086081
-0.088952
-0.081617
-0.077152
-0.071093
-0.077152
-0.083849
-0.067266
-0.061844
-0.05419
-0.055466
-0.058336
-0.050682
-0.04271
-0.036969
-0.019748
-0.022299
-0.038564
-0.028678
-0.020705
-0.02198
-0.024532
-0.0079484
-0.02804
-0.0063538
-0.0018891
-0.00061343
-0.0053971
-0.0018891
0.010867
0.031596
0.040207
0.037337
0.023305
-0.0063538
0.030002
0.059979
0.034786
0.039888
0.026813
0.0095917
0.044034
0.042758
0.036699
0.04531
0.012462
0.043396
0.072417
0.080709
0.050731
0.038612
0.030002
0.025218
0.043715
0.059661
0.055196
0.023943
0.028407
0.033191
0.051688
0.036699
0.00098112
-0.0047593
0.014694
0.0099106
-0.0082673
-0.051639
-0.057379
0.0025757
-0.032186
-0.042072
-0.051001
-0.045899
-0.075876
-0.081298
-0.079703
-0.083849
-0.073325
-0.057698
-0.055147
-0.043666
-0.022299
-0.016559
-0.028678
-0.037288
-0.020705
-0.02804
0.0051269
0.0022568
-0.020386
-0.052277
-0.03091
0.017883
0.0044891
-0.022937
-0.028996
-0.038883
-0.029315
0.0099106
-0.0066727
-0.016878
-0.0063538
-0.02198
-0.009224
0.00098112
-0.011137
-0.0095429
0.012781
0.0095917
-0.0073105
0.0016189
0.0013
0.0054459
0.0022568
0.014694
0.034467
0.01884
-0.0028458
0.010548
0.011505
0.0070404
0.0025757
0.0051269
-0.028359
2.4388e-05
0.020435
0.0089539
-0.017197
-0.022299
-0.024851
-0.024851
-0.002208
-0.0085862
-0.010181
-0.020386
-0.020386
-0.0018891
-0.0015702
-0.0079484
-0.0079484
-0.025807
-0.02198
0.01023
0.0070404
-0.010819
2.4388e-05
-0.0028458
-0.005716
0.01884
0.020754
0.020435
0.015013
0.01597
0.0057648
0.0025757
0.030959
0.018202
0.029683
0.01884
0.034148
0.011505
0.024899
0.0057648
0.020435
0.028088
0.032553
0.016289
0.028088
0.023305
0.049137
0.09793
0.083898
0.041164
0.030959
0.084854
0.059342
0.058385
0.02171
-0.012094
0.024899
0.06572
0.052326
-0.012413
-0.032823
-0.043985
-0.053234
-0.06312
-0.070774
-0.0864
-0.098838
-0.088314
-0.061525
-0.079065
-0.081298
-0.072368
-0.074282
-0.086719
-0.077152
-0.060569
-0.061844
-0.058017
-0.034099
-0.040477
-0.034418
-0.034737
-0.036012
-0.029953
-0.0073105
-0.015921
-0.0069916
0.012462
0.011824
0.0099106
0.011186
0.022667
0.031915
0.023305
0.0060837
0.023624
0.029683
0.015013
0.014056
0.0013
-0.0069916
0.0054459
0.008635
0.00066221
-0.0098618
-0.009224
-0.010181
-0.012413
-0.002208
-0.013689
-0.011456
-0.017516
-0.0076295
0.0022568
0.0035324
0.0051269
-0.0012513
-0.0069916
-0.0089051
-0.00061343
0.0044891
0.0099106
0.022348
0.061255
0.050731
0.05105
0.037018
0.044991
0.043715
0.052326
0.040845
0.03351
0.062531
0.078476
0.077838
0.044034
0.050731
0.040207
0.038931
0.038612
0.032872
0.027132
0.059023
0.031915
0.013419
-0.0063538
-0.014008
0.021072
-0.0018891
-0.034737
-0.074282
-0.038883
-0.025488
-0.021343
-0.051958
-0.065671
-0.061525
-0.058655
-0.047812
-0.059612
-0.064714
-0.051958
-0.083211
-0.059612
-0.059293
-0.052915
-0.064714
-0.066947
-0.059293
-0.043028
-0.039202
-0.044304
-0.014964
-0.041434
-0.024532
0.01597
0.0064026
-0.0044404
-0.020067
0.025218
0.020754
0.029045
0.013419
-0.0053971
0.014694
0.029683
0.030321
0.012143
0.0028946
0.022029
0.0092728
-0.0085862
0.0044891
0.0003433
-0.011137
-0.014645
-0.013051
-0.028678
-0.032186
-0.025807
-0.045261
-0.038245
-0.030591
-0.028996
-0.027721
-0.026126
-0.024851
-0.023894
-0.0034836
-0.0069916
-0.0018891
0.0028946
0.0051269
0.0032135
-0.0044404
0.0054459
0.010548
0.0044891
0.0067215
0.020116
0.017883
0.0131
0.018202
0.017883
0.021391
0.03638
0.045947
0.049455
0.052645
0.043715
0.051688
0.064444
0.073374
0.03064
0.041802
0.058385
0.074012
0.055196
0.056153
0.068909
0.054877
0.058704
0.074649
0.06572
0.069866
0.067314
0.06572
0.027451
0.028407
0.016608
-0.030591
-0.026445
0.0095917
-0.027721
-0.052915
-0.030591
-0.065033
-0.077471
-0.084487
-0.10777
-0.10649
-0.10394
-0.091184
-0.087038
-0.094373
-0.082573
-0.081617
-0.06599
-0.052915
-0.06025
-0.062482
-0.051001
-0.047812
-0.038564
-0.035375
-0.0105
-0.014008
-0.005716
0.031915
0.029045
0.020754
0.020116
0.028726
0.022348
0.027451
0.026175
0.031278
-0.0015702
0.050412
0.050731
0.014694
0.013419
0.0067215
0.0041702
-0.005716
-0.0044404
-0.0031647
-0.0041214
-0.009224
-0.005716
-0.023575
-0.0095429
-0.00029452
0.0022568
0.0035324
-0.0076295
0.0019378
0.019478
0.035742
0.025537
0.0032135
0.0025757
0.019797
0.032872
0.036699
0.02171
0.015651
0.014694
0.019797
0.040845
0.028088
0.01597
0.015651
0.015651
0.0070404
0.017564
-0.0041214
-0.0066727
-0.016559
-0.019429
-0.018791
-0.016878
-0.032186
-0.049088
-0.03091
-0.043028
-0.037607
-0.045261
-0.03952
-0.02804
0.0067215
-0.010181
-0.0085862
-0.0076295
-0.013051
-0.014327
0.01023
0.018521
0.0095917
0.025537
0.0022568
0.00066221
0.022986
0.024899
0.0051269
0.037656
0.028407
0.042439
0.037018
0.037656
0.037975
0.037656
0.052007
0.033829
0.031278
0.037337
0.00098112
0.020116
0.012143
0.0022568
-0.0025269
-0.029953
-0.015602
-0.025488
-0.02804
-0.017516
-0.046218
-0.049726
-0.051958
-0.049726
-0.049088
-0.038883
-0.040477
-0.058655
-0.044942
-0.037288
-0.034418
-0.024213
-0.021024
-0.021024
-0.027083
-0.0044404
-0.0041214
-0.012732
-0.005716
-0.011137
-0.015921
-0.002208
0.011505
-0.011456
-0.021024
-0.022299
-0.0073105
0.0013
0.0067215
0.0035324
0.016608
0.0079971
0.0044891
-0.014645
-0.005716
0.00066221
0.0064026
0.020435
0.012781
-0.0073105
-0.014008
-0.0047593
-0.0076295
0.0054459
-0.0031647
-0.0034836
-0.0018891
-0.013689
0.0035324
0.024262
0.023943
0.06572
0.054877
0.053282
0.051369
0.044991
0.058704
0.034467
0.0099106
0.028407
0.053601
0.052963
0.0073593
0.008635
0.0003433
-0.011775
-0.023894
-0.023256
-0.035056
-0.016559
-0.020386
-0.029634
-0.022937
-0.020705
-0.028359
-0.026764
-0.014008
-0.020386
-0.017197
-0.01624
-0.0050782
0.0025757
-0.0047593
-0.029634
-0.01337
-0.02198
-0.028996
-0.029315
-0.022937
-0.022618
-0.032823
-0.023575
-0.017516
-0.012413
-0.020386
-0.026126
-0.01911
-0.017835
-0.00093234
0.026494
0.0019378
-0.012094
-0.016559
-0.018472
-0.014008
-0.0098618
-0.002208
-0.020386
0.00066221
-0.011456
-0.021024
-0.038245
-0.026445
-0.022937
-0.01911
-0.0073105
-0.019429
-0.014645
-0.020067
-0.011775
0.0019378
0.0003433
-0.0050782
-0.0060349
-0.021024
0.0057648
0.043077
0.03351
0.041164
0.039888
0.038294
0.044672
0.065082
0.038612
0.03064
0.038931
0.050731
0.052645
0.045629
0.0131
-0.009224
0.021391
-0.0034836
0.0057648
-0.0050782
-0.022618
-0.016878
-0.023894
-0.024213
-0.010819
-0.0073105
-0.015283
-0.019429
-0.0044404
0.012781
0.00098112
-0.011456
-0.020386
-0.005716
-0.017835
-0.012094
0.012462
0.016608
0.018202
-0.00093234
0.0092728
-0.002208
-0.0089051
0.010548
0.02458
0.012462
0.0079971
0.016289
0.004808
0.0013
0.012462
0.055834
0.032872
0.024899
0.025856
0.023624
0.015332
0.036061
0.037018
0.035104
0.0073593
0.01597
0.0095917
-0.0018891
-0.013051
-0.035694
-0.010819
-0.018472
-0.017197
0.0076782
-0.0076295
-0.014327
-0.031229
-0.026764
-0.0079484
-0.013689
-0.030272
-0.026445
-0.005716
-0.0044404
-0.033142
-0.03091
-0.05419
-0.038883
-0.035694
-0.043028
-0.043985
-0.038883
-0.03952
-0.040796
-0.033142
-0.037288
-0.038564
-0.023256
-0.014327
-0.014008
-0.014327
-0.017835
-0.022618
-0.035694
-0.021024
-0.0018891
-0.0047593
0.017883
0.012143
0.0095917
0.0019378
0.023943
0.0028946
0.013419
0.014694
0.019478
0.015651
0.030002
0.022029
0.0092728
0.0044891
0.0028946
0.017564
0.035423
0.037975
0.020754
0.023624
0.022348
0.046266
0.03925
0.027132
0.01023
0.018521
0.031596
0.034148
0.017246
-0.0047593
-0.0015702
0.0041702
-0.012094
-0.0047593
-0.0098618
-0.00093234
-0.0015702
0.0076782
-0.00061343
0.0032135
-0.0053971
0.020116
0.037656
0.00066221
-0.0073105
-0.0050782
-0.0015702
-0.00061343
0.012781
-0.0079484
-0.011137
0.0019378
-0.0041214
-0.019429
-0.0098618
-0.020067
-0.022937
-0.0018891
0.0022568
-0.00029452
0.011824
2.4388e-05
-0.0034836
2.4388e-05
-0.0038025
-0.0041214
0.010867
0.043715
-0.0047593
0.016608
0.0089539
0.016927
0.008316
0.0025757
-0.035694
-0.038883
0.0076782
-0.0038025
0.01023
-0.025488
-0.015602
-0.01624
-0.02517
-0.014327
-0.011456
-0.019429
-0.020386
-0.0034836
-0.012094
-0.017197
-0.012413
-0.0060349
-0.01911
-0.027083
-0.029953
-0.043985
-0.048769
-0.032186
-0.027402
-0.039839
-0.037288
-0.019748
-0.036331
-0.034737
-0.012094
-0.02517
-0.023575
-0.016878
-0.0073105
-0.00093234
-0.005716
-0.0098618
-0.011456
-0.0012513
0.0019378
0.004808
-0.0018891
-0.0028458
-0.00029452
0.00066221
0.022986
0.043077
0.053601
0.077201
0.087087
0.063806
0.068909
0.055196
0.052326
0.059661
0.094741
0.072736
0.081984
0.082303
0.034786
0.031596
0.015332
0.015651
-0.0044404
-0.0060349
-0.0069916
-0.019429
-0.019748
-0.021343
-0.037607
-0.038245
-0.0012513
0.0095917
-0.010181
-0.017197
-0.045261
-0.044942
-0.02198
-0.0047593
0.0013
-0.027721
-0.032823
-0.027721
-0.046218
-0.036012
-0.041434
-0.047174
-0.070136
-0.048131
-0.045899
-0.034099
-0.045261
-0.051958
-0.046536
-0.032186
-0.02804
-0.017197
-0.026445
-0.041753
-0.02517
-0.0041214
-0.002208
0.0022568
-0.01624
-0.018472
-0.011775
0.0016189
0.0054459
0.015013
-0.0012513
-0.00093234
0.014375
0.012143
0.0016189
0.0038513
0.0032135
0.0076782
0.0035324
-0.0095429
-0.002208
-0.0060349
-0.0063538
-0.0018891
0.00098112
2.4388e-05
-0.0041214
0.0095917
0.0028946
0.014694
0.032234
0.03638
0.024899
0.015013
0.026175
0.035742
0.022667
0.019797
-0.0044404
0.026813
0.035742
0.028407
0.0044891
-0.0038025
2.4388e-05
-0.00093234
-0.02198
-0.010819
-0.012094
-0.025807
0.0003433
-0.0073105
-0.0095429
-0.02198
-0.018153
-0.052277
-0.0095429
-0.012732
-0.0012513
-0.012094
-0.0028458
-0.0082673
-0.013689
0.0089539
-0.0105
0.008316
-0.0066727
0.01884
-0.00093234
0.00098112
0.0079971
0.0041702
0.030321
0.038931
0.058385
0.059661
0.037337
0.04818
0.049137
0.051369
0.053282
0.022348
0.049774
0.051369
0.032234
0.027132
-0.023575
-0.019748
-0.025807
-0.037926
-0.034099
-0.037607
-0.051639
-0.056423
-0.054828
-0.06312
-0.05132
-0.034418
-0.044304
-0.055147
-0.044942
-0.047493
-0.029634
-0.026126
-0.036331
-0.039839
-0.012094
-0.0031647
0.0064026
0.014694
-0.00061343
0.01023
0.017564
0.015651
0.0028946
-0.0060349
0.023943
0.021072
-0.0038025
-0.0015702
-0.0031647
-0.012413
-0.026764
-0.022937
-0.026445
-0.027721
-0.029953
-0.029315
-0.014645
-0.0060349
0.0076782
-0.0085862
-0.014964
-0.0069916
-0.0031647
0.0060837
0.0070404
0.014694
-0.01624
0.0041702
0.020754
0.015332
0.022667
0.020435
0.0095917
-0.0050782
0.019159
0.02777
0.045947
0.068909
0.069228
0.055515
0.041164
0.056153
0.052326
0.021072
0.012781
0.0067215
0.035742
0.055196
0.046266
0.015651
-0.012732
-0.017835
-0.029953
-0.033142
-0.03665
-0.027402
-0.024213
-0.0060349
-0.017197
-0.023894
-0.023894
-0.033142
-0.0105
-0.00029452
-0.015283
-0.018791
0.0076782
0.013738
0.022029
-0.010181
0.0067215
0.0051269
0.02171
0.016608
0.0032135
-0.0028458
-0.014964
-0.0095429
0.026175
0.028088
0.016289
0.00066221
-0.0038025
0.010867
0.021072
0.016289
2.4388e-05
0.017564
0.018521
0.0064026
-0.0076295
-0.031548
-0.016559
-0.012732
-0.0050782
0.0035324
-0.013051
-0.028996
-0.037607
-0.034418
-0.03091
-0.013051
-0.025488
-0.03952
-0.03091
-0.024851
-0.029634
-0.024851
-0.028996
-0.044942
-0.029953
-0.027402
-0.021661
-0.018791
-0.0028458
0.00098112
0.0044891
0.018521
0.030002
0.029364
0.016608
0.0060837
0.0131
0.030959
0.016608
0.0079971
-0.019429
0.011824
-0.010181
0.0067215
-0.0066727
-0.0098618
-0.026764
-0.033142
-0.024213
-0.011775
-0.020386
-0.027083
-0.0015702
0.008635
0.0054459
-0.0105
-0.0076295
-0.0069916
0.00066221
0.016289
0.021391
0.015013
0.021072
0.020435
0.025856
0.037018
0.035104
0.028407
0.07752
0.08039
0.065082
0.063169
0.057109
0.040526
0.060617
0.059342
0.044353
0.046904
0.047223
0.01884
0.0051269
0.0060837
0.017883
-0.005716
-0.032823
-0.050682
-0.051639
-0.050044
-0.055147
-0.058017
-0.073325
-0.051639
-0.05419
-0.052915
-0.055466
-0.058974
-0.044942
-0.025807
-0.011456
-0.0098618
-0.019748
-0.026445
-0.013051
-0.0041214
-0.0098618
-0.019748
-0.02198
-0.0079484
0.0022568
0.00066221
-0.037288
-0.019429
-0.0095429
-0.017835
-0.030591
-0.0079484
-0.013689
-0.018472
-0.0073105
0.0054459
0.012781
0.015651
0.0076782
-0.0069916
0.023305
0.0044891
0.013738
0.004808
0.022029
0.023624
0.012143
0.0044891
0.015332
0.0089539
-0.010819
-0.0038025
-0.0053971
0.0067215
0.011505
0.014056
0.0025757
0.0028946
-0.009224
0.016289
0.016289
0.012462
0.040207
0.052963
0.045629
0.043077
0.034148
0.032234
0.03064
0.032553
0.025856
0.022986
0.019159
0.011824
0.004808
0.0035324
0.0070404
2.4388e-05
-0.015921
-0.029315
-0.031548
-0.0073105
-0.017835
-0.023894
-0.026126
-0.026764
-0.021024
-0.021024
-0.01624
-0.029953
-0.026126
-0.03665
-0.019429
-0.018791
-0.015283
-0.020386
-0.011456
-0.018791
2.4388e-05
0.017883
0.036699
0.026813
0.026813
0.035423
0.03638
0.016289
-0.0031647
0.0035324
0.031596
0.039569
0.030002
0.0051269
0.008316
-0.0015702
-0.0076295
-0.016559
-0.022618
-0.036969
-0.036331
-0.032504
-0.02517
-0.032504
-0.035375
-0.045261
-0.050044
-0.026445
-0.020705
-0.015283
-0.0044404
-0.010181
-0.0076295
0.01884
0.0057648
0.0095917
0.013738
0.0016189
0.012462
0.0092728
0.027451
-0.0015702
0.0019378
-0.01911
-0.0069916
-0.0095429
-0.0047593
-0.020386
-0.021343
-0.005716
0.0131
0.0003433
-0.0044404
0.0025757
-0.0012513
0.019159
0.021072
0.014375
-0.016878
0.023624
0.025537
0.023305
0.010867
0.018202
0.017564
0.00098112
0.020116
0.016289
0.0057648
-0.0050782
0.012781
0.017246
0.024262
0.012462
0.0079971
0.010867
0.017564
0.008635
-0.00061343
0.0028946
0.026175
0.016608
0.037018
0.035423
0.01023
0.01884
0.013419
0.0070404
-0.0044404
-0.0098618
-0.014008
-0.03952
-0.012413
-0.023894
-0.020386
-0.022618
-0.039202
-0.055785
-0.032823
-0.019429
-0.0085862
-0.01624
-0.028359
-0.0041214
0.010867
0.02171
0.035104
0.041483
0.041802
0.048499
0.046266
0.043396
0.02777
0.030959
0.012143
0.0025757
0.041164
0.020116
0.0089539
-0.028678
-0.037926
-0.015283
-0.025488
-0.030591
-0.036331
-0.036969
-0.016878
-0.022618
-0.010819
-0.019748
-0.019748
-0.01911
-0.014327
0.0076782
-0.0085862
-0.0073105
0.00066221
0.0044891
0.013419
0.0041702
0.0073593
-0.023575
-0.013689
0.016289
0.0131
0.011824
0.024262
-0.015283
0.017883
-0.0015702
-0.0018891
-0.010181
-0.020067
-0.0050782
-0.012732
-0.0089051
-0.012094
-0.017835
-0.038564
-0.021343
-0.015283
-0.016878
-0.017516
-0.020067
-0.012413
0.0035324
0.004808
-0.012413
-0.0050782
-0.019429
-0.019748
-0.0095429
-0.013689
-0.030591
-0.032186
-0.026764
-0.017516
-0.022618
-0.024532
-0.027721
-0.022618
-0.03091
-0.025488
-0.0060349
-0.020386
-0.020067
-0.018472
-0.011775
-0.005716
0.0028946
0.008635
-0.0012513
0.017246
0.026494
0.044353
0.057747
0.056153
0.034148
0.032234
0.039569
0.059661
0.053282
0.015013
0.033829
0.021072
0.0099106
0.01023
-0.01624
-0.026445
0.0051269
-0.0034836
-0.012094
-0.023894
-0.030591
-0.034418
-0.019429
-0.0053971
-0.026764
-0.022618
-0.0041214
-0.011775
-0.01624
-0.015921
-0.011137
-0.005716
-0.01337
2.4388e-05
0.0076782
0.018521
0.021391
0.019159
0.02777
0.040845
0.066995
0.028407
0.0089539
0.019478
0.032553
0.019478
0.0003433
-0.0034836
-0.0098618
0.0073593
-0.012094
-0.015921
-0.026445
-0.022937
-0.019429
-0.0050782
0.014694
0.016608
0.02458
0.020754
0.032872
0.028726
0.025856
0.026494
0.014694
0.016927
0.024899
0.02171
0.012781
0.022986
0.0019378
-0.0044404
0.025218
0.015013
-0.0073105
-0.010181
-0.014327
-0.017197
-0.0063538
-0.017197
-0.016878
-0.032186
-0.016559
-0.040158
-0.034099
-0.047812
-0.051639
-0.050682
-0.050044
-0.033142
-0.016559
-0.03378
-0.034099
-0.03091
-0.021024
-0.014645
-0.014645
-0.014645
-0.016878
0.017564
0.02171
0.014056
-0.011775
-0.0015702
0.0044891
0.0092728
0.046585
0.028407
0.011505
0.0025757
0.0038513
0.004808
0.0064026
0.010867
0.0028946
-0.0025269
-0.0041214
-0.020705
0.0079971
0.0032135
-0.0060349
-0.0095429
-0.011775
-0.0038025
-0.022937
-0.00061343
0.0032135
-0.00061343
0.0060837
0.013738
0.0016189
-0.02517
-0.010181
-0.012413
-0.0018891
-0.00029452
0.0079971
0.00098112
0.0070404
-0.002208
0.0070404
-0.010181
-0.0089051
-0.002208
0.0054459
-0.0050782
-0.0050782
-0.018472
-0.020067
0.0054459
-0.00093234
-0.0095429
-0.014327
-0.014327
-0.020386
-0.015283
-0.0060349
0.008316
0.00098112
-0.0012513
0.012143
-0.0012513
0.0064026
0.021072
0.011824
-0.0069916
-0.021024
0.015332
0.014375
0.013738
-0.0015702
-0.0089051
-0.0053971
0.011824
2.4388e-05
-0.002208
-0.0063538
-0.014964
-0.012732
-0.027721
-0.01911
-0.026126
-0.0076295
-0.0044404
-0.00061343
0.008635
-0.0066727
-0.015602
-0.012413
-0.00061343
0.028088
0.008635
0.0064026
0.028726
0.026813
0.0060837
0.0038513
0.0073593
0.00098112
0.010867
-0.00093234
-0.0047593
0.00066221
-0.012094
-0.0069916
-0.014964
-0.012413
-0.015921
-0.020386
-0.024532
-0.017516
-0.014008
-0.0095429
-0.010819
-0.014645
-0.027721
-0.01624
0.0022568
-0.012094
-0.012413
-0.0076295
-0.0085862
0.0003433
0.044353
-0.0044404
-0.015921
-0.0047593
0.0035324
0.0013
0.0089539
0.0057648
-0.01624
-0.020067
-0.013051
0.015332
0.0019378
-0.012413
-0.0041214
-0.009224
-0.0076295
0.015651
0.015332
0.0038513
0.00098112
-0.0031647
0.021391
0.028726
0.0070404
0.0044891
0.029364
0.028088
0.025537
0.0060837
-0.0034836
-0.009224
0.028088
0.018202
0.0016189
-0.0073105
-0.0034836
0.016927
0.0076782
0.010548
0.0016189
-0.0076295
-0.011456
0.0003433
0.0092728
0.0032135
0.019478
0.038612
0.0016189
-0.005716
0.023624
0.026494
0.008635
-0.0031647
-0.0060349
-0.0060349
-0.016559
-0.010819
-0.027721
-0.029634
-0.023894
0.0044891
-0.0028458
-0.018153
-0.029953
-0.032186
-0.0085862
0.035423
0.01884
-0.00061343
0.0054459
0.0013
0.01597
0.012781
0.008635
2.4388e-05
-0.0069916
0.02777
0.00066221
-0.016559
-0.017197
-0.017835
-0.028996
-0.03091
-0.037607
-0.039839
-0.033461
-0.034099
-0.030272
-0.024851
-0.016878
-0.018153
-0.032504
-0.0044404
0.010548
0.0095917
0.020435
0.026494
0.023305
0.033191
0.041164
0.037975
0.042121
0.037975
0.027132
0.027132
0.019478
0.020435
0.01023
0.0073593
0.017564
0.016608
0.0070404
0.010548
0.029364
0.037337
0.020116
0.047223
0.026813
0.031915
0.031278
0.030321
0.024262
0.014694
-0.009224
-0.0041214
-0.00061343
-0.0028458
-0.015283
-0.031867
-0.040796
-0.036331
-0.06025
-0.050044
-0.053871
-0.05419
-0.041753
-0.023575
-0.03665
-0.05419
-0.047174
-0.034737
-0.046536
-0.017516
-0.0038025
-0.009224
-0.011456
-0.0069916
-0.005716
-0.0034836
0.008635
0.012143
0.010548
-0.0038025
-0.00093234
0.0019378
0.014375
0.013738
0.01023
0.013419
0.0079971
0.027451
0.010867
0.011505
0.01884
0.021391
0.027132
0.040845
0.0003433
0.010548
0.016608
0.017883
0.0079971
0.0041702
-0.0044404
-0.027083
-0.010181
-0.0028458
0.0016189
-0.013051
-0.012094
-0.0085862
0.0022568
0.021391
0.035742
0.029045
0.025856
0.046585
0.044353
0.041802
0.030321
0.032234
0.0044891
0.029683
0.05679
0.0051269
0.023305
0.0057648
-0.011775
-0.020705
-0.013689
-0.027083
-0.03665
-0.034099
-0.022299
-0.015921
-0.032186
-0.034099
-0.042391
-0.014008
-0.013689
-0.016559
-0.016878
-0.023575
-0.018153
-0.0034836
-0.010181
-0.012094
-0.013689
-0.016559
-0.017516
-0.021343
-0.022618
-0.023256
-0.021343
-0.026764
-0.0031647
-0.0041214
-0.0041214
-0.0041214
-0.033142
-0.025807
-0.01337
0.016289
0.0057648
0.0079971
0.011505
0.028407
0.0131
0.0016189
-0.0085862
-0.011137
-0.0044404
0.013738
0.029045
0.017564
0.011505
0.013738
0.0016189
0.019159
0.049137
0.012781
0.0051269
-0.00029452
0.022348
0.024262
0.022667
-0.0018891
-0.028996
0.0131
0.020754
0.019159
0.012143
0.0051269
-0.01337
-0.019748
-0.005716
0.004808
0.0051269
-0.011775
-0.00029452
0.010548
-0.0041214
0.0013
0.0051269
-0.014327
0.0028946
-0.0050782
-0.0038025
0.0016189
-0.0060349
-0.012094
-0.005716
0.012781
-0.0015702
-0.0066727
0.00098112
0.0044891
-0.010819
-0.0041214
0.0089539
-0.0098618
-0.023575
0.0035324
0.026494
0.017883
0.0051269
0.010548
0.0099106
0.022986
0.043715
0.026813
0.014694
0.019159
0.010867
0.0032135
0.0016189
2.4388e-05
-0.01624
-0.0028458
-0.015283
-0.02198
-0.030591
-0.034418
-0.0085862
0.0028946
0.0057648
0.01023
0.011505
0.012781
0.010867
0.014694
0.017246
0.038294
0.030959
0.01023
0.0070404
0.025856
0.017883
0.0067215
0.0060837
-0.0085862
-0.0044404
0.0079971
0.0032135
-0.018472
-0.03378
-0.037607
-0.01624
-0.010819
-0.02198
-0.049407
-0.032823
-0.037607
-0.014964
-0.029315
-0.051001
-0.029315
-0.02804
-0.026445
0.0067215
-0.0098618
-0.017197
-0.00061343
0.0022568
-0.011775
-0.019748
-0.01337
-0.0098618
-0.010819
-0.014645
-0.0034836
-0.014645
-0.01911
-0.026445
-0.029315
-0.02517
-0.014645
-0.019748
-0.020067
-0.0050782
-0.00029452
0.00098112
0.0022568
0.004808
-0.010181
0.0092728
0.017564
0.019159
0.012462
0.019478
0.015651
0.025537
0.03351
0.018202
0.016608
0.016927
0.03064
0.022348
0.014694
0.022348
0.0041702
-0.0038025
0.0054459
0.0070404
0.0095917
0.0041702
0.010867
-0.013689
-0.0095429
0.034467
0.02777
0.010867
-0.0012513
0.017883
0.019159
0.008316
0.012143
0.0067215
0.0038513
0.0057648
0.0099106
-0.002208
-0.016878
-0.013051
-0.019748
-0.0085862
-0.013689
-0.02517
-0.040158
-0.034418
-0.032186
-0.032504
-0.027721
-0.026126
-0.04558
-0.037607
-0.018472
-0.017516
-0.015283
-0.019429
-0.02198
-0.014645
-0.00093234
-0.0073105
-0.010819
-0.0028458
0.0054459
0.0076782
-0.010819
0.00098112
-0.0069916
-0.009224
0.0025757
0.011186
0.0095917
0.037337
0.027451
0.022348
0.02171
0.042758
0.031915
0.022986
0.023305
0.033829
0.03351
0.032872
0.021391
0.013419
0.021391
0.008316
0.0092728
-0.0050782
0.0038513
-0.0031647
-0.01337
-0.0044404
0.0016189
-0.0095429
-0.015921
-0.0085862
-0.010819
-0.009224
-0.0089051
-0.012732
-0.02804
-0.017835
-0.0105
-0.0060349
-0.0063538
-0.0041214
0.0051269
0.0019378
0.0051269
-0.00029452
0.0070404
0.012462
0.00066221
0.014694
0.01597
0.00066221
0.0051269
0.01023
0.008316
0.021072
-0.0105
-0.019748
-0.0018891
-0.0034836
-0.0076295
-0.00061343
-0.0015702
0.014694
-0.009224
-0.029953
-0.020386
-0.017516
-0.0098618
-0.017516
-0.0073105
-0.0047593
-0.0041214
-0.012094
-0.0073105
-0.00061343
-0.0066727
0.0022568
0.0054459
0.0051269
-0.0028458
0.0060837
0.0044891
0.0051269
0.014694
0.00098112
-0.0066727
0.010548
0.0092728
0.0013
-0.00093234
0.00066221
-0.015921
-0.0031647
0.029045
-0.00029452
-0.00093234
0.0038513
0.0028946
-0.0018891
0.0057648
0.0013
-0.00093234
-0.013689
0.0057648
0.025856
0.021072
0.0028946
-0.002208
0.0028946
0.0092728
0.022348
-0.014327
-0.030272
-0.013051
0.0013
0.0003433
-0.0031647
-0.00093234
0.0013
0.018521
0.018521
0.021072
0.024899
0.041483
0.063806
0.059979
0.053601
0.04818
0.050093
0.035742
0.038294
0.042439
0.0076782
0.0060837
0.008316
-0.022618
-0.031548
-0.035694
-0.027083
-0.019748
-0.026445
-0.036969
-0.056423
-0.038564
-0.036012
-0.032504
-0.032823
-0.034099
-0.0028458
0.018202
-0.0018891
-0.014964
-0.015283
0.0035324
0.0067215
0.032553
0.055515
0.068271
0.060298
0.031915
0.039569
0.04818
0.031596
0.041164
0.027132
0.020754
0.0067215
0.017246
-0.016559
-0.023256
-0.024532
-0.029634
-0.042391
-0.049726
-0.036331
-0.053234
-0.047174
-0.051001
-0.032504
-0.023575
-0.018791
-0.0034836
-0.0069916
-0.005716
-0.0060349
-0.01337
0.0013
0.012781
0.0038513
0.0095917
0.014375
0.02171
0.008316
0.014694
0.0016189
-0.012094
-0.0098618
-0.010181
-0.01337
-0.021343
-0.024851
-0.037926
-0.033461
-0.041434
-0.021024
-0.030591
-0.015602
-0.026445
-0.039839
-0.035694
-0.03091
-0.029315
-0.034418
-0.034737
-0.023256
0.011505
0.030959
0.023305
0.039569
0.078795
0.087725
0.1059
0.095697
0.088681
0.10048
0.1059
0.13269
0.1244
0.082303
0.060298
0.04531
0.036699
0.017246
0.0025757
-0.023256
-0.06886
-0.069817
-0.066309
-0.073644
-0.06886
-0.072368
-0.067903
-0.058017
-0.03665
-0.03952
-0.036331
-0.019748
0.0051269
0.0060837
0.0060837
0.004808
0.0054459
0.0131
-0.0089051
0.0067215
-0.0060349
-0.029315
-0.0069916
-0.013689
-0.024851
-0.0063538
-0.038564
-0.053234
-0.048769
-0.037926
-0.030591
-0.028678
-0.027721
-0.049088
-0.025807
-0.026764
-0.035694
-0.042072
-0.03378
-0.01911
-0.014327
-0.00093234
-0.016878
-0.038245
-0.034099
-0.023575
-0.012732
-0.028678
-0.026126
-0.022618
-0.029634
-0.015283
0.01597
0.026494
0.0070404
0.048818
0.048818
0.03064
0.057109
0.044353
0.068909
0.079752
0.081346
0.11643
0.11579
0.12057
0.10335
0.11005
0.11579
0.11611
0.10845
0.12536
0.14003
0.1008
0.088362
0.091552
0.074649
0.069866
0.071141
0.053601
0.023305
0.012462
-0.037288
-0.047174
-0.018153
-0.017516
-0.050044
-0.047812
-0.038883
-0.057379
-0.074282
-0.08066
-0.089589
-0.086719
-0.078427
-0.074282
-0.054509
-0.06312
-0.068222
-0.078746
-0.10171
-0.10394
-0.043028
-0.027083
-0.050682
-0.048769
-0.049088
-0.043666
-0.01911
-0.027083
-0.035694
-0.036331
-0.017516
-0.022299
-0.019429
-0.032504
-0.050363
-0.034099
-0.017835
-0.018791
-0.02804
-0.031229
-0.027083
-0.029315
-0.010819
0.010867
0.016608
0.022986
0.025856
0.034148
0.029364
0.031596
0.03638
0.022029
0.050731
0.043077
0.05105
0.049455
0.037337
0.022029
0.044034
0.078476
0.081984
0.067633
0.035423
0.041164
0.054239
0.061255
0.073055
0.077201
0.066677
0.10845
0.064763
0.045629
0.04818
0.035104
0.049455
0.026494
0.05105
0.035742
-0.0012513
-0.012094
-0.020386
-0.019748
-0.016559
-0.016559
-0.0105
0.0089539
0.017246
0.10335
0.063487
0.058066
0.07146
0.11324
0.1228
0.12472
0.11834
0.12759
0.12185
0.076882
0.077201
0.088681
0.060936
0.0057648
-0.0063538
-0.01624
-0.021024
-0.049726
-0.084806
-0.08927
-0.089908
-0.079703
-0.090227
-0.098519
-0.10713
-0.091184
-0.092141
-0.10394
-0.099794
-0.10011
-0.1033
-0.079703
-0.054828
-0.062482
-0.065033
-0.082573
-0.041753
-0.034099
-0.01911
-0.015602
-0.0063538
-0.012413
0.0016189
0.0095917
0.050412
0.085492
0.092508
0.077838
0.063487
0.079114
0.078476
0.089319
0.12089
0.11228
0.11547
0.13907
0.098568
0.079752
0.037975
0.046266
0.055196
0.061574
0.040845
0.028726
0.062212
0.1075
0.10144
0.074012
0.064444
0.060298
0.066677
0.10016
0.10335
0.1193
0.12153
0.09506
0.09187
0.064125
0.047542
0.00098112
0.00098112
-0.0105
-0.013051
-0.036012
-0.045899
-0.066309
-0.097243
-0.091822
-0.066947
-0.10235
-0.10649
-0.11319
-0.10522
-0.082892
-0.094054
-0.094054
-0.10713
-0.099794
-0.084487
-0.09533
-0.084806
-0.083211
-0.061525
-0.056742
-0.066628
-0.034099
-0.041753
-0.028359
0.025537
0.017883
0.008316
0.035423
0.05392
0.063806
0.086768
0.11356
0.10495
0.11069
0.12025
0.056153
0.059661
0.070503
0.072417
0.11483
0.068909
0.055196
0.041802
-0.012094
-0.013051
0.00098112
0.00098112
0.028407
0.0070404
0.0003433
-0.00061343
0.0019378
-0.0041214
0.0013
0.0054459
0.0028946
-0.014645
-0.01911
-0.023256
-0.021661
-0.045899
-0.053234
-0.041753
-0.032504
-0.039202
-0.042391
-0.048769
-0.043347
-0.041434
-0.076514
-0.06025
-0.042391
-0.043028
-0.050044
-0.028359
-0.033142
-0.02804
-0.046855
-0.044942
-0.028359
-0.025807
-0.017516
-0.0089051
-0.0025269
-0.012094
0.031278
0.02777
0.00098112
0.0089539
0.0025757
-0.022937
-0.018153
-0.015921
-0.018472
-0.03091
-0.02804
-0.02517
-0.037926
-0.030272
-0.04558
-0.0069916
-0.04271
-0.049088
-0.026764
0.025537
0.030321
0.022348
0.028407
0.029364
0.039888
0.042758
0.046585
0.051369
0.068909
0.065401
0.064444
0.037018
0.041802
0.043715
0.06285
0.063169
0.066358
0.062212
0.081984
0.071779
0.049774
0.032872
0.045947
0.044353
0.03638
0.038612
0.03064
0.035423
0.034786
0.038294
0.018521
-0.0015702
0.0057648
-0.022299
-0.033142
-0.023894
-0.030591
-0.0085862
-0.026764
-0.027402
-0.038564
-0.052915
-0.061844
-0.051639
-0.046218
-0.041434
-0.077152
-0.10171
-0.08353
-0.040477
-0.053552
-0.058336
-0.062801
-0.081298
-0.084487
-0.066947
-0.06025
-0.056423
-0.017835
-0.017516
-0.00061343
-0.0031647
-0.011775
-0.0105
0.0073593
0.038931
0.028088
0.027132
0.037337
0.02777
0.020116
0.023624
0.021072
0.023624
-0.0073105
0.0038513
0.008635
0.016927
0.0057648
-0.0025269
-0.011775
0.0054459
-0.0047593
-0.034418
-0.014964
-0.0050782
-0.0060349
-0.0082673
0.01023
0.0051269
-0.002208
-0.0018891
0.019478
0.031915
0.022029
0.02777
0.031915
0.025537
0.030321
0.063806
0.03638
0.021072
0.025218
0.0070404
0.01023
0.014694
-0.01624
-0.032823
-0.011775
-0.020067
-0.050044
-0.044304
-0.041115
-0.051958
-0.046536
-0.028678
-0.010819
-0.022299
-0.021661
-0.01911
-0.016559
-0.016878
-0.017197
-0.011775
-0.032504
-0.012413
0.0038513
0.0089539
-0.0082673
0.013419
-0.0089051
-0.020705
-0.0105
-0.022937
-0.031867
-0.030272
-0.030591
-0.031867
-0.039202
-0.042391
-0.037926
-0.044942
-0.042072
-0.03378
-0.00061343
0.022348
0.027132
0.011824
0.023943
0.035423
0.035423
0.05679
0.051688
0.059979
0.063169
0.031915
0.051369
0.0013
0.0054459
0.0038513
2.4388e-05
-0.012413
-0.041753
-0.058336
-0.059612
-0.048131
-0.051639
-0.058017
-0.058017
-0.051001
-0.058974
-0.049407
-0.034418
-0.058017
-0.073006
-0.044623
-0.031548
-0.014008
-0.0098618
-0.014964
-0.02804
-0.045899
-0.0089051
-0.012094
-0.018153
-0.0060349
0.0054459
-0.0079484
-0.011775
-0.016878
-0.015283
-0.0098618
-0.013051
-0.0082673
-0.01911
-0.0012513
-0.00029452
-0.019748
-0.029953
-0.02198
-0.017835
-0.031867
-0.028996
-0.023256
-0.023894
-0.03091
-0.025488
-0.058017
-0.040796
-0.032504
-0.0105
-0.030272
-0.030591
-0.017197
-0.014008
0.0095917
0.018521
0.011186
-0.0041214
0.010548
0.020754
0.03064
0.030321
0.0019378
-0.0034836
0.020435
0.01884
0.018521
-0.0034836
-0.022937
-0.0089051
0.0022568
-0.0015702
-0.020067
-0.029953
-0.041753
-0.04271
-0.032823
-0.028678
-0.026126
-0.031229
-0.024532
-0.029315
-0.02804
-0.026126
-0.031867
-0.027402
-0.019429
-0.02517
-0.0031647
-0.0069916
-0.032504
-0.026764
-0.025488
-0.014327
-0.017835
-0.0073105
-0.02804
-0.023894
-0.016878
2.4388e-05
-0.005716
-0.019429
-0.019748
0.004808
0.034467
0.020116
-0.002208
-0.011775
0.0099106
0.024899
0.020116
0.028726
-0.002208
-0.014008
-0.005716
0.0044891
0.011505
0.0067215
-0.0066727
-0.022937
-0.012094
0.004808
-0.018153
-0.0060349
-0.005716
0.0070404
0.0073593
-0.010819
-0.01911
-0.025488
-0.021343
-0.011456
-0.009224
-0.015921
-0.011775
-0.0089051
-0.034099
-0.053234
-0.023575
-0.017197
-0.021343
-0.036012
-0.03665
-0.014008
0.010548
0.033191
0.0076782
0.033829
0.038931
0.041802
0.03925
0.041164
0.051688
0.054877
0.066039
0.054239
0.05679
0.026175
0.02171
0.018202
0.0044891
-0.0085862
-0.027721
-0.035375
-0.00029452
-0.0082673
-0.023575
-0.017197
-0.005716
-0.016878
-0.018153
-0.0044404
-0.014008
-0.012094
-0.010819
-0.0015702
0.017883
0.0041702
-0.038883
-0.040158
-0.015283
-0.040477
-0.04271
-0.053234
-0.04558
-0.048131
-0.055466
-0.073644
-0.066628
-0.078109
-0.087995
-0.075238
-0.064714
-0.059931
-0.063758
-0.062163
-0.079065
-0.055466
-0.039202
-0.031867
-0.04558
-0.03952
-0.020705
-0.0082673
0.0019378
-0.0066727
-0.014008
-0.0034836
-0.010181
-0.013689
-0.012413
-0.039839
-0.057379
-0.050044
-0.032504
-0.02517
-0.024532
0.038294
0.042121
0.028726
0.051369
0.07752
0.05392
0.060936
0.051369
0.093784
0.076882
0.08326
0.081346
0.052645
0.070503
0.042439
0.016608
-0.013051
-0.024851
-0.04271
-0.055147
-0.043666
-0.022618
-0.02517
-0.032823
-0.032823
-0.022618
-0.0031647
-0.013051
-0.014008
-0.032504
-0.0015702
-0.0034836
-0.026764
-0.0085862
0.014375
0.024899
0.0032135
-0.0038025
-0.012094
-0.018791
-0.020705
-0.005716
-0.005716
-0.0015702
-0.015921
-0.021343
-0.022618
-0.025807
-0.012094
-0.00029452
-0.0089051
-0.037288
-0.030272
-0.01337
-0.014327
-0.028359
-0.028359
-0.018153
-0.019748
-0.028678
-0.026445
-0.028996
-0.04271
-0.024213
-0.0066727
0.0057648
-0.0089051
-0.0089051
-0.012413
-0.0082673
0.0041702
0.023943
0.017246
0.016927
0.021072
0.019159
0.027132
0.015651
0.0025757
-0.014645
0.008635
0.013419
0.0067215
-0.0095429
-0.020386
-0.018153
0.0016189
0.0057648
-0.011775
0.016289
0.020435
0.0044891
-0.0047593
-0.005716
0.013419
0.034148
0.0028946
0.0076782
0.020435
0.019159
0.008635
-0.018791
-0.0012513
0.018521
0.057747
0.060617
0.035742
0.020435
0.014694
0.042121
0.064125
0.071141
0.059979
0.072098
0.057428
0.088362
0.093784
0.075606
0.04531
0.011186
0.012143
0.03064
0.015013
-0.0105
-0.03091
-0.034418
-0.036331
-0.067266
-0.058974
-0.087038
-0.077152
-0.076514
-0.071411
-0.073006
-0.051958
-0.078109
-0.092778
-0.069498
-0.089589
-0.072368
-0.083849
-0.082892
-0.071411
-0.066309
-0.071093
-0.087676
-0.078746
-0.072049
-0.059293
-0.054828
-0.056742
-0.047493
-0.034418
-0.023894
2.4388e-05
-0.014645
-0.036331
-0.01911
-0.014008
-0.017197
-0.014645
-0.021343
-0.028996
0.0016189
-0.00061343
-0.016559
-0.023894
-0.020067
-0.0044404
0.008635
0.008635
0.019159
0.01023
0.0019378
0.013419
0.025218
0.020435
0.018521
0.010867
0.010548
0.031915
0.031278
0.037018
0.039888
0.045947
0.050731
0.059979
0.062531
0.069866
0.070503
0.05105
0.088044
0.13078
0.1244
0.098568
0.093146
0.089319
0.093784
0.084854
0.06572
0.08326
0.061893
0.056153
0.052963
0.046266
0.022348
0.019797
-0.005716
-0.020386
-0.024213
-0.03952
-0.064077
-0.070136
-0.054509
-0.067266
-0.070774
-0.095011
-0.080979
-0.060569
-0.077471
-0.082573
-0.090227
-0.097243
-0.097562
-0.081935
-0.070774
-0.031867
-0.039202
-0.044942
-0.069179
-0.050363
-0.027402
-0.024851
-0.020386
-0.028678
-0.033142
-0.019429
-0.0073105
-0.0082673
-0.019429
-0.021024
-0.024213
-0.021024
-0.017835
-0.0047593
-0.014645
-0.01337
-0.0076295
0.0060837
0.0032135
0.0060837
0.010867
0.035742
0.046585
0.054239
0.045629
0.030002
0.035104
0.031915
0.02777
0.032553
0.03925
0.030959
0.040845
0.043396
0.031278
0.024899
0.014375
0.025218
0.013738
0.020435
0.044034
0.037656
0.022667
0.025856
0.03638
0.034467
0.028407
0.0013
-0.0063538
0.028088
0.041483
0.017564
-0.0025269
-0.0076295
-0.0047593
-0.0038025
0.0003433
-0.0044404
-0.018153
-0.034737
-0.037607
-0.026445
-0.036969
-0.047493
-0.06312
-0.047174
-0.044304
-0.036012
-0.043985
-0.050682
-0.028996
-0.023894
-0.037926
-0.016878
-0.014327
-0.012094
0.0028946
0.0073593
0.008635
-0.0034836
0.016608
-0.0063538
0.014056
0.034786
0.056153
0.033829
0.008635
0.023943
0.011824
0.011505
0.022667
0.031278
0.00066221
-0.022937
-0.021024
0.0095917
-0.0105
-0.043347
-0.04845
-0.030272
-0.019748
-0.012732
0.029683
0.035104
0.039888
0.062212
0.075925
0.069866
0.074649
0.079114
0.091233
0.12121
0.12567
0.10367
0.074012
0.038931
0.03351
0.01597
0.039888
0.01884
-0.011456
-0.038245
-0.053871
-0.050044
-0.056104
-0.075876
-0.085762
-0.06599
-0.074601
-0.072049
-0.080022
-0.082573
-0.063758
-0.066309
-0.061844
-0.048131
-0.032823
-0.031867
-0.030272
-0.011775
-0.016559
-0.013689
-0.012413
0.0060837
0.0092728
0.0019378
0.016289
0.0028946
-0.012094
-0.013689
-0.0066727
0.0060837
-0.00029452
-0.0089051
-0.0073105
-0.0073105
0.012462
-0.0063538
-0.0060349
-0.0041214
-0.0047593
-0.0053971
0.0079971
0.010867
-0.01624
-0.021024
-0.023575
-0.0085862
0.004808
-0.012413
-0.028996
-0.0018891
0.017246
-0.010819
-0.029634
-0.027083
-0.015283
0.0095917
0.0057648
0.0032135
0.0013
-0.015602
-0.002208
0.019159
0.021072
0.023305
0.040526
0.059342
0.046585
0.047223
0.040526
0.050093
0.047542
0.064444
0.088362
0.075287
0.040845
0.050731
0.026175
0.041483
0.031596
0.030002
0.024899
-0.01624
-0.026126
-0.015283
-0.014327
-0.036969
-0.043028
-0.01911
-0.035694
-0.046855
-0.046536
-0.045899
-0.051639
-0.06025
-0.047812
-0.04845
-0.037288
-0.049088
-0.027721
-0.025488
-0.033142
-0.029634
-0.044304
-0.045899
-0.039839
-0.043347
-0.038245
-0.040158
-0.041753
-0.055147
-0.030591
-0.028996
-0.032186
-0.031867
-0.033142
-0.026126
-0.028996
-0.018153
-0.011137
-0.0050782
-0.0105
-0.0050782
0.0028946
0.0057648
0.0060837
0.0003433
-0.002208
0.014375
0.022986
0.021391
0.015651
0.012462
0.014694
0.027132
0.037337
0.017883
0.01023
0.008316
0.0095917
0.021391
0.013419
0.011824
2.4388e-05
0.008635
0.0025757
0.012781
0.011505
0.010867
0.0089539
0.01884
0.029364
0.050093
0.034148
0.02458
0.035423
0.041164
0.028407
0.0073593
0.0041702
-0.005716
0.013419
2.4388e-05
0.025218
0.0035324
-0.018153
-0.029953
-0.024532
0.012781
0.013419
-0.00029452
-0.016878
0.0099106
0.008316
0.01023
0.014375
-0.0105
-0.012094
0.040526
0.0028946
-0.017516
0.0051269
-0.0069916
-0.012413
-0.010819
-0.0015702
-0.015283
-0.029634
-0.02517
-0.017835
-0.018153
0.00098112
-0.0031647
-0.015283
-0.0034836
-0.017516
0.0016189
0.0073593
0.0064026
0.01023
0.0044891
0.018521
0.04531
0.035742
0.0060837
-0.0066727
0.014056
0.01884
0.020754
0.031915
-0.005716
0.015651
0.0035324
-0.005716
0.0041702
0.0016189
0.0028946
-0.012094
0.0076782
0.0028946
-0.0028458
-0.017197
-0.012413
-0.0031647
0.0044891
0.0013
-0.011775
-0.018791
0.0019378
0.0013
-0.0098618
-0.012413
-0.012413
-0.0076295
-0.0044404
0.01884
-0.0053971
-0.0018891
-0.014327
-0.01624
-0.0105
-0.013051
-0.010819
-0.012732
-0.0041214
-0.011137
-0.0044404
-0.0085862
-0.0047593
-0.0034836
-0.0095429
-0.0063538
0.015013
0.0057648
-0.012413
0.010867
0.022986
0.014375
0.015013
0.011505
-0.0082673
0.0073593
2.4388e-05
0.0064026
-0.0012513
0.0057648
0.020435
0.0057648
0.0060837
-0.010819
-0.013689
0.00098112
0.0044891
-0.014645
-0.028359
0.0032135
-0.025488
-0.029953
-0.016559
-0.018153
-0.013689
-0.018791
-0.014327
-0.023575
-0.018791
-0.005716
-0.014008
-0.018153
-0.012094
-0.0066727
-0.0012513
2.4388e-05
0.0013
-0.010819
-0.00093234
0.00066221
0.0095917
0.0060837
-0.0063538
-0.010819
0.0099106
0.014375
0.011186
-0.0060349
-0.013051
-0.0073105
-0.0044404
-0.0063538
-0.0060349
-0.00029452
-0.021024
-0.0066727
0.01884
0.031278
0.019159
0.020116
0.012781
0.022348
0.01597
0.018202
0.0076782
-0.0028458
0.024899
0.020435
0.016289
-0.0012513
-0.017516
-0.024213
-0.017197
-0.0079484
-0.0098618
-0.017835
-0.020067
-0.027083
-0.009224
0.0013
-0.0073105
-0.0082673
-0.0085862
-0.015283
-0.031229
-0.018153
-0.012094
-0.028678
-0.017197
-0.015602
-0.009224
-0.011775
-0.014964
-0.0073105
-0.0063538
-0.0089051
2.4388e-05
0.0095917
0.01023
0.008635
0.0076782
0.0079971
0.0092728
0.0099106
-0.005716
0.0099106
0.013419
0.015332
0.014694
0.012781
0.010867
0.010867
0.026494
0.016289
0.013738
0.011824
0.01597
0.012143
0.0092728
0.0095917
2.4388e-05
-0.005716
-0.0012513
0.015651
0.021072
0.0099106
0.0038513
0.0003433
0.0070404
0.030002
0.016927
0.017883
0.026813
0.028407
0.020116
0.025218
0.023943
0.013738
0.015013
0.022986
0.028088
0.025856
0.035742
0.021072
0.0076782
0.01884
0.029045
0.022667
0.01597
0.01884
0.008316
0.00066221
-0.0034836
0.0038513
-0.030272
-0.020386
-0.0044404
-0.0060349
-0.019429
-0.0069916
-0.0095429
-0.019429
-0.0073105
-0.005716
-0.0069916
-0.0063538
0.0019378
-0.0018891
0.008635
0.0095917
-0.002208
0.0044891
0.0016189
0.0038513
0.0028946
0.0051269
0.0013
-0.0047593
-0.01337
0.0073593
-0.0012513
-0.0060349
-0.002208
-0.012732
-0.012413
-0.0025269
-0.0018891
-0.010181
0.018521
0.019478
0.024262
0.031915
0.036699
0.047223
0.060936
0.058066
0.063806
0.060617
0.067633
0.065401
0.062531
0.060617
0.080071
0.040845
-0.00029452
0.014056
0.037018
0.027132
0.022029
0.02171
0.0054459
-0.0079484
0.0013
-0.010819
-0.0053971
-0.0082673
-0.0041214
-0.0060349
-0.0053971
-0.015283
-0.026445
-0.029953
-0.026445
-0.013689
-0.014008
-0.016878
-0.011456
-0.01624
-0.01911
0.0032135
-0.014964
-0.016559
-0.0044404
0.012462
0.0044891
0.0070404
0.0076782
-0.0031647
0.011824
0.017883
0.022029
0.0095917
0.013738
0.016289
0.025218
0.022986
0.015332
0.0028946
0.0025757
0.018521
0.029364
0.015332
0.01023
0.016927
0.0070404
0.021072
0.04531
0.036699
0.024262
0.028726
0.026494
0.041802
0.069228
0.06859
0.046904
0.010867
0.032872
0.054239
0.05679
0.054877
0.042758
0.053282
0.072098
0.06285
0.037018
0.067633
0.063169
0.062212
0.04531
0.084217
0.067952
0.061574
0.043396
0.013738
-0.0066727
-0.018472
-0.0073105
-0.024532
-0.03665
-0.043028
-0.054509
-0.043985
-0.075238
-0.074601
-0.06312
-0.055785
-0.055785
-0.066309
-0.052277
-0.049088
-0.036331
-0.041115
-0.043985
-0.049407
-0.044623
-0.021024
-0.017516
-0.01337
-0.01624
-0.022937
-0.0031647
0.0054459
0.01023
-0.022618
0.012143
0.014694
0.0019378
-0.0031647
0.00098112
0.018521
-0.013689
-0.013051
0.0044891
-0.0047593
-0.0034836
0.00098112
0.01597
-0.0015702
0.0035324
0.024899
0.008316
0.008635
0.022667
0.011824
0.028726
0.034467
0.011505
-0.033461
-0.010819
0.024262
0.028407
0.023305
0.018202
0.0076782
-0.0038025
0.0073593
0.022029
0.031596
0.03064
0.032872
0.026175
0.020435
0.028726
0.02777
0.031596
0.028407
0.0095917
0.029045
0.011505
0.012143
0.0067215
-0.011775
0.015013
0.0032135
-0.005716
-0.013689
-0.014645
-0.014645
-0.032823
-0.049407
-0.046218
-0.046218
-0.019429
-0.00029452
-0.027083
-0.026445
-0.040158
-0.03091
-0.0012513
0.01023
0.01023
0.0032135
0.016608
0.030959
0.010548
-0.015602
-0.005716
-0.005716
0.01597
0.0057648
0.00098112
-0.012413
-0.027721
-0.029953
-0.023894
-0.03091
-0.038245
-0.027402
-0.041753
-0.026764
-0.025807
-0.040158
-0.038564
-0.040796
-0.059612
-0.039202
-0.012094
-0.0012513
-0.013689
0.0016189
0.017564
0.031278
0.042121
0.029045
0.064125
0.08039
0.067314
0.060617
0.10239
0.097292
0.067952
0.071779
0.078795
0.031915
0.017883
0.032553
0.0044891
0.0079971
-0.0034836
-0.009224
-0.039839
-0.049088
-0.055147
-0.048769
-0.058336
-0.051958
-0.034737
-0.020705
0.016927
0.021072
0.0054459
0.014375
0.01884
0.05679
0.062531
0.073374
0.076882
0.088681
0.08613
0.063487
0.032872
0.039888
0.046266
0.038612
0.013419
0.022667
0.026175
0.00098112
-0.009224
-0.032186
-0.033461
-0.01624
0.0025757
-0.029315
-0.026126
-0.02198
-0.018791
-0.01624
-0.032186
-0.029634
-0.028996
-0.027083
-0.034737
-0.034099
-0.027721
-0.015602
-0.032186
-0.034099
-0.030272
-0.014964
-0.034099
-0.041753
-0.046536
-0.049726
-0.040477
-0.034418
-0.037288
-0.053871
-0.036331
-0.015283
-0.012094
0.0051269
0.0013
0.0032135
0.0070404
0.027451
0.038612
0.049137
0.051369
0.054877
0.052007
0.059342
0.05392
0.04531
0.04531
0.048818
0.056471
0.046266
0.05105
0.067314
0.066039
0.065401
0.068909
0.053601
0.06859
0.074012
0.056471
0.046585
0.050412
0.037975
0.025537
0.037656
0.024899
0.012781
0.01597
0.019159
0.026813
0.025856
0.021072
0.019478
0.004808
-0.00061343
0.0003433
0.016289
0.023624
0.046266
0.049137
-0.015283
-0.005716
0.010548
-0.0063538
-0.0079484
-0.014327
-0.015921
0.0092728
0.010548
-0.0015702
0.0016189
0.0028946
0.0051269
-0.002208
0.0013
-0.0018891
-0.0105
2.4388e-05
0.0019378
0.01597
0.021391
0.015332
0.0057648
-0.0060349
-0.0085862
0.016289
0.0057648
-0.0076295
-0.0098618
0.0051269
0.0067215
-0.0034836
-0.0082673
-0.02198
-0.019429
-0.021024
-0.015283
-0.01911
-0.021024
-0.012094
-0.014645
-0.0105
-0.0034836
-0.011137
-0.018791
-0.0085862
-0.005716
-0.0028458
-0.0018891
0.0035324
-0.0044404
0.013419
0.020754
0.017564
0.0095917
0.0073593
0.012143
0.0060837
0.015651
0.0067215
0.020435
0.019159
0.0099106
0.013419
0.01884
0.004808
-0.00061343
0.017246
0.014694
0.043077
0.037337
0.028088
0.042758
0.044034
0.02171
0.037337
0.047223
0.041164
0.020116
0.015332
0.010548
0.0076782
0.0079971
0.0079971
0.0019378
0.0013
-0.0044404
-0.0079484
-0.0034836
-0.0079484
0.01023
0.0073593
0.033191
0.035104
0.031278
0.032872
0.046904
0.050412
0.057428
0.060298
0.054558
0.058066
0.059023
0.040526
0.04818
0.043715
0.044353
0.036061
0.020435
0.012781
0.018521
-0.0031647
-0.020067
-0.026126
-0.03665
-0.041434
-0.049088
-0.052915
-0.043347
-0.04271
-0.042391
-0.036969
-0.043347
-0.035694
-0.030272
-0.015283
-0.030591
-0.029953
-0.019748
-0.013689
-0.0085862
-0.0044404
-0.0041214
-0.014645
-0.00093234
0.0041702
0.0099106
0.0070404
0.0064026
0.0099106
0.010548
0.017246
0.02458
0.018521
0.011505
0.015651
0.016608
0.017564
0.017883
0.015332
-0.0028458
0.016289
0.01884
0.017246
0.013738
0.012781
0.014375
0.016289
0.028088
0.016289
0.017564
0.015013
0.017564
0.020754
0.016289
0.015332
0.0092728
0.004808
0.010548
0.018202
0.017246
0.01597
0.013419
0.011505
0.012143
0.028407
0.01597
0.013419
0.015013
0.014694
0.014375
0.017246
0.023305
0.0092728
0.02171
0.020435
0.02458
0.017883
0.023943
0.029683
0.028407
0.031596
0.036699
0.025856
0.023943
0.028088
0.017246
0.018521
0.02458
0.015013
-0.0079484
0.011505
0.014694
0.0092728
0.0044891
0.0032135
0.0028946
0.0035324
0.010548
0.0022568
2.4388e-05
0.0016189
0.0035324
0.00098112
-0.0012513
-0.0025269
-0.0098618
-0.012413
-0.00061343
0.0060837
-0.0018891
-0.0018891
-0.00093234
-0.0025269
0.00098112
0.017883
0.0076782
0.00098112
0.0028946
0.0044891
0.0035324
0.0044891
0.0035324
-0.0082673
0.0044891
0.0041702
0.004808
0.00098112
2.4388e-05
-0.00029452
-0.00061343
0.02458
0.031596
0.013419
0.0060837
0.012143
0.021391
0.016608
0.01884
0.0131
-0.0034836
0.008635
0.0089539
0.0073593
0.011824
0.0054459
-0.0038025
-0.01337
0.0057648
-0.0018891
-0.0031647
-0.010181
-0.0063538
-0.0073105
-0.0079484
-0.0085862
-0.016878
-0.013051
-0.0066727
2.4388e-05
-0.0079484
-0.0073105
-0.0053971
-0.0089051
-0.0069916
0.0095917
-0.0034836
-0.0089051
-0.0069916
-0.0044404
-0.0044404
-0.0044404
-0.005716
-0.014964
-0.0031647
-0.0031647
-0.00061343
-0.0060349
-0.0073105
-0.0028458
-0.0025269
0.0032135
0.0076782
0.0028946
-0.0053971
0.00098112
0.0003433
0.0003433
-0.00029452
-0.0038025
-0.018153
-0.002208
0.0038513
0.00098112
-0.0025269
-0.0034836
-0.0038025
-0.0012513
0.0095917
-0.00061343
-0.00093234
-0.0028458
0.0003433
0.00098112
-0.002208
-0.002208
-0.011775
-0.0098618
-0.0044404
0.0035324
-0.0034836
-0.0050782
-0.0053971
-0.0060349
-0.0031647
0.013419
0.0003433
-0.0063538
-0.0041214
-0.0025269
-0.0028458
-0.0031647
-0.0044404
-0.014327
-0.002208
-0.0028458
-0.0015702
-0.0082673
-0.0085862
-0.0025269
-0.0034836
0.0025757
0.004808
-0.00093234
-0.0082673
-0.0015702
-0.0031647
-0.0028458
-0.0028458
-0.0079484
-0.022937
-0.0069916
-0.00029452
-0.0031647
-0.0069916
-0.0089051
-0.0085862
-0.0073105
0.0057648
-0.0082673
-0.0073105
-0.0095429
-0.0060349
-0.0053971
-0.0079484
-0.0098618
-0.018791
-0.012094
-0.009224
-0.0034836
-0.0085862
-0.0098618
-0.0079484
-0.0082673
-0.0060349
0.0099106
-0.0034836
-0.0105
-0.0066727
-0.0073105
-0.0060349
-0.0069916
-0.010181
-0.023894
-0.0098618
-0.0105
-0.009224
-0.013689
-0.014964
-0.012413
-0.011456
-0.0053971
-0.0038025
-0.0069916
-0.015283
-0.010181
-0.010181
-0.011456
-0.0098618
-0.019429
-0.026764
-0.01337
-0.0076295
-0.012413
-0.015283
-0.015921
-0.017197
-0.014645
0.0016189
-0.012094
-0.012732
-0.01337
-0.010181
-0.0082673
-0.0095429
-0.010819
-0.019429
-0.014645
-0.010819
-0.0034836
-0.009224
-0.0105
-0.0089051
-0.0098618
-0.0060349
0.011824
-0.0018891
-0.009224
-0.0050782
-0.0034836
-0.0041214
-0.002208
-0.0047593
-0.017197
-0.002208
-0.0012513
0.00098112
-0.0041214
-0.0063538
-0.0012513
0.00066221
0.011505
0.008316
0.0041702
-0.00029452
0.0041702
0.0051269
0.0054459
0.0064026
-0.002208
-0.011456
0.0019378
0.008316
0.0041702
-0.0018891
-0.0041214
0.00066221
0.00066221
0.015332
0.0022568
0.0013
0.00098112
0.0051269
0.0064026
0.0032135
0.0022568
-0.0050782
0.0035324
0.0057648
0.011824
0.0054459
0.0038513
0.0064026
0.0057648
0.0073593
0.022348
0.010867
0.0028946
0.0051269
0.0057648
0.0025757
0.0054459
0.0044891
-0.011775
0.0035324
0.0041702
0.0054459
0.0003433
-0.0025269
0.0013
0.0038513
0.010548
0.0095917
0.0067215
0.0013
0.0057648
0.0057648
0.0064026
0.0067215
-0.00093234
-0.0098618
0.0044891
0.011824
0.0095917
0.0073593
0.0073593
0.0038513
0.0073593
0.021391
0.01023
0.008316
0.0092728
0.01023
0.011505
0.01023
0.0095917
-0.0018891
0.0060837
0.0092728
0.013419
0.0076782
0.0073593
0.01023
0.0089539
0.011824
0.025218
0.014056
0.0076782
0.010867
0.01023
0.011824
0.011186
0.008635
-0.0044404
0.011505
0.011505
0.010867
0.0070404
0.0051269
0.0092728
0.0079971
0.017246
0.011505
0.0099106
0.0044891
0.0099106
0.0095917
0.0092728
0.0079971
0.0016189
-0.0076295
0.0051269
0.0131
0.008635
0.0057648
0.0070404
0.0051269
0.0070404
0.02458
0.012781
0.0099106
0.011505
0.013738
0.014056
0.013738
0.011824
0.0032135
0.012462
0.01597
0.018521
0.012462
0.010867
0.013738
0.012781
0.016608
0.02777
0.017246
0.0095917
0.0131
0.0131
0.014694
0.014056
0.0095917
-0.0031647
0.015332
0.014694
0.012462
0.0070404
0.008635
0.010867
0.011505
0.020435
0.015332
0.012143
0.0079971
0.011505
0.012781
0.0099106
0.0092728
0.00066221
-0.0066727
0.0054459
0.013419
0.01023
0.0070404
0.0051269
0.0041702
0.0051269
0.021391
0.0079971
0.0044891
0.0051269
0.0067215
0.008316
0.0057648
0.0044891
-0.0066727
0.0025757
0.0032135
0.0060837
0.0016189
2.4388e-05
0.0019378
0.00066221
0.0054459
0.015332
0.0032135
-0.0038025
2.4388e-05
0.0003433
0.0013
-0.00029452
-0.0038025
-0.018153
-0.0028458
-0.00093234
-0.0034836
-0.0063538
-0.0095429
-0.0066727
-0.0073105
0.0035324
-0.0050782
-0.0060349
-0.0098618
-0.0069916
-0.0066727
-0.0073105
-0.0095429
-0.014327
-0.021661
-0.011456
-0.0044404
-0.0066727
-0.011456
-0.0095429
-0.0098618
-0.0082673
0.0067215
-0.0076295
-0.010819
-0.0079484
-0.0060349
-0.0069916
-0.009224
-0.009224
-0.019748
-0.0079484
-0.0069916
-0.0041214
-0.009224
-0.0098618
-0.005716
-0.0063538
-0.0025269
0.0076782
2.4388e-05
-0.0089051
-0.0038025
-0.0031647
-0.0015702
-0.0012513
-0.0038025
-0.019429
-0.002208
-0.00029452
0.0013
-0.0028458
-0.0038025
-0.0018891
-0.0012513
0.010548
0.0054459
0.0025757
-0.002208
0.0028946
0.0051269
0.0051269
0.0028946
-0.0031647
-0.0089051
0.0013
0.0067215
0.0038513
0.0035324
0.0025757
0.0013
0.0054459
0.019478
0.0076782
0.0025757
0.0038513
0.0060837
0.0057648
0.0054459
0.0038513
-0.0060349
0.0041702
0.0060837
0.0076782
0.0028946
0.0016189
0.0051269
0.0041702
0.010548
0.017883
0.01023
0.0019378
0.0070404
0.0073593
0.0079971
0.0073593
0.0054459
-0.0095429
0.0076782
0.011505
0.01023
0.0057648
0.0051269
0.0079971
0.0079971
0.020435
0.010867
0.0095917
0.0070404
0.012143
0.012143
0.0095917
0.0095917
0.0013
-0.0018891
0.0076782
0.015013
0.011186
0.0079971
0.008635
0.0067215
0.008316
0.026813
0.012143
0.0067215
0.01023
0.011824
0.012462
0.010867
0.0073593
-0.00029452
0.010548
0.010867
0.012143
0.0067215
0.0067215
0.0095917
0.01023
0.014375
0.020754
0.0131
0.0060837
0.0095917
0.011186
0.0099106
0.0095917
0.0073593
-0.0069916
0.0073593
0.013419
0.0099106
0.0070404
0.0054459
0.0064026
0.0092728
0.015013
0.010548
0.0099106
0.0073593
0.01023
0.0095917
0.0089539
0.008635
0.0013
-0.00093234
0.0073593
0.015013
0.01023
0.01023
0.0099106
0.0089539
0.012143
0.02777
0.015332
0.0092728
0.012781
0.014375
0.014056
0.012143
0.011824
0.0016189
0.0131
0.011824
0.015651
0.0095917
0.008316
0.01023
0.011505
0.017564
0.021391
0.014375
0.0067215
0.010548
0.011505
0.012462
0.010548
0.0070404
-0.0069916
0.0089539
0.0131
0.010867
0.0092728
0.0051269
0.0070404
0.0089539
0.021391
0.0099106
0.010867
0.011824
0.011824
0.012781
0.010548
0.011186
0.0028946
0.0025757
0.0092728
0.017564
0.012143
0.010867
0.011186
0.010548
0.014056
0.030002
0.01597
0.010548
0.014694
0.015332
0.014375
0.013738
0.013419
0.0022568
0.013738
0.016608
0.016927
0.012462
0.0099106
0.014375
0.014375
0.019478
0.023943
0.017246
0.010867
0.015651
0.015332
0.016608
0.016289
0.012143
-0.002208
0.012462
0.019159
0.016927
0.0131
0.0131
0.012462
0.015013
0.027451
0.016608
0.016289
0.01597
0.017564
0.019159
0.018521
0.01597
0.0092728
0.008316
0.015013
0.023624
0.017246
0.01597
0.018202
0.016608
0.01884
0.035104
0.020754
0.01597
0.017883
0.020754
0.020116
0.020435
0.016927
0.0070404
0.020116
0.019159
0.020435
0.015332
0.013738
0.017564
0.017564
0.024899
0.026494
0.020116
0.0131
0.017564
0.01884
0.017883
0.017883
0.012462
-0.0015702
0.015013
0.019159
0.015013
0.014056
0.010548
0.012143
0.013738
0.027132
0.0131
0.014056
0.011186
0.01597
0.016927
0.014375
0.012143
0.0025757
0.0044891
0.01023
0.019159
0.0131
0.011824
0.0131
0.012781
0.015013
0.03064
0.016608
0.0092728
0.012143
0.014375
0.013738
0.012462
0.0095917
-0.0012513
0.0131
0.011824
0.011505
0.0079971
0.0054459
0.008635
0.008635
0.015013
0.013738
0.011824
0.0041702
0.008316
0.0089539
0.0073593
0.008635
0.00066221
-0.012094
0.0032135
0.011186
0.0060837
0.0041702
0.0035324
0.0022568
0.0035324
0.017246
0.0070404
0.0064026
0.0054459
0.0060837
0.0070404
0.0057648
0.0060837
-0.0031647
0.0003433
0.004808
0.011505
0.0060837
0.004808
0.0076782
0.0067215
0.0089539
0.025218
0.012143
0.0057648
0.0079971
0.008635
0.01023
0.010548
0.0060837
-0.0041214
0.0095917
0.0089539
0.01023
0.004808
0.0032135
0.0079971
0.0067215
0.015332
0.013738
0.0092728
0.0038513
0.0076782
0.0073593
0.008635
0.0076782
0.0025757
-0.009224
0.0057648
0.011186
0.008635
0.0060837
0.0057648
0.0054459
0.0073593
0.022029
0.0070404
0.0057648
0.0073593
0.0095917
0.0095917
0.0079971
0.0054459
-0.0031647
0.0025757
0.004808
0.011824
0.0044891
0.0035324
0.0070404
0.0067215
0.0099106
0.02458
0.011505
0.0041702
0.0073593
0.0079971
0.01023
0.010548
0.0070404
-0.0047593
0.01023
0.011824
0.0092728
0.0054459
0.0038513
0.0057648
0.0073593
0.01597
0.012462
0.0099106
0.0041702
0.0079971
0.0079971
0.0079971
0.0067215
0.0025757
-0.0098618
0.0054459
0.011824
0.0099106
0.004808
0.0044891
0.0054459
0.0057648
0.01884
0.0076782
0.0054459
0.0060837
0.0095917
0.008316
0.0057648
0.0051269
-0.0041214
0.0032135
0.0041702
0.0089539
0.0041702
0.0032135
0.0060837
0.0051269
0.0060837
0.021391
0.010548
0.0028946
0.0073593
0.0073593
0.0051269
0.0060837
0.0054459
-0.0095429
0.0060837
0.0057648
0.0064026
0.0019378
2.4388e-05
0.0022568
0.0032135
0.011824
0.0089539
0.0051269
-0.00061343
0.0051269
0.0041702
0.0054459
0.0032135
-0.0041214
-0.014964
-0.0025269
0.0051269
0.0041702
0.0013
-0.0015702
-0.0012513
0.0003433
0.013419
0.00098112
-0.00061343
0.00066221
0.0032135
0.0022568
0.0003433
-0.00029452
-0.010181
-0.0018891
0.0003433
0.0041702
-0.00029452
-0.0028458
-0.00061343
2.4388e-05
0.0032135
0.015013
0.0032135
-0.0050782
-0.002208
2.4388e-05
2.4388e-05
0.0003433
-0.0012513
-0.015921
-0.00093234
0.0013
-0.00029452
-0.0041214
-0.0066727
-0.0012513
-0.002208
0.0095917
0.0025757
0.0016189
-0.0031647
-0.00029452
0.0016189
-0.00061343
-0.00093234
-0.0085862
-0.01624
-0.0041214
0.0032135
0.0013
-0.0018891
-0.0025269
-0.0012513
0.0003433
0.014375
0.0022568
0.0013
0.0044891
0.0054459
0.0057648
0.0035324
0.0038513
-0.0047593
0.0044891
0.0051269
0.0060837
0.0035324
0.0013
0.0038513
0.0022568
0.0076782
0.019797
0.0092728
0.00066221
0.0044891
0.0044891
0.0073593
0.0070404
0.0032135
-0.011775
0.0016189
0.0054459
0.0064026
0.0016189
-0.00061343
0.0022568
0.0025757
0.013419
0.0064026
0.0038513
0.0003433
0.0044891
0.004808
0.004808
0.0041702
-0.0034836
-0.0098618
0.0016189
0.010548
0.0028946
2.4388e-05
0.0028946
0.0016189
0.0038513
0.019478
0.0054459
0.0019378
0.0035324
0.0057648
0.0060837
0.0032135
0.0041702
-0.0066727
0.0032135
0.0044891
0.0089539
0.0016189
0.0003433
0.0041702
0.0044891
0.0089539
0.017246
0.0079971
0.0003433
0.0038513
0.0041702
0.0032135
0.0038513
0.00066221
-0.013051
0.0013
0.0044891
0.0025757
0.00066221
-0.0012513
0.0022568
0.0016189
0.012143
0.0019378
0.0019378
-0.0012513
0.0041702
0.0035324
0.0016189
0.00098112
-0.0089051
-0.015921
-0.0018891
0.0035324
-0.00029452
-0.0018891
-0.0031647
-0.0044404
-0.0012513
0.013419
-0.0015702
-0.005716
0.0016189
0.0016189
0.0003433
-0.0018891
-0.0044404
-0.012413
-0.0041214
-0.0038025
-0.0025269
-0.0044404
-0.0063538
-0.0041214
-0.0041214
0.0003433
0.008635
0.00066221
-0.0076295
-0.0031647
-0.0031647
-0.002208
-0.0028458
-0.005716
-0.019748
-0.0038025
-0.0012513
-0.0031647
-0.0066727
-0.0066727
-0.0044404
-0.005716
0.0073593
-0.0015702
-0.0018891
-0.0060349
-0.0025269
-0.0034836
-0.0044404
-0.0041214
-0.010819
-0.017197
-0.0066727
0.0016189
-0.0034836
-0.0047593
-0.0047593
-0.0069916
-0.0028458
0.013738
-0.0012513
-0.0050782
-0.0018891
2.4388e-05
2.4388e-05
-0.00061343
-0.0025269
-0.014008
-0.0015702
-0.0018891
0.0025757
-0.0038025
-0.0060349
-0.0015702
-0.002208
0.0025757
0.0099106
0.0003433
-0.0060349
-0.0012513
0.0003433
-0.00061343
-0.00061343
-0.0031647
-0.021024
-0.0044404
0.0013
2.4388e-05
-0.005716
-0.0060349
-0.0044404
-0.0041214
0.0076782
-0.0025269
-0.0025269
-0.0050782
-0.0025269
-0.00061343
-0.0034836
-0.0053971
-0.012094
-0.014645
-0.0069916
0.0013
-0.0038025
-0.005716
-0.0060349
-0.0076295
-0.0034836
0.010867
-0.00061343
-0.0050782
-0.0041214
-0.0012513
-0.00093234
-0.00061343
-0.0050782
-0.01337
-0.002208
-0.0012513
0.00098112
-0.0050782
-0.0063538
-0.0038025
-0.00061343
0.0019378
0.010548
0.00098112
-0.0069916
-0.0015702
-0.00093234
-0.00061343
-0.00093234
-0.0031647
-0.016559
-0.0031647
0.00066221
-0.00061343
-0.0053971
-0.002208
-0.0034836
-0.00061343
0.0095917
-0.00093234
2.4388e-05
-0.0034836
2.4388e-05
-0.00061343
-0.00093234
-0.0031647
-0.0089051
-0.011775
-0.0034836
0.0028946
-0.0015702
-0.0031647
-0.0031647
-0.0031647
-0.00061343
0.014375
0.00098112
-0.0041214
-0.0018891
-0.0012513
2.4388e-05
-0.00029452
-0.0038025
-0.015283
-0.0015702
-0.00061343
0.00066221
-0.0047593
-0.005716
-0.0038025
-0.0041214
0.0016189
0.0067215
-0.00029452
-0.0073105
-0.0031647
-0.002208
-0.0018891
-0.0028458
-0.0073105
-0.020705
-0.005716
-0.002208
-0.0028458
-0.0063538
-0.0076295
-0.0079484
-0.0047593
0.0060837
-0.0047593
-0.0053971
-0.0069916
-0.0031647
-0.0028458
-0.0047593
-0.0066727
-0.012732
-0.012413
-0.0073105
0.0016189
-0.0044404
-0.0047593
-0.0053971
-0.0044404
-0.00029452
0.013738
2.4388e-05
-0.0041214
-0.0012513
0.0016189
0.00098112
-0.00061343
-0.0012513
-0.011775
0.00098112
0.0013
0.0041702
-0.0034836
-0.0050782
-0.00093234
0.0013
0.0054459
0.0076782
0.0022568
-0.0053971
-0.00029452
0.0016189
2.4388e-05
-0.00029452
-0.0050782
-0.01911
-0.0047593
0.00098112
-0.00029452
-0.0034836
-0.0041214
-0.0050782
-0.0028458
0.008635
-0.0028458
-0.0018891
-0.0041214
-0.00093234
2.4388e-05
-0.0015702
-0.0041214
-0.010819
-0.0098618
-0.0044404
0.0028946
-0.00093234
-0.0041214
-0.0031647
-0.0031647
-0.0012513
0.015651
0.0028946
-0.0034836
-0.00029452
0.00098112
0.0016189
0.0003433
-0.0018891
-0.011775
0.00098112
0.0016189
0.0025757
-0.0015702
-0.0041214
-0.00029452
2.4388e-05
0.0057648
0.0079971
0.0025757
-0.0044404
0.0003433
0.0013
0.00098112
2.4388e-05
-0.0050782
-0.018472
-0.0028458
0.0038513
0.0003433
-0.0028458
-0.0050782
-0.0031647
-0.0018891
0.010867
-0.0015702
2.4388e-05
-0.0025269
-0.00061343
0.00066221
-0.00061343
-0.0018891
-0.0105
-0.0089051
-0.0038025
0.0035324
-0.00093234
-0.0031647
-0.0015702
-0.0012513
-0.00029452
0.01597
0.0025757
-0.0041214
-0.00029452
0.0016189
0.0013
0.0019378
-0.0028458
-0.013689
0.00098112
0.00066221
0.0025757
-0.0028458
-0.0044404
2.4388e-05
-0.00093234
0.0057648
0.0079971
0.0013
-0.0038025
0.0003433
-0.00029452
0.0025757
0.0016189
-0.0063538
-0.016878
-0.0028458
0.0041702
0.00066221
-0.0015702
-0.0015702
-0.0018891
-0.00029452
0.012143
0.0013
2.4388e-05
0.00098112
0.0028946
0.0019378
0.00098112
-0.00061343
-0.0089051
-0.005716
-0.00093234
0.0041702
-0.0015702
-0.002208
-0.00061343
-0.002208
-0.00029452
0.016289
0.0028946
-0.0038025
-0.00061343
-0.00093234
0.0016189
2.4388e-05
-0.0012513
-0.012094
0.00098112
0.0025757
0.0019378
-0.0028458
-0.0028458
2.4388e-05
2.4388e-05
0.0095917
0.008316
0.0032135
-0.002208
0.0035324
0.004808
0.0028946
0.0025757
-0.0044404
-0.014964
-0.00093234
0.0054459
0.00066221
-0.00061343
-0.0015702
-0.002208
0.0016189
0.013738
0.0013
0.0003433
0.0003433
0.0032135
0.0038513
0.00066221
0.0003433
-0.0082673
-0.0044404
0.00098112
0.0070404
0.0013
-0.0015702
0.0013
0.0022568
0.0019378
0.019159
0.0067215
-0.00093234
0.0022568
0.0041702
0.0035324
0.0044891
0.0028946
-0.0095429
0.0041702
0.0054459
0.0038513
0.00098112
-0.0018891
0.0028946
0.0038513
0.0095917
0.0092728
0.0051269
-0.0018891
0.004808
0.0038513
0.0032135
0.0016189
-0.0038025
-0.01337
0.0016189
0.0079971
0.0022568
0.0016189
-0.00029452
0.00066221
0.0019378
0.015651
0.0025757
0.0022568
0.0025757
0.0044891
0.0054459
0.0028946
0.0022568
-0.0069916
-0.002208
0.0019378
0.0064026
0.0016189
0.00098112
0.0016189
0.00066221
0.0035324
0.018202
0.0079971
2.4388e-05
0.0032135
0.0032135
0.0032135
0.0032135
0.00066221
-0.010181
0.0038513
0.0041702
0.0032135
-0.0015702
-0.002208
-0.00061343
2.4388e-05
0.0092728
0.0054459
0.0022568
-0.0031647
0.0019378
0.0025757
0.0016189
0.0016189
-0.005716
-0.016559
-0.0025269
0.004808
0.0016189
-0.00029452
-0.0018891
-0.0012513
0.0028946
0.014694
0.0019378
-0.00061343
0.0032135
0.0044891
0.0044891
0.0032135
2.4388e-05
-0.0089051
-0.00093234
0.0016189
0.0057648
0.0003433
-0.00093234
0.00098112
0.0016189
0.0025757
0.01597
0.0051269
-0.002208
0.0013
0.0035324
0.0019378
0.0025757
2.4388e-05
-0.013689
0.0016189
0.0038513
0.0038513
-0.0015702
-0.0012513
2.4388e-05
0.0016189
0.011186
0.0044891
0.0038513
2.4388e-05
0.0025757
0.0022568
0.0025757
-0.00061343
-0.005716
-0.014008
-0.0015702
0.0064026
0.00098112
-0.002208
-0.00061343
-0.0015702
2.4388e-05
0.015651
0.0035324
-0.00029452
0.0019378
0.0044891
0.0035324
0.0025757
0.0013
-0.0105
-0.00061343
0.0016189
0.0067215
-0.00029452
-0.0015702
0.0016189
0.00098112
0.0054459
0.016608
0.0054459
-0.0018891
0.0028946
0.0032135
0.0038513
0.0038513
0.00098112
-0.011775
0.0032135
0.0064026
0.0044891
0.0013
2.4388e-05
0.0025757
0.0041702
0.015332
0.0092728
0.0044891
0.0016189
0.0057648
0.0060837
0.0041702
0.0032135
-0.002208
-0.0105
0.0016189
0.0076782
0.0044891
0.0022568
0.0028946
-0.00093234
0.0016189
0.018202
0.0051269
0.00066221
0.0028946
0.0044891
0.0041702
0.0019378
0.00066221
-0.009224
0.0003433
0.0013
0.0051269
0.0003433
-0.0018891
0.0003433
0.0003433
0.0041702
0.015332
0.0044891
-0.0034836
0.0025757
0.0022568
0.0022568
0.00098112
-0.00061343
-0.014327
0.0019378
0.0019378
0.0016189
-0.0025269
-0.0031647
-0.00061343
0.0013
0.0089539
0.0038513
0.0013
-0.0028458
0.00066221
0.0022568
0.0003433
-0.00093234
-0.0079484
-0.01337
-0.0018891
0.0044891
0.0003433
-0.002208
-0.002208
-0.0031647
0.0016189
0.017246
0.0022568
-0.0018891
0.00066221
0.0032135
0.0028946
0.0016189
-0.00029452
-0.0105
2.4388e-05
0.0019378
0.0041702
-0.00029452
-0.00061343
0.0013
2.4388e-05
0.0051269
0.015013
0.0044891
-0.0028458
0.0016189
0.0019378
0.0025757
0.0022568
0.0013
-0.014645
0.0019378
0.0041702
0.0032135
-0.0015702
-0.0038025
0.0003433
-0.00061343
0.011186
0.0025757
2.4388e-05
-0.0018891
0.0016189
0.0025757
0.0003433
-0.00061343
-0.0085862
-0.01337
-0.0031647
0.0070404
-0.00029452
-0.002208
-0.00061343
-0.0025269
-0.00061343
0.016289
0.0025757
-0.00093234
0.0016189
0.0013
0.0044891
0.0003433
-0.0012513
-0.010181
0.0003433
0.0025757
0.0044891
-0.00093234
-0.0025269
0.0013
0.0016189
0.0051269
0.013738
0.0064026
-0.0031647
0.0028946
0.0022568
0.0022568
0.0019378
-0.00093234
-0.014964
0.0013
0.0051269
0.0016189
-0.0018891
-0.0038025
-0.0012513
-0.00061343
0.0073593
0.0013
-0.00061343
-0.0015702
0.0013
0.00098112
-0.0015702
-0.002208
-0.0105
-0.01337
-0.0034836
0.0044891
-0.0012513
-0.0031647
-0.0028458
-0.0031647
-0.0015702
0.014694
0.00098112
-0.0034836
2.4388e-05
0.0019378
0.0019378
0.0022568
-0.0018891
-0.011456
0.00098112
0.0013
0.0032135
-0.0015702
-0.0047593
-0.00061343
-0.002208
0.0051269
0.011505
0.0025757
-0.0053971
0.0003433
-0.00029452
0.00098112
2.4388e-05
-0.0038025
-0.015921
-0.0015702
0.0025757
0.0016189
-0.0041214
-0.0041214
-0.0034836
-0.0018891
0.0095917
0.0003433
-0.00061343
-0.0018891
0.00098112
-0.00029452
-0.00061343
-0.0018891
-0.0085862
-0.012094
-0.0028458
0.0028946
-0.002208
-0.0041214
-0.0028458
-0.0041214
-0.00061343
0.014694
0.0003433
-0.0044404
0.0003433
0.0013
-0.00061343
-0.00093234
-0.0028458
-0.012732
2.4388e-05
0.0013
0.0022568
-0.0025269
-0.0041214
2.4388e-05
-0.00029452
0.0051269
0.01023
0.0041702
-0.005716
0.0013
0.0016189
0.0003433
0.0003433
-0.0038025
-0.016878
0.0003433
0.0038513
0.0019378
-0.002208
-0.0038025
-0.0025269
-0.00061343
0.0089539
0.0019378
-0.00093234
-0.0018891
0.0025757
0.0013
-0.0012513
-0.0031647
-0.0089051
-0.011456
-0.0038025
0.0038513
-0.00093234
-0.0028458
-0.002208
-0.0047593
-0.00061343
0.016289
0.0013
-0.0034836
2.4388e-05
0.00066221
2.4388e-05
-0.00029452
-0.0025269
-0.012413
0.00066221
-0.00061343
0.0013
-0.0044404
-0.0047593
-0.0012513
-0.002208
0.0060837
0.008316
0.0016189
-0.0053971
2.4388e-05
0.0013
-0.00061343
-0.00061343
-0.0050782
-0.017835
-0.00093234
0.0038513
0.00098112
-0.002208
-0.002208
-0.002208
-0.00029452
0.011505
-0.00061343
-0.00093234
-0.00061343
0.0022568
0.0028946
-0.00061343
-0.00061343
-0.009224
-0.0098618
-0.0028458
0.0044891
-0.002208
-0.0034836
-0.0018891
-0.0041214
-0.0018891
0.014694
0.0019378
-0.0038025
-0.00061343
0.00098112
-0.00029452
-0.00093234
-0.0028458
-0.013689
0.0016189
0.0038513
0.0019378
-0.00029452
-0.0018891
0.00098112
0.0025757
0.008316
0.010867
0.0070404
-0.00093234
0.0041702
0.0038513
0.0041702
0.0022568
-0.0038025
-0.01624
-0.00093234
0.0051269
0.0016189
-0.00093234
-0.0028458
-0.0031647
-0.0018891
0.010867
-0.00093234
-0.00061343
-0.00061343
0.0016189
0.00098112
-0.00061343
-0.0028458
-0.012413
-0.0089051
-0.0028458
0.0022568
-0.0044404
-0.0038025
-0.002208
-0.0038025
-0.0012513
0.012462
0.0016189
-0.0063538
-0.0015702
-0.0012513
2.4388e-05
0.00098112
-0.0038025
-0.014008
-0.0015702
-0.00061343
0.0003433
-0.0047593
-0.0063538
-0.0031647
-0.002208
0.0044891
0.0038513
-0.0018891
-0.0073105
-0.0031647
-0.0034836
-0.0025269
-0.0047593
-0.010819
-0.02198
-0.0044404
0.0019378
-0.0034836
-0.0063538
-0.0069916
-0.0050782
-0.0031647
0.010548
2.4388e-05
-0.00093234
-0.0012513
0.0016189
0.0022568
0.0003433
-0.0025269
-0.012732
-0.009224
-0.0034836
-0.00093234
-0.0063538
-0.0073105
-0.0066727
-0.0095429
-0.0069916
0.0064026
-0.0069916
-0.014327
-0.010819
-0.0047593
-0.0038025
-0.005716
-0.0047593
-0.018472
-0.0031647
-0.0018891
2.4388e-05
-0.0060349
-0.0066727
-0.00061343
0.0044891
0.012143
0.011824
0.0073593
-0.0015702
0.0028946
0.0095917
0.0092728
0.0095917
0.0041702
-0.0076295
0.0079971
0.017246
0.0099106
0.0095917
0.010548
0.010548
0.010867
0.019478
0.010548
0.01023
0.0067215
0.010548
0.0095917
0.004808
0.0041702
-0.0018891
0.0003433
0.0013
0.0079971
0.00066221
0.0016189
0.0067215
0.004808
0.0073593
0.022667
0.0073593
0.00098112
0.017246
0.017246
0.01884
0.020435
0.014694
0.0067215
0.017883
0.022029
0.028726
0.016289
0.01884
0.02171
0.021072
0.026813
0.022029
0.02458
0.011505
0.0022568
-0.00029452
0.0025757
-0.0089051
-0.012413
-0.028359
-0.015283
-0.018472
-0.032186
-0.032823
-0.036331
-0.042391
-0.043985
-0.031229
-0.043347
-0.036969
-0.041753
-0.032186
-0.035056
-0.043028
-0.034737
-0.033142
-0.025488
-0.017835
-0.0028458
-0.0031647
0.0003433
0.0044891
0.013419
0.025218
0.037337
0.031278
0.028407
0.03638
0.040845
0.044672
0.045629
0.045947
0.029045
0.038931
0.038931
0.034467
0.026175
0.025218
0.02777
0.017883
0.020116
0.019478
0.012462
-0.002208
0.0022568
-0.0044404
-0.00061343
-0.00061343
-0.0079484
-0.021024
-0.015602
-0.01337
-0.0076295
-0.0066727
0.019159
0.011505
0.0054459
0.021391
0.0099106
0.0095917
0.019159
0.03351
0.03638
0.03925
0.034148
0.022667
0.026494
0.037656
0.032872
0.01884
0.026494
0.0095917
0.0095917
0.036699
0.034467
0.010867
0.0095917
0.01023
0.012143
0.0016189
-0.00093234
-0.010181
-0.024532
0.0022568
-0.0066727
-0.009224
-0.0105
-0.0082673
-0.0018891
-0.0015702
-0.0031647
-0.0050782
0.0013
-0.0015702
0.015013
0.021072
0.021072
0.028726
0.02777
0.01023
0.022029
0.03351
0.025537
0.017883
0.013419
0.017883
0.027132
0.033829
0.0054459
-0.005716
-0.012094
-0.009224
-0.0015702
-0.022618
-0.024851
-0.030272
-0.033461
-0.029634
-0.023575
-0.032823
-0.034418
-0.031548
-0.017197
-0.01337
-0.0082673
-0.013051
-0.010819
0.0089539
0.0044891
0.016608
0.016608
0.021391
-0.00061343
0.0003433
0.018521
0.023943
0.019478
0.0067215
-0.01337
-0.00061343
0.026175
0.0025757
-0.0050782
-0.019429
-0.016878
-0.023575
-0.024532
-0.018791
-0.032504
-0.035375
-0.030591
-0.029634
-0.032504
-0.032823
-0.034418
-0.038564
-0.039202
-0.018153
-0.031867
-0.044942
-0.024851
0.015013
0.017883
-0.024532
-0.032186
-0.0038025
0.020435
0.043715
0.026813
0.020754
0.01023
0.0003433
0.0013
0.020116
0.024262
0.0019378
-0.024213
-0.029953
-0.028678
-0.025488
-0.041434
-0.055147
-0.073963
-0.055466
-0.063439
-0.056742
-0.066309
-0.059612
-0.043985
-0.035375
-0.016878
-0.032823
-0.024532
-0.027083
-0.017516
-0.018791
-0.024532
-0.018153
-0.011775
-0.012413
0.011505
0.016289
0.0067215
-0.0031647
0.00066221
-0.0015702
0.0022568
0.014375
-0.0012513
-0.0098618
-0.0082673
-0.025807
-0.032186
-0.032504
-0.038564
-0.046536
-0.055147
-0.060569
-0.049726
-0.054509
-0.074282
-0.080979
-0.071411
-0.066947
-0.058336
-0.052277
-0.050682
-0.047493
-0.042391
-0.036012
-0.038564
-0.038883
-0.045261
-0.027083
-0.020067
-0.013689
-0.011775
-0.00029452
0.010548
0.0038513
0.023624
0.057747
0.052326
0.037018
0.039888
0.065082
0.085811
0.069228
0.060617
0.048499
0.056153
0.034148
0.033829
0.058704
0.02171
-0.0098618
-0.038564
-0.015602
-0.054509
-0.051958
-0.052915
-0.054509
-0.062801
-0.08353
-0.044623
-0.058336
-0.082892
-0.067903
-0.055466
-0.054828
-0.037926
-0.044304
-0.051639
-0.038883
-0.033142
-0.059612
-0.081298
-0.068222
-0.084806
-0.10617
-0.098838
-0.073644
-0.10777
-0.088314
-0.083211
-0.060569
-0.044304
-0.044304
-0.039839
-0.031229
0.0019378
0.022029
0.021072
0.031915
0.043396
0.072098
0.088681
0.080709
0.07752
0.092508
0.095697
0.090595
0.094103
0.083579
0.05679
0.06859
0.071779
0.073055
0.03638
0.030002
0.0079971
-0.009224
-0.015283
-0.023894
-0.0034836
-0.038883
-0.063439
-0.081298
-0.086081
-0.085125
-0.058017
-0.07173
-0.082573
-0.09246
-0.065033
-0.11159
-0.11861
-0.14093
-0.11096
-0.096924
-0.072687
-0.072368
-0.11287
-0.10043
-0.04558
-0.040158
-0.012413
0.0070404
-0.0085862
-0.0095429
0.012462
0.018521
0.06285
0.07752
0.054558
0.04531
0.055515
0.040207
0.019159
0.019159
0.022348
0.021072
0.0057648
0.024899
0.045947
0.039569
0.04531
0.042758
0.04818
0.040207
0.031278
0.030002
0.059342
0.073055
0.046266
0.049774
0.05392
0.03638
0.047542
0.027451
0.02458
0.024899
0.034786
0.026175
0.020754
0.016289
0.021072
0.052645
0.05105
0.027132
0.034786
0.036699
0.030002
0.03638
0.01884
0.029364
0.033829
0.03351
0.015013
0.0044891
0.023305
0.0070404
-0.0069916
-0.0047593
-0.00029452
-0.00061343
-0.010819
-0.032504
0.00098112
-0.032186
-0.043666
-0.021343
0.030002
0.011505
0.034786
0.030002
0.035104
0.026813
0.021072
0.016608
0.020435
0.014694
0.0044891
0.02458
0.017246
0.017246
-0.0041214
-0.04558
-0.062163
-0.061206
-0.064077
-0.061844
-0.058655
-0.058336
-0.041434
-0.031229
-0.073325
-0.058974
-0.052277
-0.05419
-0.049407
-0.058974
-0.075557
-0.053234
-0.045899
-0.032504
-0.022618
-0.027721
-0.062482
-0.052277
-0.043347
-0.03378
-0.038564
-0.015921
-0.026126
-0.0095429
-0.011775
-0.012732
0.016289
-0.009224
-0.011456
-0.0095429
-0.022618
-0.015602
-0.0066727
-0.029315
-0.00061343
0.037975
0.035423
-0.023894
-0.059293
0.029683
0.036061
-0.017516
0.0032135
0.027451
0.045629
0.046585
0.041164
0.042439
0.016289
0.011186
-0.0028458
0.028726
0.033829
0.021072
0.021072
0.047223
0.028726
0.0038513
0.030959
0.042121
0.024262
0.031596
0.064125
0.066677
0.088362
0.067314
0.03638
0.037018
0.058704
0.04531
0.026813
0.00066221
-0.015921
-0.032186
-0.022937
-0.0060349
-0.056742
-0.075238
-0.076195
-0.069498
-0.084168
-0.074282
-0.057061
-0.050363
-0.065671
-0.055785
-0.067903
-0.076514
-0.064395
-0.080022
-0.072368
-0.05132
-0.043985
-0.047812
-0.037926
-0.020705
-0.050044
-0.094054
-0.071093
-0.042391
-0.017197
-0.032504
-0.0069916
-0.0073105
-0.039839
-0.034099
-0.022618
-0.018472
-0.02198
-0.019429
-0.0018891
0.03638
0.014694
-0.0031647
-0.0073105
0.0025757
0.0076782
0.016608
0.030002
0.02171
0.019478
0.008635
-0.027721
-0.0105
-0.019748
-0.021024
-0.023894
-0.022937
-0.00029452
-0.0044404
0.00098112
0.008635
-0.028996
0.0003433
0.0060837
0.018521
-0.0015702
-0.0085862
0.017564
0.0092728
-0.032186
-0.025807
-0.033461
-0.064714
-0.052915
-0.047812
-0.036331
-0.046218
-0.070774
-0.063758
-0.057061
-0.056104
-0.056104
-0.088633
-0.082573
-0.0864
-0.082254
-0.021343
-0.019748
-0.046536
-0.077152
-0.078109
-0.012413
0.0028946
-0.028359
-0.017197
0.029045
0.012143
0.023624
0.025856
0.015013
0.0019378
0.0064026
0.018202
0.0041702
-0.020705
-0.0079484
-0.009224
-0.029953
-0.033142
-0.034418
-0.022937
-0.019748
-0.047493
-0.024213
-0.0060349
-0.03665
-0.027721
-0.0066727
-0.00029452
-0.0031647
0.017883
-0.00061343
-0.024213
-0.014645
-0.010819
0.0067215
0.0067215
0.04531
0.025856
0.0073593
-0.0050782
0.0038513
0.015332
-0.0012513
-0.0079484
0.00066221
-0.022299
-0.014008
-0.012413
-0.034737
-0.026126
-0.038883
-0.0085862
-0.023575
-0.015602
-0.017197
-0.017197
-0.009224
-0.027083
-0.03952
-0.025488
-0.024532
-0.053871
-0.031229
-0.039839
-0.11064
-0.10777
-0.091503
-0.071093
-0.075876
-0.094692
-0.10681
-0.084487
-0.074601
-0.070455
-0.066628
-0.068222
-0.045899
-0.026126
-0.021343
-0.027083
-0.026445
-0.050682
-0.022299
-0.00061343
-0.0073105
-0.012413
0.008316
0.010548
0.020116
0.0025757
-0.013051
0.014694
0.0022568
0.021072
0.025218
0.0044891
0.01023
0.0079971
-0.028996
-0.018153
0.035104
-0.00093234
-0.026445
-0.065033
-0.061844
-0.02198
-0.049407
-0.081935
-0.034099
-0.042072
-0.066628
-0.029315
-0.043666
-0.054509
-0.068541
-0.041434
-0.034418
-0.017516
0.008316
-0.0044404
-0.0031647
0.020435
0.026494
0.025856
-0.0034836
-0.019429
-0.02517
-0.03952
-0.021661
-0.025807
-0.031229
-0.057698
-0.02804
-0.049407
-0.015921
-0.047812
-0.044304
-0.043028
-0.0063538
-0.01337
0.013738
0.027451
0.029683
0.0095917
0.011505
0.026494
0.038294
0.010548
-0.0053971
0.0057648
-0.014008
-0.038564
-0.045261
-0.060569
-0.062163
-0.062482
-0.066947
-0.081617
-0.099157
-0.088633
-0.081617
-0.11096
-0.092141
-0.071411
-0.069817
-0.071093
-0.10107
-0.066309
-0.069498
-0.038564
0.0067215
-0.013689
-0.032186
-0.01624
-0.024213
-0.029634
-0.023256
-0.019429
-0.002208
-0.017516
-0.040158
-0.040477
-0.032186
-0.032504
-0.020705
0.0035324
-0.014327
-0.024851
-0.038883
-0.02517
-0.022299
-0.034418
-0.043028
-0.016559
-0.02198
-0.026445
-0.0063538
0.02171
0.016289
0.0073593
-0.0085862
-0.0089051
0.010548
0.017564
0.019797
0.020116
0.034467
0.037018
0.044991
0.024899
0.02777
0.021391
-0.014964
-0.045899
-0.052277
-0.059931
-0.053871
-0.036331
-0.055147
-0.082573
-0.053871
-0.055785
-0.076833
-0.076514
-0.061206
-0.061206
-0.040158
-0.061844
-0.043028
-0.038883
-0.035056
-0.038883
-0.041434
-0.023894
-0.020705
-0.00061343
-0.02198
-0.038564
-0.054828
-0.061525
-0.057698
-0.041753
-0.048131
-0.040796
-0.048769
-0.058336
-0.069817
-0.088633
-0.099157
-0.068541
-0.034737
-0.02804
-0.042391
-0.054828
-0.03952
-0.028359
-0.022618
-0.0066727
-0.011775
-0.020067
0.004808
-0.0034836
-0.031548
-0.016559
-0.011456
-0.015283
-0.025488
-0.028996
-0.027083
-0.029634
-0.044623
-0.03952
-0.028359
-0.028996
-0.042391
-0.035694
-0.027083
-0.021024
-0.010819
-0.0038025
-0.0076295
-0.0082673
0.020754
0.020116
-0.014327
-0.013051
0.026175
0.055834
0.008316
0.035423
0.00098112
-0.0069916
0.020754
0.047542
0.038294
0.064125
0.071779
-0.0044404
-0.034418
-0.0105
0.0003433
0.061893
0.073374
0.037656
0.039569
0.014056
-0.00061343
-0.029953
-0.021661
-0.0047593
-0.016878
-0.034737
-0.018153
-0.021343
-0.031229
0.0003433
-0.017197
-0.0038025
-0.0047593
-0.0025269
0.0003433
-0.022299
-0.024213
0.0054459
-0.011137
-0.046855
-0.065033
-0.059293
-0.037288
-0.062801
-0.09533
-0.1521
-0.11989
-0.11478
-0.12052
-0.1285
-0.12626
-0.12945
-0.11797
-0.11128
-0.11702
-0.10777
-0.10617
-0.087038
-0.075557
-0.054509
-0.047812
-0.072368
-0.065352
-0.050682
-0.031229
-0.020067
0.0076782
0.017564
0.017564
0.0131
0.037656
0.034467
0.037337
0.038294
0.035742
0.057109
0.063806
0.043715
0.026813
0.026494
0.016608
0.021072
-0.0079484
-0.012413
0.008635
-0.025488
-0.035375
-0.045899
-0.026126
-0.015921
-0.026126
-0.027721
-0.0050782
-0.015921
-0.012413
-0.029634
-0.012094
-0.012094
-0.0095429
0.0067215
-0.017516
-0.0038025
-0.020705
-0.0069916
-0.038883
-0.03378
-0.026445
-0.058974
-0.032504
-0.01624
-0.025807
-0.038245
-0.035375
-0.024532
-0.025488
-0.013689
0.0051269
0.011186
2.4388e-05
0.00098112
0.0028946
-0.016559
-0.018791
-0.020705
-0.018791
-0.012094
-0.0028458
-0.0098618
0.023943
0.026494
0.012781
0.016927
0.019478
0.008635
0.021072
0.0060837
-0.0050782
0.01597
0.0003433
-0.028359
-0.016559
-0.020386
-0.047174
-0.059612
-0.065352
-0.1033
-0.095011
-0.084487
-0.085443
-0.091503
-0.067266
-0.074919
-0.082254
-0.05132
-0.045899
-0.045261
-0.047493
-0.050044
-0.050363
-0.03378
-0.026764
-0.03952
-0.029315
-0.017197
0.019478
0.033191
0.0013
0.0032135
0.024899
0.030321
0.051688
0.026813
0.019159
0.032234
0.03351
0.038612
0.032872
0.033191
0.0032135
0.011505
0.0044891
-0.0063538
-0.00029452
-0.012732
-0.037607
-0.028678
-0.036331
-0.021343
-0.061844
-0.051958
-0.020705
-0.014645
-0.031867
-0.034418
-0.028678
-0.044942
-0.037607
-0.0105
0.019478
0.027451
0.019478
0.05392
0.038294
0.049774
0.040526
0.035104
0.018521
0.020754
0.021072
0.025537
0.011186
0.0051269
-0.0076295
-0.010819
-0.017516
-0.021343
-0.040796
-0.046855
-0.024532
0.0019378
0.023943
-0.0085862
-0.016559
0.0019378
-0.00093234
-0.012094
0.0013
-0.026764
-0.035375
0.0013
-0.005716
-0.01337
-0.035694
-0.03665
-0.027721
-0.04558
-0.027402
-0.028678
-0.042391
-0.039839
-0.023894
-0.016559
-0.012094
0.0025757
-0.0050782
-0.029953
-0.021661
0.0131
0.010867
0.066358
0.071141
0.057109
0.050412
0.066995
0.04531
0.055515
0.067952
0.096654
0.070185
0.041802
0.061893
0.051369
0.098249
0.10654
0.099524
0.06285
0.067633
0.067952
0.049774
0.063806
0.085811
0.037018
-0.0034836
-0.011137
0.053282
0.022348
-0.023575
-0.037288
-0.069498
-0.081617
-0.093416
-0.083211
-0.093735
-0.083849
-0.079384
-0.074601
-0.058017
-0.066628
-0.066628
-0.058655
-0.056423
-0.055466
-0.036012
-0.038245
-0.03378
-0.06025
-0.058017
-0.043347
-0.049407
-0.063758
-0.064714
-0.05419
-0.047174
-0.058974
-0.077471
-0.075557
-0.064714
-0.056742
-0.07173
-0.080341
-0.056742
-0.036969
-0.04845
-0.047174
-0.03378
-0.0089051
-0.0031647
0.0025757
0.0073593
0.0092728
0.049455
0.045629
0.047861
0.04818
0.061574
0.058066
0.061893
0.092827
0.10718
0.10112
0.087087
0.11292
0.10208
0.073374
0.095378
0.085492
0.093465
0.095378
0.06572
0.04531
0.050093
0.056153
0.041802
0.020116
0.015332
0.019797
0.043715
0.046585
0.057747
0.030002
0.01023
0.063806
0.075925
0.06859
0.050412
0.025218
0.00066221
0.019797
-0.0028458
-0.00093234
-0.0015702
-0.056423
-0.06599
-0.082892
-0.075557
-0.080341
-0.097243
-0.0982
-0.10458
-0.10171
-0.078427
-0.088952
-0.090546
-0.080979
-0.069498
-0.068541
-0.067266
-0.057379
-0.06599
-0.047812
-0.024213
0.019159
0.043396
0.0025757
0.0073593
0.0019378
0.02171
0.046904
0.047223
0.012143
0.021391
0.033191
-0.0050782
-0.014327
-0.014008
-0.026126
0.0035324
-0.011775
-0.032504
-0.0079484
0.012781
0.024262
0.02777
0.054877
0.038931
0.032234
0.031278
0.039888
0.065082
0.058704
0.050412
0.038931
0.015651
-0.0015702
2.4388e-05
-0.0069916
-0.017516
-0.032504
-0.013689
0.0041702
0.0054459
-0.015602
0.00066221
0.033829
0.05392
0.045947
0.053601
0.054877
0.042758
0.06285
0.065401
0.062212
0.025537
0.020435
0.052645
0.026494
0.026813
0.016289
0.0051269
-0.024851
-0.049726
-0.053234
-0.055147
-0.035375
-0.021661
-0.025488
0.017564
0.012143
-0.0044404
-0.015283
-0.024532
-0.018472
0.016289
0.030321
-0.00093234
-0.00061343
-0.01337
0.014694
0.01884
0.0057648
-0.0015702
-0.047174
-0.027721
-0.010819
-0.024532
-0.026126
-0.025488
-0.039839
-0.025807
-0.012094
-0.0060349
-0.0069916
-0.015283
-0.019748
-0.014008
-0.027083
-0.019429
-0.0050782
-0.027083
0.0041702
-0.0015702
0.0051269
-0.00061343
0.0003433
-0.0044404
-0.0031647
0.011505
0.0095917
0.023624
0.015651
0.01597
0.0099106
0.01023
0.028088
0.035104
0.014694
0.020435
0.059979
0.054239
0.022029
0.066677
0.045947
0.036699
0.02458
-0.0044404
-0.012413
0.026813
0.020754
-0.015283
-0.034418
-0.033142
-0.064395
-0.086081
-0.057379
-0.042391
-0.0098618
-0.02198
-0.036331
-0.033142
-0.011137
0.025218
0.018521
0.020116
0.014375
0.0089539
0.0019378
0.021391
0.042121
-0.0079484
0.025218
0.018202
-0.0063538
-0.029634
-0.028359
-0.037288
-0.019429
0.0032135
0.018521
0.044672
0.011505
0.022667
0.031596
0.032553
0.02171
0.037018
0.052645
0.059023
0.059023
0.052326
0.033829
0.039888
0.041164
-0.002208
0.01597
0.0057648
-0.032504
-0.050363
-0.029634
-0.040158
-0.058336
-0.054509
-0.070136
-0.070774
-0.081298
-0.069817
-0.064395
-0.070455
-0.06599
-0.060887
-0.025807
0.02777
0.016289
0.0051269
0.0064026
0.025218
0.044353
0.030959
0.037337
0.030002
0.036061
0.030321
0.046904
0.013419
0.013419
0.023943
0.017883
0.022029
-0.009224
-0.028359
-0.027083
0.041164
0.015651
-0.0044404
0.011505
0.014056
0.0060837
0.022986
0.023305
0.015651
0.029364
0.02458
0.010548
0.019797
0.029683
-0.019429
-0.0105
-0.0076295
-0.013689
-0.026764
-0.029634
-0.029634
-0.041115
-0.018153
0.021391
0.019797
-0.0047593
0.0025757
0.028088
0.05679
0.050731
0.055196
0.066995
0.066995
0.05105
0.034148
0.044353
0.056471
0.040526
-0.02198
-0.0038025
0.0057648
0.021391
-0.019748
-0.036012
-0.06312
-0.047812
-0.043666
-0.060887
-0.056423
-0.047493
-0.032504
-0.040158
-0.048131
-0.052596
-0.054828
-0.045899
-0.031548
-0.02804
-0.030272
-0.028678
-0.01624
-0.022937
-0.021661
0.0025757
-0.00093234
0.0076782
-0.0060349
-0.0028458
0.0131
0.02777
0.044991
0.031278
0.038294
0.058385
0.064444
0.065401
0.059023
0.062531
0.056471
0.035423
0.04818
0.050093
0.033829
0.008635
-0.0079484
-0.0069916
-0.011456
-0.0095429
-0.031867
-0.033461
-0.031229
-0.014008
-0.010181
0.0076782
0.0044891
0.0092728
0.0131
0.0070404
0.010867
0.026175
0.020116
0.015651
-0.00061343
0.0044891
-0.01911
0.0051269
0.0051269
-0.0076295
-0.016878
-0.026445
-0.036969
-0.044942
-0.03091
0.017246
0.010867
-0.021661
0.011824
0.029045
0.019159
0.0079971
0.021072
0.022348
0.035104
0.031915
0.024262
0.037975
0.023943
0.0054459
0.022986
0.011505
-0.0082673
0.028726
-0.017197
-0.041434
-0.012413
-0.030272
-0.031867
-0.032504
-0.054509
-0.047174
-0.02517
-0.0073105
-0.005716
-0.0098618
-0.010819
-0.009224
-0.018472
-0.018791
-0.00029452
-0.009224
-0.0047593
0.0044891
-0.0038025
-0.012732
-0.0041214
-0.014964
-0.012413
-0.013051
-0.010819
-0.0079484
-0.021343
-0.0095429
-0.01337
0.0070404
0.021391
0.01023
0.0025757
-0.00093234
0.0057648
0.0016189
0.0038513
-0.0018891
-0.00061343
0.014375
0.010548
0.0022568
-0.0015702
0.00066221
0.004808
-0.00061343
0.012462
0.0095917
-0.013689
-0.00061343
0.014375
0.03638
0.03638
0.02777
0.0131
0.024899
0.00066221
0.01023
0.025218
0.02777
0.02458
0.0044891
0.0032135
0.0028946
-0.026764
-0.024213
-0.015921
-0.026126
-0.030591
-0.021024
-0.028678
-0.028678
-0.015283
0.0028946
0.008316
0.025537
0.017246
0.034467
0.025218
0.026494
0.02777
0.032872
0.02458
0.017564
0.040207
0.046266
0.01023
-0.012094
0.0064026
-0.0044404
-0.0015702
-0.011775
-0.011775
-0.012732
0.0019378
0.0025757
-0.0069916
-0.014327
-0.014645
-0.011137
-0.0076295
-0.0025269
-0.0034836
-0.020705
0.02171
0.042758
0.038931
0.029045
0.030959
0.046266
0.032553
0.040207
0.04531
0.038612
0.053601
0.019159
0.013738
0.017883
0.0035324
-0.009224
-0.036012
-0.028678
-0.01624
-0.023575
-0.032186
-0.028359
-0.022299
-0.036331
-0.030272
0.00066221
-0.020386
-0.0034836
-0.00093234
-0.0041214
-0.013689
-0.0079484
0.0073593
-0.025488
-0.020067
-0.012094
-0.019748
-0.034099
-0.019429
-0.029315
-0.04558
-0.026764
-0.015921
-0.015921
-0.0089051
0.0022568
0.0019378
-0.0073105
-0.00093234
0.00098112
-0.0041214
0.035742
0.033191
0.034467
0.03638
0.017564
0.0044891
0.022029
0.016927
-0.00061343
-0.0060349
-0.022937
-0.018153
-0.028996
-0.01911
-0.021343
-0.034418
-0.041753
-0.030591
-0.013689
0.0079971
0.017883
0.028726
0.027132
0.0057648
0.025218
0.0079971
-0.018153
-0.0060349
0.010548
-0.014008
-0.0105
-0.018791
-0.037607
-0.024851
-0.042391
-0.061206
-0.074282
-0.065033
-0.064714
-0.064714
-0.04845
-0.028678
-0.042072
-0.04271
-0.035056
-0.038564
-0.035694
-0.023894
-0.049407
-0.057698
-0.035694
-0.014008
-0.018791
-0.023256
-0.0038025
-0.013051
0.020116
0.042121
0.01884
0.02458
0.014694
0.021391
0.023943
0.052007
0.052963
0.048818
0.042439
0.030002
0.044991
0.040845
0.042758
0.04531
0.055834
0.070185
0.081346
0.059023
0.028726
0.02777
0.028088
0.033191
0.064444
0.054558
0.0099106
0.0099106
-0.0053971
-0.0031647
-0.0069916
-0.010819
-0.023894
-0.031548
-0.032504
-0.038245
-0.012094
-0.024532
-0.01911
-0.028678
-0.020386
-0.0073105
0.0016189
-0.018153
-0.0095429
-0.011456
-0.023256
-0.0079484
-0.002208
-0.0060349
-0.01624
-0.00061343
0.0038513
-0.0082673
-0.02198
-0.025488
-0.024851
-0.009224
0.023943
-0.010181
-0.024213
0.01023
0.0070404
0.025218
0.01023
0.0070404
-0.00029452
-0.012413
0.020754
-0.0066727
-0.018791
-0.015921
-0.029315
-0.037607
-0.051639
-0.062801
-0.068541
-0.053234
-0.059612
-0.04845
-0.041434
-0.057379
-0.049407
-0.044942
-0.047812
-0.032504
-0.024851
-0.010819
-0.0066727
0.0003433
-0.0015702
0.01023
0.012143
-0.00061343
0.029045
0.026175
0.01884
0.013419
0.00066221
0.027132
0.037656
0.030002
0.028726
0.040207
0.044034
0.072417
0.052645
0.067314
0.10208
0.098249
0.096973
0.09793
0.054877
0.088044
0.093465
0.068909
0.059661
0.081028
0.078476
0.022986
-0.0073105
-0.018153
-0.040477
-0.055466
-0.072687
-0.044304
-0.060887
-0.062482
-0.053234
-0.061525
-0.067903
-0.062163
-0.061206
-0.06312
-0.051001
-0.041434
-0.043028
-0.050682
-0.038883
-0.031229
-0.064077
-0.058336
-0.054828
-0.065671
-0.053552
-0.046855
-0.041434
-0.02804
-0.039839
-0.043347
-0.021024
0.013738
0.023305
0.03064
0.034786
0.042439
0.052326
0.050093
0.047861
0.028407
0.019159
0.026813
0.040207
0.037975
0.03638
0.013738
-0.025488
-0.035375
-0.023894
-0.04558
-0.049088
-0.039202
-0.034418
-0.041434
-0.015921
-0.013689
-0.030591
-0.018153
-0.010819
-0.017835
-0.019429
-0.02198
-0.026126
0.0057648
0.0051269
0.0054459
0.015651
0.014375
0.0079971
-0.011456
-0.0028458
-0.0025269
0.012781
0.0089539
0.026813
0.042758
0.053282
0.051369
0.031278
0.055515
0.051688
0.057428
0.047542
0.028726
0.015651
0.027451
-0.0085862
-0.00061343
-0.0031647
-0.026764
-0.032186
-0.033142
-0.024532
-0.048769
-0.058336
-0.056742
-0.053234
-0.057698
-0.036012
-0.036012
-0.047174
-0.015602
0.00066221
0.0095917
0.0038513
0.0028946
0.0079971
0.017246
0.041164
0.04531
0.03925
0.032872
0.047223
0.054239
0.068271
0.069228
0.050412
0.04531
0.059342
0.044991
0.030959
0.011186
-0.0050782
-0.016878
-0.011137
0.00098112
0.012462
-0.034099
-0.054509
-0.051958
-0.045899
-0.021343
-0.047493
-0.066309
-0.055785
-0.023894
-0.044942
-0.021661
-0.017516
-0.037288
-0.012094
-0.0050782
-0.00093234
-0.0041214
-0.00029452
0.0032135
0.004808
0.020116
0.048499
0.042758
0.016927
0.013419
0.01597
0.023305
0.017246
0.0060837
-0.0050782
0.025218
0.0131
0.0019378
-0.0034836
-0.0044404
-0.023575
-0.009224
0.0076782
-0.0038025
-0.0047593
-0.022618
-0.017516
-0.00093234
0.0016189
0.0054459
-0.014008
-0.023256
-0.0069916
0.0013
-0.0089051
0.013738
-0.0038025
0.018521
0.016608
0.014694
-0.025488
-0.039839
-0.011137
0.012143
0.0044891
0.012781
0.0076782
-0.021661
-0.024851
-0.005716
0.0099106
-0.021024
-0.027721
-0.0018891
0.016927
0.032553
0.020754
0.012143
0.0003433
-0.0038025
-0.0082673
0.0003433
0.0032135
0.02171
-0.016559
-0.0069916
-0.016559
-0.021024
-0.027083
-0.042072
-0.032504
-0.019429
-0.014645
-0.043985
-0.042391
-0.042391
-0.031867
-0.029634
-0.025488
-0.041434
-0.038883
-0.035056
-0.019748
-0.0066727
-0.0076295
-0.0076295
0.0076782
0.02777
0.0131
0.017564
0.011824
0.049137
0.058385
0.03351
0.028726
0.029364
0.01884
0.011505
0.008316
0.011824
0.032553
0.035104
0.018202
0.0076782
-0.002208
0.0070404
0.015332
0.020435
0.011824
0.017246
0.017883
0.020754
0.019797
0.036061
0.016289
0.033191
0.057428
0.022029
0.0003433
-0.017835
0.015651
0.0070404
0.0064026
-0.012732
-0.023256
-0.040477
-0.052596
-0.057698
-0.059293
-0.051001
-0.068222
-0.0864
-0.055147
-0.035056
-0.040477
-0.022618
-0.019429
-0.019748
-0.01624
0.0089539
0.013419
0.037656
0.033191
0.022348
0.049774
0.036061
0.010548
0.012462
0.023943
0.024899
0.035742
0.012781
-0.011775
-0.017516
-0.01911
0.0060837
0.011824
-0.0044404
-0.032186
-0.039202
-0.040158
-0.038564
-0.043347
-0.035375
-0.049726
-0.038564
-0.051001
-0.052277
-0.031548
-0.034418
-0.017835
-0.026126
0.004808
0.0041702
-0.0095429
-0.012413
-0.00061343
0.014375
0.010548
0.03925
0.039888
0.041164
0.06572
0.061893
0.058066
0.05105
0.038612
0.049137
0.03064
0.046585
0.046904
0.039888
2.4388e-05
0.008316
0.0016189
-0.021343
-0.037926
-0.055466
-0.041434
-0.03091
-0.028359
-0.043985
-0.023894
-0.026126
-0.018472
0.0013
0.020435
-0.011775
0.0028946
0.029364
-0.0031647
-0.010819
0.03064
0.068909
0.027132
-0.020386
-0.023256
-0.0044404
-0.020705
-0.028678
-0.030272
-0.031229
-0.0073105
-0.026126
-0.037288
-0.050682
-0.046855
-0.041753
-0.030591
-0.035694
-0.045899
-0.043985
-0.037607
-0.017197
-0.021024
-0.011456
-0.01624
2.4388e-05
-0.00029452
0.0131
0.017564
0.022986
0.012781
0.0076782
0.01023
0.016608
0.015013
0.011824
0.013419
0.0060837
-0.0018891
-0.01624
-0.0060349
-0.020705
-0.016878
-0.015921
-0.015283
-0.038883
-0.05419
-0.046218
-0.044304
-0.039202
-0.037607
-0.036969
-0.050682
-0.033142
-0.01337
-0.0050782
-0.0047593
-0.010181
0.017883
0.031596
0.042439
0.037018
0.050412
0.066677
0.059342
0.05392
0.049137
0.046585
0.048818
0.061893
0.036699
0.050412
0.05105
0.048818
0.035104
0.03064
0.032872
0.042439
0.015013
0.010867
0.0019378
-0.028359
-0.010819
0.042121
-0.012413
-0.015921
-0.0095429
-0.043985
-0.047812
-0.06312
-0.051001
-0.042391
-0.044623
-0.042072
-0.044623
-0.040158
-0.03665
-0.044942
-0.033461
-0.028996
-0.023256
-0.034737
-0.055466
-0.025807
-0.0095429
-0.0098618
-0.0041214
-0.0034836
-0.017197
0.0131
0.016289
0.0028946
0.0038513
0.0032135
-0.0041214
0.0028946
0.019478
0.050093
0.044672
0.015332
0.0079971
0.008635
0.015651
0.014694
0.018202
0.03925
0.029683
0.044672
0.02171
0.020435
0.0073593
0.0131
0.0038513
-0.0015702
-0.012094
0.0038513
0.031915
-0.012413
-0.019429
-0.029953
-0.018791
-0.028678
-0.032823
-0.012732
-0.0012513
-0.018791
-0.035056
-0.037288
-0.03952
-0.051639
-0.026126
-0.021024
-0.032504
-0.023575
-0.022618
-0.050044
-0.023575
-0.027721
-0.030591
-0.029634
-0.022299
-0.035694
-0.034099
-0.037288
-0.04558
-0.04271
-0.050363
-0.033142
-0.039839
-0.044942
-0.02804
-0.0053971
-0.015283
-0.014327
-0.0038025
0.00098112
-0.00029452
0.012143
0.0057648
0.023624
0.020754
0.0057648
0.0060837
-0.0060349
-0.0034836
-0.0076295
0.0051269
-0.0060349
-0.009224
-0.010819
0.014694
0.0054459
0.0057648
0.019797
0.031915
0.066358
0.088362
0.068909
0.057747
0.077201
0.094741
0.084217
0.06572
0.075925
0.084536
0.060298
0.057109
0.09793
0.073693
0.060617
0.078476
0.048818
0.027451
0.019797
0.011505
0.020435
0.044991
2.4388e-05
-0.032186
-0.0044404
0.00098112
-0.0085862
-0.029953
-0.033461
-0.03091
-0.023575
-0.017835
-0.034418
-0.032823
-0.052596
-0.043985
-0.038564
-0.031548
-0.035694
-0.050044
-0.065033
-0.051958
-0.053871
-0.057061
-0.068541
-0.074601
-0.05419
-0.056742
-0.051001
-0.047174
-0.047174
-0.056423
-0.037288
-0.015921
-0.021343
-0.027721
-0.042391
-0.059612
-0.020067
-0.0098618
-0.0041214
-0.014645
-0.018791
-0.035694
-0.038883
-0.014964
-0.020067
-0.028996
-0.026126
-0.016559
-0.0031647
0.030002
0.018521
-0.0047593
0.0092728
0.022986
0.047542
0.049455
0.061574
0.043715
0.042439
0.031915
0.064444
0.074968
0.064444
0.042121
0.035104
0.027451
0.018202
0.016289
0.01023
0.024899
0.020116
0.04531
0.059661
0.061574
0.048818
0.027132
0.033829
0.034467
0.039888
0.02777
0.046266
0.029045
0.021391
0.021391
0.008635
-0.026764
-0.016878
-0.017835
-0.028996
-0.053234
-0.05132
-0.028996
-0.035375
-0.02804
-0.042072
-0.034737
-0.030591
-0.022299
-0.032504
-0.012094
-0.0098618
-0.028678
-0.027083
-0.033142
-0.025488
-0.04845
-0.023256
-0.022618
-0.032504
-0.028996
-0.012094
-0.032186
-0.061206
-0.053552
-0.036331
-0.044623
-0.039202
-0.047174
-0.052915
-0.02804
-0.028359
-0.024213
-0.018153
-0.017835
-0.02517
-0.048131
-0.02198
-0.015602
-0.024851
-0.03378
-0.02517
-0.018791
-0.0038025
-0.0076295
0.0038513
-0.015283
-0.002208
0.0070404
0.030959
0.049137
0.030002
0.043715
0.049137
0.06859
0.046904
0.044991
0.043077
0.06572
0.054558
0.047542
0.035104
0.034786
0.027132
0.034786
0.050412
0.057428
0.033191
0.041483
0.036699
0.026813
0.052963
0.051688
0.041483
0.019159
0.01023
0.013419
-0.014964
-0.015921
-0.040477
-0.017516
-0.042072
-0.060569
-0.076833
-0.068222
-0.024532
-0.041434
-0.06886
-0.087676
-0.062482
-0.063758
-0.053552
-0.035375
-0.036331
-0.030272
-0.038564
-0.042072
-0.014645
0.00066221
-0.002208
0.014375
0.019478
0.004808
0.012462
0.050731
0.021072
0.0051269
0.015332
0.030321
0.026494
0.025218
-0.010819
-0.028359
-0.021024
-0.025488
-0.01624
-0.023894
-0.052915
-0.040158
-0.019748
-0.00029452
0.0035324
-0.026764
-0.036331
-0.027721
-0.0105
-0.011775
0.020435
0.0025757
-0.017835
-0.0028458
-0.012413
0.010548
-0.012094
-0.0105
-0.020386
-0.011456
0.0044891
-0.01624
-0.024851
-0.018153
0.017883
0.011186
0.019159
0.037337
0.037018
0.010548
0.032234
0.046266
0.059342
0.060617
0.055196
0.055515
0.039569
0.05392
0.040526
0.029683
0.021391
0.013419
-0.014645
-0.0098618
-0.0082673
-0.025807
-0.028996
-0.036969
-0.01911
-0.011456
-0.019429
-0.028678
-0.024213
-0.010819
-0.0015702
-0.037926
-0.036969
-0.038564
-0.047812
-0.038564
-0.038883
-0.049407
-0.060887
-0.040477
-0.051001
-0.071093
-0.078109
-0.051958
-0.040477
-0.048769
-0.030591
-0.0060349
-0.0098618
-0.0018891
0.0060837
0.024899
0.01884
0.0028946
-0.01911
0.0073593
0.045629
0.022986
0.023305
0.012143
0.020116
0.0070404
0.0095917
0.020435
0.018202
0.0095917
0.020754
0.028726
0.037975
0.034148
0.035423
0.032234
0.035742
0.028407
0.034148
0.025537
0.02458
0.022667
-0.0034836
0.0035324
0.022348
-0.013689
-0.023894
-0.020386
-0.042391
-0.053234
-0.043347
-0.048769
-0.057379
-0.038564
-0.040477
-0.044942
-0.016878
-0.020705
-0.032823
-0.027721
-0.0047593
-0.0060349
-0.010819
-0.014008
-0.0018891
0.0019378
-0.010181
0.010867
-0.00093234
0.037337
0.04818
0.034467
0.011824
0.013419
0.020435
0.024262
0.015013
0.026494
0.022986
0.021391
0.017883
0.0095917
0.0003433
-0.021024
-0.032504
-0.03665
-0.0044404
-0.019429
-0.029634
-0.0085862
-0.0041214
-0.019429
-0.028996
0.016289
0.018202
0.0131
0.015332
0.020435
0.016608
0.015013
0.013419
0.01884
0.017246
0.028407
0.013419
0.013738
-0.027402
-0.020067
0.0016189
-0.019748
-0.01911
-0.03091
-0.034099
-0.046536
-0.046218
-0.048131
-0.061206
-0.054509
-0.061525
-0.050044
-0.040477
-0.032823
-0.021661
-0.020067
-0.018153
-0.011137
-0.0018891
0.022029
0.0095917
0.0131
0.026494
0.029045
0.015332
0.0003433
0.024899
0.025856
0.030321
0.027132
0.032234
0.034467
0.026494
0.025218
0.029045
0.026175
0.040526
0.0095917
-0.0085862
0.0019378
-0.00093234
0.012781
0.01884
0.0044891
-0.019429
-0.024213
-0.028359
-0.012413
-0.0098618
-0.00093234
0.0025757
-0.0034836
0.0057648
-0.00061343
-0.0066727
-0.0066727
0.012462
-0.0018891
-0.0044404
0.008316
-0.012094
-0.028678
-0.01911
-0.0044404
-0.013689
-0.018472
-0.021024
-0.016878
-0.022299
-0.024851
-0.023256
-0.024532
-0.018472
-0.0098618
-0.014327
-0.024532
-0.027402
-0.015921
0.008635
0.020435
0.017564
0.026494
0.019159
0.033829
0.03064
0.03351
0.051369
0.036061
-0.00093234
0.010867
0.0131
0.013738
0.0028946
-0.0041214
-0.024213
-0.014327
-0.022618
-0.029315
-0.026445
-0.018153
-0.015283
-0.014008
0.01023
-0.011456
-0.029634
-0.023575
-0.0098618
0.0003433
0.0035324
-0.0095429
-0.034099
-0.017197
-0.0076295
0.0076782
-0.0034836
-0.019748
-0.0105
-0.022937
-0.014008
0.014375
0.02458
0.035104
0.015013
-0.0028458
-0.005716
0.010867
0.0067215
-0.025488
-0.028359
0.0057648
0.027132
-0.027402
-0.035694
-0.032504
-0.019429
-0.02804
-0.020386
-0.012094
2.4388e-05
-0.005716
-0.019748
-0.0050782
0.0054459
0.034467
0.020435
0.029045
0.034467
0.04531
0.036699
0.049774
0.040526
0.058066
0.036699
0.0076782
0.030959
0.019797
0.0099106
0.0016189
-0.0041214
-0.0085862
0.008635
-0.0073105
-0.0082673
-0.00029452
-0.017835
-0.020386
-0.023894
-0.013689
0.010548
0.0067215
0.010867
-0.0028458
0.0022568
-0.0025269
-0.015602
-0.024532
-0.035056
-0.042391
-0.04845
-0.034418
-0.034099
-0.039839
-0.051639
-0.052915
-0.066628
-0.073963
-0.065352
-0.078746
-0.084168
-0.072368
-0.061844
-0.057698
-0.049726
-0.06025
-0.06312
-0.031548
-0.013689
-0.0041214
0.016289
0.056471
0.086449
0.075287
0.081346
0.078157
0.069547
0.061255
0.099524
0.096016
0.10782
0.085811
0.027451
0.023943
0.020754
0.027132
0.0067215
-0.015283
-0.031548
-0.060887
-0.049088
-0.035694
-0.036331
-0.034418
-0.059293
-0.053871
-0.052596
-0.043347
-0.036012
-0.03665
-0.027083
-0.010819
-0.0069916
0.0044891
0.015651
0.027132
0.024899
0.060936
0.059979
0.050093
0.030959
0.037337
0.050412
0.044353
0.042121
0.031278
0.00066221
0.0054459
-0.002208
-0.018153
-0.02804
-0.034418
-0.051639
-0.050363
-0.032823
-0.037288
-0.049407
-0.058336
-0.063439
-0.044304
-0.046855
-0.042391
-0.048769
-0.040158
-0.032504
-0.017516
-0.013689
-0.0060349
-0.0025269
0.0016189
0.0013
0.038612
0.020435
0.030959
0.011186
0.018202
0.031596
0.018202
0.017564
0.0028946
0.015013
-0.00061343
-0.020705
-0.023575
-0.034418
-0.035375
-0.019748
-0.033142
-0.047174
-0.044304
-0.046536
-0.047812
-0.023894
-0.0012513
-0.024213
-0.027402
-0.024213
0.0003433
0.008316
0.011186
0.0028946
0.028407
0.037337
0.032872
0.047223
0.037018
0.02777
0.008635
0.014694
0.012781
0.025856
0.012143
-0.011456
-0.016878
0.010548
0.0025757
-0.0012513
-0.00061343
0.0067215
0.0067215
0.0099106
0.023943
0.020435
0.021072
0.017246
0.026494
0.03064
0.027132
0.037975
0.017564
0.030321
0.01023
0.0028946
0.022986
0.010548
0.01597
0.0073593
-0.00061343
-0.018791
-0.036331
-0.040477
-0.02517
-0.021024
-0.01337
-0.014327
-0.035056
-0.061844
-0.049407
-0.028359
-0.012413
-0.027721
-0.020067
-0.026764
-0.0038025
-0.0060349
-0.010181
-0.005716
-0.017516
-0.0082673
0.0025757
-0.01911
-0.030591
-0.03665
-0.03378
-0.042391
-0.046855
-0.043028
-0.047174
-0.060569
-0.054828
-0.052915
-0.050363
-0.051639
-0.046855
-0.025488
-0.026764
-0.031548
-0.012732
0.010867
0.011505
0.024262
0.025856
0.041802
0.054877
0.054239
0.050093
0.035742
0.054558
0.070822
0.057428
0.023943
0.0064026
0.0013
0.01884
0.0131
0.004808
-0.033142
-0.014645
-0.023575
-0.023894
-0.018472
-0.011775
-0.035056
-0.027721
-0.0069916
-0.0050782
-0.0031647
0.022348
0.010867
0.010548
0.01597
0.008635
-0.0053971
-0.012094
0.00066221
0.018521
0.016608
-0.0012513
2.4388e-05
-0.015283
-0.026126
-0.0069916
-0.019429
-0.02517
0.016289
0.0067215
-0.016878
-0.024532
-0.012413
-0.02804
-0.012094
-0.0089051
-0.0015702
0.0038513
-0.015602
-0.014327
-0.025488
-0.010181
-0.017197
-0.04558
-0.056742
-0.038245
-0.03378
-0.038883
-0.038564
-0.039202
-0.038883
-0.024213
-0.011456
-0.0069916
-0.014964
-0.03091
-0.014008
0.027132
0.035104
0.0025757
0.0131
0.032872
0.035104
0.020754
-0.00061343
0.00066221
0.008316
0.016927
0.0095917
0.0089539
0.014375
0.017246
0.031278
0.032234
0.03064
0.05679
0.03638
0.032872
0.045629
0.029045
0.017883
0.025218
0.04818
0.037337
0.035742
0.03351
0.061255
0.032234
0.008316
0.014694
0.011505
0.018202
0.025537
0.02458
0.032872
0.0079971
0.029683
0.013738
0.0041702
-0.0044404
-0.017835
-0.012413
-0.014327
-0.02804
-0.052915
-0.053552
-0.051639
-0.062482
-0.063758
-0.07779
-0.095011
-0.094373
-0.087995
-0.088952
-0.078746
-0.094054
-0.093097
-0.077152
-0.067585
-0.047493
-0.05419
-0.026126
-0.0085862
-0.0031647
0.035423
0.055834
0.035104
0.05105
0.060617
0.067952
0.068909
0.073055
0.08326
0.056471
0.047223
0.046904
0.052963
0.026175
-0.0031647
0.016608
0.035742
0.041483
0.023624
0.0079971
-0.0015702
-0.0044404
-0.0053971
0.0051269
0.0079971
0.017564
0.0025757
0.016608
0.036061
0.0099106
-0.0034836
-0.0085862
-0.017835
-0.037926
-0.01624
-0.0085862
-0.02198
-0.050363
-0.052915
-0.029634
-0.03952
-0.056423
-0.056742
-0.035375
-0.06886
-0.048131
-0.016878
-0.010819
-0.012094
-0.009224
0.0099106
0.031915
0.019478
0.0032135
0.016927
0.022667
-0.0038025
-0.0028458
0.0003433
-0.019748
-0.002208
2.4388e-05
-0.0066727
-0.031229
-0.049407
-0.045899
-0.027083
-0.01624
-0.020067
-0.029315
0.0016189
0.0041702
-0.0018891
-0.0012513
0.0064026
0.0070404
-0.014645
0.011505
0.0089539
0.0067215
-0.0105
-0.019748
-0.026126
-0.014964
0.016927
-0.012732
-0.021024
-0.023256
-0.021661
-0.0079484
-0.019429
-0.014327
-0.01624
0.0099106
-0.019748
0.0076782
0.023305
0.027451
0.02458
0.042439
0.047542
0.06572
0.037656
0.025856
0.03925
0.046266
0.036699
0.03064
0.017246
-0.034418
-0.019748
0.0044891
-0.024213
-0.049407
-0.041434
-0.052596
-0.067585
-0.053552
-0.066947
-0.065033
-0.03378
-0.015921
-0.012094
0.019478
0.02171
0.0073593
0.004808
0.028088
0.022986
0.030002
0.037656
0.040207
0.026175
0.008635
0.016927
0.0092728
-0.0038025
-0.029634
-0.029953
-0.033142
-0.019429
-0.021024
-0.020067
-0.023256
-0.015921
-0.01911
-0.022299
-0.029315
-0.022937
-0.0041214
0.0067215
0.011505
0.0016189
-0.016559
0.0131
0.014694
0.029364
0.029045
0.011824
-0.00061343
0.015332
0.0013
0.014375
0.017564
-0.009224
0.0054459
0.008635
-0.012094
0.0060837
0.0131
-0.037288
-0.017197
-0.012094
-0.021024
-0.0031647
-0.017197
-0.019429
-0.023256
0.0022568
0.017246
0.017246
0.024262
0.029045
0.017246
0.026494
0.020754
0.037975
0.047223
0.016289
0.012781
0.020435
0.015651
-0.0095429
0.023305
0.026813
0.010867
-0.0082673
-0.0082673
-0.018472
-0.033461
-0.043985
-0.017835
-0.035056
-0.053234
-0.043028
-0.04845
-0.048131
-0.032823
-0.021343
-0.03378
-0.016559
-0.0041214
-0.010181
-0.0095429
0.018202
0.058066
0.055196
0.052007
0.032234
0.023624
0.027451
0.057428
0.035742
0.053601
0.004808
-0.021343
-0.043347
-0.02804
-0.026764
-0.037607
-0.057698
-0.067903
-0.095649
-0.079703
-0.06025
-0.046855
-0.028359
-0.039839
-0.044304
-0.026445
-0.0082673
-0.00061343
0.0025757
0.019159
0.026813
0.036699
0.030002
0.057109
0.053601
0.018202
0.030002
0.030321
0.0070404
-0.010181
-0.00061343
0.0003433
-0.0041214
-0.014964
-0.012413
-0.038883
0.0019378
0.0131
0.014694
0.013738
0.016289
0.030959
0.02777
0.038612
0.014375
0.020754
0.052007
0.034467
0.031278
0.031596
0.0099106
-0.020386
-0.050682
-0.030272
-0.019429
-0.02517
-0.03091
-0.050682
-0.069498
-0.049407
-0.036969
-0.053871
-0.033461
-0.032823
-0.038564
-0.030272
-0.028996
-0.030591
-0.043666
-0.028359
-0.014964
-0.028996
-0.04845
-0.037607
-0.024851
-0.028359
-0.029315
-0.028996
-0.043985
-0.066309
-0.066628
-0.056104
-0.055147
-0.036012
-0.029953
-0.046855
-0.033461
-0.04271
-0.020067
-0.01624
-0.019429
-0.0034836
-0.011775
0.0019378
0.0060837
-0.00093234
0.004808
0.022029
0.032872
0.040526
0.07146
0.06285
0.062531
0.053601
0.06572
0.070822
0.11547
0.098249
0.10335
0.15246
0.13365
0.090914
0.099205
0.09793
0.067314
0.023943
0.034148
0.022029
-0.012413
-0.005716
-0.031548
-0.047493
-0.04845
-0.066628
-0.073963
-0.092778
-0.090227
-0.067266
-0.066628
-0.071093
-0.069817
-0.072368
-0.056423
-0.065033
-0.057061
-0.060569
-0.034418
-0.032186
-0.036012
-0.053871
-0.06025
-0.043028
-0.039202
-0.03091
-0.021024
-0.023256
-0.037288
-0.047493
-0.014645
-0.0082673
0.0022568
-0.0015702
-0.03091
-0.0044404
0.0041702
0.0013
2.4388e-05
0.016289
0.020435
0.01023
0.037337
0.008635
-0.012094
-0.033142
-0.021024
-0.01337
-0.022937
-0.005716
-0.026126
-0.0089051
0.0038513
0.044034
0.035104
0.028726
0.040526
0.059023
0.074012
0.044991
0.028407
0.052645
0.063487
0.064125
0.053601
0.063487
0.043715
0.012781
0.013419
0.013419
-0.0060349
-0.0038025
0.0131
-0.0031647
-0.0041214
-0.00029452
-0.0085862
0.011824
0.014694
0.035423
0.004808
-0.015921
-0.014964
-0.014327
-0.0089051
0.0092728
-0.0038025
-0.009224
-0.010181
-0.014645
-0.021024
-0.013689
0.0089539
-0.018153
-0.025488
-0.024851
-0.03665
-0.026764
-0.03378
-0.028996
-0.04271
-0.052915
-0.042391
-0.04271
-0.054828
-0.08066
-0.056423
-0.023575
-0.028996
-0.019748
-0.045899
-0.031548
-0.011137
0.029364
0.017246
0.0032135
0.015013
0.017246
0.050093
0.042121
0.072417
0.080709
0.057109
0.052963
0.059661
0.040207
0.020116
-0.00061343
0.031278
0.011186
-0.020386
-0.028996
-0.020386
-0.046855
-0.057698
-0.056423
-0.045261
-0.035694
-0.040477
-0.04558
-0.044623
-0.036012
-0.016878
-0.02198
-0.020705
-0.01337
0.0051269
0.0035324
0.015013
-0.0028458
-0.023575
-0.0076295
-0.009224
-0.0073105
-0.024213
-0.013689
-0.0018891
0.0054459
0.0051269
0.0092728
0.0044891
-0.005716
-0.010819
-0.0069916
0.024899
0.043715
0.045947
0.044991
0.058704
0.05105
0.032553
0.028407
0.044353
0.028407
0.019159
0.026175
0.0035324
-0.0060349
-0.027721
-0.032186
-0.041753
-0.0098618
0.01023
-0.018791
-0.035375
-0.029953
-0.015283
-0.018791
-0.014327
-0.0044404
0.0003433
0.0089539
0.023943
0.015013
0.014694
-0.0034836
-0.023575
-0.035694
-0.043985
-0.03378
-0.051001
-0.033142
-0.03952
-0.037288
-0.030272
-0.04271
-0.041434
-0.029634
-0.0066727
-0.0073105
0.018202
-0.0066727
-0.023894
-0.0050782
0.015013
0.0099106
0.0079971
0.0028946
0.017246
0.0099106
0.0044891
0.0044891
0.020754
0.0131
0.0022568
0.019159
-0.0079484
0.0044891
0.012781
0.019478
0.049455
0.032872
0.023305
0.0070404
0.020116
0.046585
0.046904
0.044991
0.02171
0.025218
-0.0076295
-0.005716
0.015013
0.01023
-0.018153
-0.027083
-0.060569
-0.059612
-0.05132
-0.054828
-0.079065
-0.065671
-0.059612
-0.058336
-0.060887
-0.058336
-0.04845
-0.047812
-0.039202
-0.028678
-0.035694
-0.027083
-0.038245
-0.027083
-0.029953
-0.058655
-0.040796
-0.059293
-0.040158
-0.034737
-0.034099
-0.027083
-0.0076295
0.0054459
0.00098112
0.011824
0.017246
0.015651
0.032234
0.038612
0.065082
0.049137
0.051369
0.033829
0.029364
0.05105
0.060617
0.042758
0.015651
0.010548
0.017883
0.0092728
0.020116
0.031596
0.0035324
0.029364
0.028088
0.022348
-0.00029452
0.016927
0.0099106
0.015332
0.015332
0.0022568
-0.002208
0.015651
0.042439
0.0064026
-0.021343
-0.013051
-0.01624
-0.02804
0.0016189
-0.0034836
-0.02804
-0.029953
-0.052277
-0.04845
-0.026445
-0.03952
-0.036969
-0.014327
-0.035694
-0.038564
-0.036012
-0.031867
-0.031229
-0.022618
-0.012732
-0.014964
-0.0082673
-0.015283
-0.013051
-0.010819
-0.027083
-0.01911
-0.00061343
-0.015283
0.0032135
-0.0031647
-0.0041214
-0.0073105
0.014056
-0.021343
-0.027402
-0.024532
-0.035375
2.4388e-05
0.011505
0.018202
-0.0085862
0.010548
0.022986
0.029364
0.02458
0.026494
0.047542
0.045947
0.053282
0.052326
0.056153
0.060617
0.041802
0.032872
0.0079971
0.015013
-0.005716
-0.020386
-0.013689
-0.00061343
-0.031229
-0.02517
-0.0063538
-0.010819
-0.045261
-0.018791
-0.0066727
-0.021024
-0.025488
0.041802
0.06285
0.029045
0.020116
0.0089539
0.0060837
0.0003433
0.020754
0.012143
0.0051269
0.012462
0.0025757
-0.014645
-0.011775
-0.044304
-0.064077
-0.073963
-0.054509
-0.056742
-0.064714
-0.039839
-0.043028
-0.03091
-0.034418
-0.031867
-0.035056
-0.021343
-0.016878
-0.0079484
0.015013
0.021072
-0.0038025
0.016289
0.013419
-0.014964
-0.016878
-0.010819
-0.0063538
-0.015283
-0.01911
-0.031229
-0.011775
-0.037607
-0.040796
-0.01624
0.0022568
0.016608
-0.0073105
-0.013689
0.00066221
0.026813
0.025218
0.016608
0.034467
0.029364
0.034467
0.034148
0.086768
0.066995
0.064444
0.069547
0.039888
0.035423
0.052326
0.020116
0.012462
0.0064026
0.027132
0.010548
-0.0044404
-0.00093234
-0.038245
-0.042391
-0.040158
-0.027083
-0.032504
-0.037288
-0.051001
-0.044942
-0.033142
-0.020067
-0.020705
-0.028359
-0.021661
-0.028359
-0.022937
-0.021343
-0.030272
-0.037607
0.012462
0.017564
0.0028946
0.010548
0.0099106
-0.0079484
0.0076782
0.027132
0.017246
-0.0018891
0.0060837
0.015651
0.019478
0.0028946
-0.0012513
-0.024851
-0.023575
-0.01911
-0.009224
-0.012413
-0.0076295
0.0051269
-0.0041214
0.0064026
0.026494
0.027451
0.018202
0.017246
0.034467
0.054558
0.039888
0.031915
0.014056
0.038612
0.051688
0.02458
-0.011775
0.010548
0.01023
-0.0015702
0.02777
0.03638
0.027132
0.0038513
-0.0089051
-0.013051
-0.010181
0.013419
2.4388e-05
0.0079971
0.023305
-0.0044404
-0.012413
-0.0063538
-0.032186
-0.040477
-0.035056
-0.035694
-0.040158
-0.056423
-0.066309
-0.073644
-0.073644
-0.090227
-0.087357
-0.079703
-0.056423
-0.045899
-0.047174
-0.046855
-0.022937
-0.023894
0.008635
0.017564
0.032234
0.03925
0.059342
0.061255
0.065082
0.096016
0.089638
0.066358
0.050093
0.075606
0.077201
0.037656
0.011505
0.0131
0.016608
-0.0015702
-0.014008
-0.025807
-0.034737
-0.068222
-0.06599
-0.070136
-0.070774
-0.068222
-0.082254
-0.080979
-0.055785
-0.041434
-0.014327
-0.0028458
0.0131
0.017564
0.028407
0.043396
0.017883
0.0044891
0.0076782
0.0013
0.047223
0.035742
0.019478
-0.0018891
-0.018791
-0.033142
-0.037288
-0.032186
-0.040158
-0.041434
-0.038564
-0.026445
-0.015921
-0.021024
-0.02804
-0.019748
-0.013051
0.0131
0.019159
0.0057648
0.0067215
0.015332
0.018521
0.0095917
0.013738
0.023624
0.026175
0.02777
0.025537
0.016289
0.0013
-0.0079484
-0.002208
-0.018791
0.014694
-0.016878
-0.012413
-0.020705
-0.033142
0.025856
0.02458
0.011505
-0.00093234
0.0092728
0.014694
-0.0015702
0.0089539
-0.014327
0.0079971
0.033829
0.037656
0.041483
0.042439
0.0079971
-0.0012513
-0.0041214
-0.0085862
0.016608
0.038612
0.030959
-0.014645
-0.012094
0.010548
0.025537
0.0019378
-0.022299
-0.036012
-0.04558
-0.050044
-0.032504
-0.039202
-0.034418
-0.03091
-0.034418
-0.034737
-0.009224
-0.0038025
-0.0028458
-0.0038025
-0.0069916
0.0067215
0.0003433
0.0057648
0.0095917
0.010867
0.0032135
-0.01624
-0.018153
-0.010819
-0.0047593
-0.014645
-0.031229
-0.027721
-0.033461
-0.030591
-0.030591
-0.045899
-0.032504
-0.033142
-0.028996
-0.030272
-0.029953
-0.045261
-0.037607
-0.023894
-0.019748
-0.023894
-0.019748
-0.01911
-0.01337
-0.029953
-0.0050782
-0.009224
-0.0028458
-0.00029452
-0.0034836
-0.012094
-0.005716
-0.0044404
-0.016878
-0.032823
-0.0098618
-0.0012513
-0.00061343
-0.011775
-0.0073105
0.012143
0.0038513
0.041483
0.067633
0.049137
0.046266
0.050731
0.026175
0.020754
0.057109
0.051688
0.033191
0.030321
0.054239
0.07433
0.07146
0.055196
0.043396
0.038931
0.05392
0.03351
0.029364
0.043077
0.043715
0.027132
0.010867
-0.0050782
-0.015921
-0.0079484
-0.026764
-0.045899
-0.06025
-0.070774
-0.087676
-0.091503
-0.073325
-0.060569
-0.073325
-0.086719
-0.087038
-0.074282
-0.044623
-0.034737
-0.035375
-0.051958
-0.023256
-0.027083
-0.018153
0.013419
0.0079971
0.0019378
0.0025757
0.013738
-0.002208
0.025856
0.019797
0.0054459
0.0064026
0.0076782
0.0003433
0.0003433
-0.00061343
-0.0012513
-0.005716
-0.020067
0.0025757
0.013738
0.010867
0.016927
0.038294
0.019797
-0.0038025
0.01023
0.022348
-0.0079484
0.0070404
0.033191
-0.010181
0.014056
0.026813
0.03064
0.010548
-0.0015702
0.0038513
-0.0018891
0.0044891
0.022348
0.030002
0.015332
0.0060837
-0.0066727
-0.016559
-0.01337
-0.026445
-0.056742
-0.034418
-0.019748
-0.035694
-0.037288
-0.044942
-0.051958
-0.032504
-0.020705
-0.022937
-0.01624
-0.023575
-0.022299
-0.01911
-0.0073105
0.0073593
0.011186
-0.0041214
0.0131
0.042121
0.0095917
0.023624
0.040845
0.037656
0.038612
0.047223
0.029683
0.0099106
0.01023
-0.0041214
0.010867
0.0016189
-0.02198
-0.026445
-0.021024
-0.031548
-0.033461
-0.052277
-0.050363
-0.03665
-0.03378
-0.032823
-0.0063538
-0.016559
-0.0050782
0.0067215
0.012462
0.015013
0.010867
0.013738
-0.01337
0.042439
0.038294
0.022348
0.011824
0.043396
0.038612
0.0028946
0.022986
0.028407
0.014694
-0.015921
-0.002208
0.015332
-0.027083
-0.01337
-0.029634
-0.053552
-0.033142
-0.037926
-0.043347
-0.049407
-0.057698
-0.047493
-0.041115
-0.00093234
-0.028678
-0.029953
-0.011775
0.008635
0.013738
-0.002208
0.004808
0.017883
0.033829
0.023305
0.034467
0.016289
0.032234
0.044991
0.039888
0.04818
0.049137
0.034786
0.036699
-0.0095429
0.03064
0.020116
0.0025757
-0.0063538
-0.023256
-0.0076295
0.0003433
-0.032504
-0.056742
-0.040796
-0.056423
-0.054828
-0.039202
-0.056423
-0.052915
-0.057698
-0.05132
-0.046218
-0.049088
-0.041753
-0.050363
-0.042072
-0.022937
-0.01911
-0.021661
-0.005716
0.017246
0.031915
0.026175
0.035742
0.039569
0.034786
0.035423
0.051369
0.065082
0.081665
0.084536
0.03925
0.024262
0.01884
0.042121
0.020435
-0.0012513
-0.020386
-0.029953
-0.02517
-0.028359
-0.044623
-0.049407
-0.059293
-0.055466
-0.070455
-0.062482
-0.052277
-0.061525
-0.051001
-0.038883
-0.035375
-0.027402
-0.017835
-0.0060349
0.0095917
0.03064
0.0079971
-0.00029452
0.030321
0.054558
0.061255
0.034148
0.03638
-0.0095429
0.02171
0.034467
0.053601
0.035742
0.02458
0.027132
0.0032135
-0.022299
0.012143
0.0051269
-0.016559
-0.021343
-0.034099
-0.038883
-0.02804
-0.045899
-0.045261
-0.026764
-0.032823
-0.032186
-0.036331
-0.052277
-0.038883
-0.024851
-0.014964
-0.005716
0.0051269
-0.00029452
-0.0034836
-0.009224
0.008316
0.016608
0.0095917
0.0057648
0.01597
0.027451
-0.00029452
0.023943
0.019159
0.011824
0.017564
0.023624
0.012462
0.022029
0.039569
0.030959
0.01597
0.0032135
0.0092728
0.0057648
0.0003433
0.0099106
0.016927
-0.031548
-0.0041214
0.043077
0.0131
-0.033142
-0.009224
-0.011456
-0.029634
-0.013689
-0.034099
-0.029634
-0.024532
-0.033461
-0.054509
-0.043347
-0.036969
-0.024851
-0.051639
-0.053234
-0.043666
-0.040477
0.0003433
-0.012413
-0.01337
-0.0098618
-0.00061343
0.0099106
0.013738
0.014694
0.024899
0.041483
0.064763
0.037656
0.031278
0.020754
0.043715
0.045629
0.035104
0.052007
0.038294
0.030002
0.022348
0.025537
0.034148
0.023624
2.4388e-05
-0.01337
0.0016189
-0.016559
-0.0069916
-0.01337
-0.019748
-0.022299
-0.017197
-0.034737
-0.021661
-0.044304
-0.044304
-0.035375
-0.038245
-0.028678
-0.037288
-0.047493
-0.052915
-0.011456
-0.0015702
-0.0025269
-0.024213
-0.026445
-0.014645
0.0019378
0.015651
0.03638
0.026175
-0.014964
-0.0089051
-0.0105
-0.0053971
-0.0066727
-0.015602
-0.031548
-0.012094
-0.0069916
-0.028996
-0.038564
-0.0044404
0.0016189
-0.023894
0.00098112
-0.026126
-0.012732
-0.0038025
0.011824
0.014694
0.0013
0.0025757
-0.013689
0.010548
0.033829
0.048499
0.064444
0.041164
0.038612
0.06572
0.08039
0.076563
0.042121
0.038612
0.057109
0.037018
0.048818
0.03925
0.004808
-0.032823
-0.023256
-0.03091
-0.045899
-0.071093
-0.076195
-0.072687
-0.076514
-0.075876
-0.071411
-0.073006
-0.086719
-0.08066
-0.069498
-0.04558
-0.025488
-0.053552
-0.056104
-0.021343
-0.023894
-0.021661
-0.0073105
-0.0063538
-0.016878
-0.0098618
-0.0095429
-0.019748
0.0022568
0.022029
0.042439
0.01023
-0.0012513
-0.0018891
-0.012094
0.0028946
0.028407
0.033191
0.022348
0.026813
0.035104
0.032872
0.015013
0.042758
0.026175
0.011505
0.016289
0.01597
0.010867
0.011505
0.008316
-0.011775
0.016608
0.010548
0.03351
0.060617
0.012462
0.017246
0.025856
0.017883
0.0131
0.010867
0.0079971
0.0051269
-0.0015702
-0.027721
-0.043347
-0.026126
-0.032504
-0.044623
-0.035375
-0.024851
-0.052915
-0.049088
-0.014964
-0.014008
0.0019378
-0.025488
-0.036969
-0.012094
-0.0105
0.016608
0.026494
0.0028946
-0.018791
-0.018153
0.0028946
0.010548
-0.0012513
-0.002208
0.0025757
0.018521
0.0076782
0.028726
0.011505
0.013419
0.044991
0.022986
0.0131
0.037018
0.038612
0.028726
0.063169
0.037018
0.03638
0.028726
0.030002
0.032234
0.034786
0.073374
0.036061
-0.0031647
-0.012094
-0.00061343
-0.017835
-0.019429
-0.04271
-0.034099
-0.063758
-0.070774
-0.066309
-0.079065
-0.071093
-0.066947
-0.08066
-0.077471
-0.056423
-0.07173
-0.074601
-0.052277
-0.032823
-0.028996
-0.034418
-0.026445
-0.014645
-0.005716
0.011186
0.0067215
0.015332
0.044991
0.035104
0.060936
0.043396
0.044353
0.023943
0.02458
0.022986
0.0022568
-0.0041214
0.015332
0.014056
-0.014964
0.0044891
0.00098112
-0.024213
-0.039839
-0.04558
-0.023894
0.004808
0.015013
-0.0038025
-0.0018891
-0.002208
-0.0018891
-0.0031647
-0.012094
0.016289
0.014056
-0.017516
2.4388e-05
0.0131
0.0064026
2.4388e-05
-0.024851
-0.016878
-0.039202
-0.011137
-0.022299
-0.0095429
-0.020067
-0.022618
-0.028996
-0.033142
-0.02517
-0.043028
-0.046536
-0.049407
-0.0085862
-0.0105
-0.017835
-0.002208
0.015013
0.028407
0.057109
0.052007
0.040845
0.016927
0.032234
0.032234
0.019797
0.037337
0.039569
0.045947
0.016289
0.042439
0.038612
-0.005716
-0.018791
-0.014327
0.013738
-0.022937
-0.036331
-0.015921
-0.018472
-0.0095429
-0.0028458
-0.0098618
-0.019748
-0.053871
-0.031229
-0.017516
-0.04271
-0.028678
0.0032135
-0.0098618
-0.023894
-0.013689
-0.0047593
-0.0053971
-0.01911
-0.014327
-0.0038025
0.0041702
0.0028946
-0.002208
0.0028946
0.021072
0.022029
0.0038513
-0.0095429
-0.0076295
-0.0047593
0.0079971
0.020754
0.014056
0.0070404
-0.011456
-0.021661
-0.023575
-0.018153
0.00066221
-0.0089051
-0.002208
-0.005716
0.028407
0.035742
0.017564
0.015013
0.038294
0.025856
0.044353
0.041483
0.035742
0.027451
0.0022568
-0.002208
0.025856
0.014056
-0.019429
-0.015283
-0.012732
-0.041115
-0.047812
-0.047174
-0.054509
-0.045899
-0.028996
-0.051958
-0.028678
-0.038883
-0.021343
-0.028996
-0.032186
-0.022937
-0.020067
-0.009224
0.0060837
0.018521
0.0013
-0.024213
-0.013689
-0.0015702
0.0067215
0.037018
0.025537
0.011186
0.029683
0.014694
0.015651
0.0060837
0.0067215
-0.0038025
0.008635
-0.00093234
0.022029
0.019797
-0.0085862
-0.0085862
-0.0060349
-0.0085862
0.0089539
-0.0044404
-0.009224
0.004808
-0.0015702
-0.005716
-0.014964
-0.032186
-0.0044404
0.02171
0.00066221
0.022029
0.0038513
-0.026445
-0.0066727
0.0051269
0.008635
-0.020705
-0.028359
-0.015283
-0.014008
-0.015283
-0.037288
-0.020386
-0.022299
-0.027721
-0.024213
0.0070404
0.0032135
-0.01337
-0.016878
-0.014964
-0.0079484
0.01597
0.02777
0.035742
0.064125
0.059979
0.064444
0.043715
0.012462
-0.013689
