-0.00029452
-0.0012513
-0.002208
-0.0047593
-0.014008
-0.00061343
0.0016189
0.00098112
-0.0041214
-0.0044404
-0.0018891
-0.0012513
0.01023
0.0057648
-0.00061343
-0.002208
0.0013
0.0016189
2.4388e-05
-0.002208
-0.0098618
-0.013689
-0.0015702
0.0057648
-0.0015702
-0.0028458
-0.0018891
-0.0031647
-0.0015702
0.011186
-0.00093234
-0.0025269
-0.0012513
0.0003433
0.0016189
-0.00093234
-0.0031647
-0.011456
-0.0053971
0.0003433
0.0032135
-0.0028458
-0.0044404
0.0003433
-0.00029452
0.0057648
0.014694
0.0028946
-0.0034836
0.0016189
0.0025757
0.0025757
0.0019378
2.4388e-05
-0.012413
0.0019378
0.0051269
0.0028946
-0.0015702
-0.0031647
0.0016189
-0.00029452
0.010867
0.0067215
0.0013
-0.0018891
0.00098112
0.00066221
0.00066221
-0.00061343
-0.0085862
-0.015283
-0.0025269
0.0032135
-0.0015702
-0.0041214
-0.0031647
-0.0028458
-0.0012513
0.0079971
-0.002208
-0.0041214
-0.0025269
2.4388e-05
-0.00029452
-0.0050782
-0.0047593
-0.013689
-0.0085862
-0.0025269
0.0013
-0.0044404
-0.0047593
-0.0031647
-0.0041214
0.0016189
0.011505
0.00066221
-0.005716
-0.0018891
-0.0015702
-0.0012513
-0.002208
-0.0041214
-0.01337
0.0003433
0.00098112
0.0003433
-0.0044404
-0.0050782
-0.0012513
-0.00061343
0.0079971
0.0067215
-0.00029452
-0.0044404
0.00066221
0.0013
-0.00061343
-0.00061343
-0.0085862
-0.014964
-0.00061343
0.0028946
2.4388e-05
-0.0034836
-0.0031647
-0.0018891
-0.0018891
0.011505
-0.00061343
-0.0034836
-0.0015702
0.00098112
0.00066221
-0.00029452
-0.0031647
-0.012094
-0.0085862
-0.002208
0.0016189
-0.0031647
-0.0038025
-0.0015702
-0.0041214
0.0019378
0.012781
0.0013
-0.005716
0.0013
0.00098112
0.00098112
-0.00029452
-0.002208
-0.013051
0.0025757
0.0022568
0.0028946
-0.00061343
-0.0018891
0.0019378
0.00066221
0.010548
0.011505
0.0044891
-0.00029452
0.0041702
0.0025757
0.0032135
0.0013
-0.0050782
-0.01337
0.0019378
0.0041702
0.00098112
-0.0025269
-0.002208
-0.00093234
-0.0015702
0.011824
-0.00093234
-0.0031647
-0.0028458
2.4388e-05
-0.00029452
-0.0028458
-0.0031647
-0.012413
-0.0105
-0.0031647
0.0025757
-0.0028458
-0.0041214
-0.0031647
-0.0044404
0.0013
0.012143
-0.0015702
-0.0066727
-0.0012513
2.4388e-05
-0.0018891
-0.002208
-0.0034836
-0.014008
-0.00061343
-0.00029452
0.0003433
-0.0041214
-0.0050782
-0.0018891
-0.0025269
0.0060837
0.01023
0.0003433
-0.0047593
0.0003433
2.4388e-05
-0.00061343
-0.0015702
-0.0085862
-0.014645
0.00066221
0.0044891
-0.0018891
-0.0050782
-0.0041214
-0.0015702
-0.0012513
0.01023
0.00098112
-0.0031647
-0.0031647
0.00098112
0.00066221
-0.00061343
-0.0034836
-0.011456
-0.011137
-0.0025269
0.0028946
-0.0012513
-0.0031647
-0.0031647
-0.002208
-0.00029452
0.012143
-0.0012513
-0.0044404
0.0003433
2.4388e-05
2.4388e-05
-0.002208
-0.0034836
-0.014645
-0.0015702
0.00098112
0.0025757
-0.0034836
-0.0044404
-0.0015702
-0.00061343
0.0067215
0.012781
0.0022568
-0.0047593
0.00066221
0.0003433
0.00098112
0.0003433
-0.0053971
-0.012094
0.0025757
0.0044891
2.4388e-05
-0.0015702
-0.0018891
-0.00093234
2.4388e-05
0.012781
0.0025757
-0.00093234
-0.0018891
0.0028946
0.0022568
0.0013
2.4388e-05
-0.0095429
-0.012094
-0.00029452
0.0057648
0.00066221
-0.0012513
-0.00061343
-0.00029452
0.0022568
0.013738
0.00098112
-0.0015702
0.0022568
0.0019378
0.0028946
0.00066221
2.4388e-05
-0.0105
0.00098112
0.0032135
0.0044891
-0.0015702
-0.0012513
0.0003433
-0.00061343
0.0073593
0.01597
0.0044891
-0.0031647
0.0016189
0.0016189
0.0028946
0.00066221
-0.0044404
-0.013051
0.0013
0.0035324
-0.00029452
-0.0031647
-0.002208
-0.0018891
-0.00061343
0.0089539
0.0019378
-0.0015702
-0.0028458
-0.00061343
-0.00029452
-0.00093234
-0.0028458
-0.011456
-0.015602
-0.0028458
0.0035324
-0.0018891
-0.0044404
-0.0031647
-0.0047593
-0.0012513
0.010867
-0.00029452
-0.0038025
-0.00093234
0.0003433
0.0003433
-0.00061343
-0.0034836
-0.013051
-0.0034836
-0.00093234
0.0028946
-0.0041214
-0.0034836
-0.0015702
-0.0034836
0.0051269
0.013419
0.0019378
-0.0047593
-0.00061343
-0.00029452
-0.00029452
0.0003433
-0.0034836
-0.013689
0.00098112
0.0022568
-0.00029452
-0.0034836
-0.0041214
-0.002208
-0.0015702
0.0076782
0.0032135
-0.00061343
-0.0031647
-0.00029452
0.0003433
-0.0012513
-0.0025269
-0.0098618
-0.015283
-0.0028458
0.0025757
-0.0018891
-0.0038025
-0.0028458
-0.0044404
-0.002208
0.0099106
-0.002208
-0.0034836
-0.00093234
2.4388e-05
0.0003433
-0.0018891
-0.0028458
-0.012094
-0.005716
-0.00093234
0.0025757
-0.0031647
-0.0025269
-0.0018891
-0.0018891
0.0032135
0.012462
0.0019378
-0.0044404
-0.0018891
0.0003433
2.4388e-05
-0.00029452
-0.0025269
-0.014645
0.0019378
0.0003433
-0.00061343
-0.0053971
-0.0050782
-0.0018891
-0.0018891
0.0064026
0.0028946
-0.0018891
-0.0050782
-0.002208
-0.0025269
-0.0028458
-0.0034836
-0.011775
-0.017197
-0.0041214
0.0025757
-0.002208
-0.0041214
-0.0038025
-0.0047593
-0.0018891
0.008316
-0.0028458
-0.0047593
-0.0028458
-0.0015702
-0.0012513
-0.0038025
-0.005716
-0.014645
-0.0089051
-0.0031647
0.00098112
-0.0041214
-0.005716
-0.0031647
-0.0050782
0.0013
0.0099106
-0.0015702
-0.0069916
-0.0028458
-0.00061343
-0.0015702
-0.002208
-0.0050782
-0.014645
2.4388e-05
0.00098112
-0.00061343
-0.0047593
-0.0060349
-0.0012513
-0.0012513
0.0076782
0.0060837
-0.0025269
-0.0050782
-0.00029452
2.4388e-05
-0.0031647
-0.0018891
-0.0105
-0.017516
-0.0031647
0.0013
-0.0018891
-0.0060349
-0.0053971
-0.0041214
-0.0034836
0.0092728
-0.0038025
-0.0047593
-0.0044404
-0.0025269
-0.00061343
-0.0031647
-0.0047593
-0.014327
-0.0105
-0.0041214
0.0016189
-0.0031647
-0.0047593
-0.0034836
-0.0034836
0.00066221
0.011505
-0.0015702
-0.0047593
-0.0012513
-0.0012513
-0.00093234
-0.0028458
-0.0044404
-0.014964
2.4388e-05
0.0003433
-0.00029452
-0.0047593
-0.0053971
-0.002208
-0.0025269
0.0079971
0.008316
0.00098112
-0.0044404
-0.0012513
2.4388e-05
-0.00061343
-0.00093234
-0.0089051
-0.015921
-0.0012513
0.0041702
-0.00093234
-0.0041214
-0.0031647
-0.0041214
-0.0034836
0.010548
-0.00093234
-0.0018891
-0.0018891
0.0003433
2.4388e-05
-0.0012513
-0.0034836
-0.011775
-0.009224
-0.0015702
0.0038513
-0.00029452
-0.0028458
-0.00093234
-0.0025269
0.00066221
0.013738
0.0003433
-0.0031647
0.00066221
0.00066221
0.0003433
-0.00093234
-0.0012513
-0.013689
2.4388e-05
0.0016189
0.0019378
-0.0025269
-0.005716
-0.0025269
-0.0031647
0.0064026
0.008635
0.0003433
-0.0050782
-0.00093234
-0.0012513
-0.0028458
-0.0031647
-0.0066727
-0.015921
-0.0012513
0.00066221
-0.0031647
-0.0050782
-0.0031647
-0.0031647
-0.0018891
0.010867
-0.00061343
-0.002208
-0.0034836
-0.00061343
0.0016189
-0.0015702
-0.0028458
-0.011137
-0.012094
-0.0031647
0.0016189
-0.0031647
-0.0044404
-0.0034836
-0.0047593
0.0003433
0.012143
-0.0012513
-0.0060349
-0.00093234
-0.002208
-0.00029452
-0.0025269
-0.0034836
-0.013689
-0.0012513
0.00098112
0.0016189
-0.0034836
-0.0050782
-0.0028458
-0.00093234
0.0070404
0.010867
0.0016189
-0.0050782
-0.0015702
-0.00029452
-0.00061343
2.4388e-05
-0.0063538
-0.015602
0.00098112
0.0044891
-0.00061343
-0.0041214
-0.0044404
-0.002208
-0.0012513
0.01023
0.0019378
-0.00061343
-0.0025269
0.00098112
2.4388e-05
-0.002208
-0.002208
-0.0098618
-0.014645
-0.0031647
0.0025757
-0.0025269
-0.0038025
-0.002208
-0.0038025
-0.00061343
0.010867
-0.00029452
-0.0044404
-0.00029452
0.0003433
0.00066221
0.00066221
-0.0015702
-0.012413
-0.0012513
0.00066221
0.0038513
-0.002208
-0.0025269
0.0003433
2.4388e-05
0.0064026
0.013419
0.0041702
-0.0044404
0.00098112
2.4388e-05
0.0003433
0.00066221
-0.0044404
-0.013051
0.0019378
0.0028946
-0.00029452
-0.0031647
-0.0047593
-0.0018891
-0.0018891
0.01023
0.0022568
-0.0018891
-0.0038025
-0.00093234
2.4388e-05
-0.0012513
-0.0034836
-0.010181
-0.014645
-0.0031647
0.0032135
-0.0012513
-0.0015702
-0.0015702
-0.0028458
-0.00061343
0.01023
0.0003433
-0.0031647
-0.00061343
-0.00061343
0.0003433
-0.0015702
-0.0044404
-0.01337
-0.0038025
2.4388e-05
0.0025757
-0.0044404
-0.0053971
-0.0012513
-0.00061343
0.004808
0.014056
0.0032135
-0.0041214
2.4388e-05
0.0016189
0.00098112
0.0003433
-0.0018891
-0.012094
0.0019378
0.0019378
0.00098112
-0.0025269
-0.002208
0.0003433
-0.00029452
0.0089539
0.0032135
2.4388e-05
-0.002208
0.0013
0.0013
-0.00029452
-0.0015702
-0.009224
-0.014964
-0.002208
0.0041702
-0.00061343
-0.0018891
-0.0012513
-0.0028458
2.4388e-05
0.011186
-0.00093234
-0.0031647
-0.00029452
-0.00061343
2.4388e-05
-0.0012513
-0.0031647
-0.011775
-0.0050782
-0.0018891
0.0022568
-0.0028458
-0.0031647
-0.0015702
-0.0012513
0.004808
0.014694
0.0013
-0.0060349
0.0016189
2.4388e-05
0.00066221
0.0003433
-0.00061343
-0.012094
0.0028946
0.0041702
0.0025757
-0.00061343
-0.002208
0.00098112
0.0003433
0.010867
0.0076782
0.00066221
-0.0012513
0.0028946
-0.00029452
2.4388e-05
-0.00061343
-0.0063538
-0.014327
-0.00093234
0.0051269
2.4388e-05
-0.0012513
-0.00061343
0.00098112
0.00098112
0.013419
0.00066221
2.4388e-05
0.0019378
0.0032135
0.0051269
0.0028946
0.00098112
-0.0098618
-0.0034836
0.0016189
0.0064026
0.0019378
2.4388e-05
0.0025757
0.00098112
0.0057648
0.017246
0.0054459
-0.0018891
0.0022568
0.0022568
0.0025757
0.0016189
-0.002208
-0.012732
0.0032135
0.0044891
0.0019378
-0.0038025
-0.0044404
-0.00061343
-0.00093234
0.0073593
0.008316
0.0016189
-0.0034836
0.0003433
-0.0012513
-0.00061343
-0.00061343
-0.0073105
-0.016878
-0.0012513
0.0028946
-0.002208
-0.0034836
-0.0041214
-0.0031647
-0.0012513
0.01023
-0.0028458
-0.0028458
-0.0028458
0.00066221
-0.00093234
-0.00061343
-0.0025269
-0.013051
-0.0095429
-0.0025269
0.0025757
-0.0018891
-0.0041214
-0.0015702
-0.002208
0.00098112
0.013738
0.0019378
-0.0041214
-0.00093234
0.0003433
0.0019378
0.0003433
-0.0015702
-0.014008
0.0003433
0.0019378
0.0013
-0.0028458
-0.0041214
-0.00093234
-0.0018891
0.0079971
0.0095917
2.4388e-05
-0.0041214
-0.0012513
-0.00029452
-0.0012513
-0.0012513
-0.0082673
-0.014645
-0.0015702
0.0019378
-0.002208
-0.0034836
-0.0034836
-0.0015702
-0.002208
0.010867
-0.00093234
-0.0025269
-0.0031647
0.00066221
0.00066221
-0.0031647
-0.0018891
-0.011456
-0.013051
-0.0031647
0.0038513
-0.0012513
-0.0034836
-0.002208
-0.0034836
0.00098112
0.013738
0.00098112
-0.0034836
0.0013
0.00066221
0.0016189
-0.00061343
-0.0012513
-0.011775
0.0013
0.00098112
0.0022568
-0.0028458
-0.0041214
0.0003433
0.00066221
0.0079971
0.012781
0.0028946
-0.0038025
0.0013
0.0019378
0.00098112
0.00066221
-0.0044404
-0.012094
0.00098112
0.0038513
2.4388e-05
-0.0034836
-0.0041214
-0.0015702
-0.00061343
0.011824
0.0013
-0.00061343
-0.0018891
0.00066221
0.0022568
-0.0012513
-0.0018891
-0.0095429
-0.012413
-0.00093234
0.004808
-0.002208
-0.0025269
-0.0015702
-0.0031647
0.0003433
0.0131
-0.00093234
-0.0031647
2.4388e-05
0.00098112
0.00098112
-0.00029452
-0.0028458
-0.012094
-0.0018891
0.0003433
0.0022568
-0.0038025
-0.0044404
-0.0028458
-0.0012513
0.0044891
0.011505
0.0016189
-0.0050782
-0.00061343
2.4388e-05
2.4388e-05
-0.00061343
-0.0044404
-0.014964
-0.00029452
0.0025757
-0.00093234
-0.0041214
-0.0047593
-0.0028458
-0.0028458
0.0076782
-0.00061343
-0.0028458
-0.0044404
-0.00061343
-0.0018891
-0.0031647
-0.0047593
-0.012732
-0.017516
-0.0060349
2.4388e-05
-0.0031647
-0.005716
-0.005716
-0.0066727
-0.002208
0.0099106
-0.0038025
-0.005716
-0.0018891
-0.0018891
-0.002208
-0.0041214
-0.0025269
-0.013689
-0.0041214
-0.0015702
0.00098112
-0.0044404
-0.005716
-0.0031647
-0.0034836
0.0054459
0.014375
0.0022568
-0.0053971
-0.00093234
2.4388e-05
-0.00061343
0.00066221
-0.0031647
-0.013051
0.0022568
0.0022568
0.0016189
-0.0034836
-0.0038025
2.4388e-05
-0.0025269
0.010867
0.0041702
-0.00093234
-0.0034836
0.00066221
0.0013
-0.0012513
-0.0015702
-0.0098618
-0.015283
-0.0025269
0.0035324
-0.00061343
-0.0038025
-0.0018891
-0.0041214
-0.002208
0.011186
-0.0015702
-0.0038025
-0.0015702
-0.00029452
-0.00061343
-0.0038025
-0.0038025
-0.013051
-0.0069916
-0.0012513
0.0013
-0.0034836
-0.0053971
-0.0034836
-0.0053971
0.0032135
0.012781
0.00098112
-0.0069916
-0.0012513
-0.00061343
-0.00061343
0.00066221
-0.0031647
-0.014008
0.00098112
0.0016189
2.4388e-05
-0.0044404
-0.0044404
-0.0015702
-0.0012513
0.0076782
0.0041702
-0.0012513
-0.0044404
-0.00061343
-0.0025269
-0.0041214
-0.002208
-0.010819
-0.018472
-0.0044404
0.0028946
-0.0018891
-0.005716
-0.0053971
-0.005716
-0.0025269
0.0092728
-0.002208
-0.0047593
-0.0038025
-0.00029452
-0.0018891
-0.00093234
-0.002208
-0.012094
-0.0079484
-0.00093234
0.00098112
-0.0041214
-0.0044404
-0.00061343
-0.0028458
0.0016189
0.013419
0.00066221
-0.0066727
-0.0012513
-0.00029452
-0.00093234
-0.0015702
-0.0031647
-0.014645
0.00066221
0.00098112
2.4388e-05
-0.0038025
-0.0044404
-0.0028458
-0.0034836
0.008316
0.0051269
-0.00029452
-0.0066727
-0.0018891
-0.0015702
-0.0041214
-0.0034836
-0.010819
-0.019429
-0.0031647
0.0025757
-0.0031647
-0.005716
-0.0041214
-0.0041214
-0.0028458
0.010867
-0.00061343
-0.002208
-0.0018891
0.0019378
0.0013
2.4388e-05
-0.0015702
-0.0098618
-0.0076295
-0.0025269
0.0070404
0.0019378
-0.0015702
2.4388e-05
-0.00029452
0.0038513
0.01597
0.0032135
-0.0012513
0.0016189
0.0038513
0.0032135
0.0028946
0.0019378
-0.0089051
0.0038513
0.0032135
-0.00093234
-0.0041214
-0.0012513
0.0019378
0.0003433
0.0079971
0.0070404
-0.00093234
-0.0063538
-0.0031647
-0.0015702
-0.0028458
-0.0015702
-0.0085862
-0.017516
-0.0047593
0.0019378
-0.0034836
-0.0050782
-0.005716
-0.0038025
-0.0034836
0.0092728
-0.0028458
-0.0047593
-0.0063538
-0.00093234
-0.0025269
-0.0028458
-0.0038025
-0.012413
-0.011775
-0.0044404
0.0022568
-0.0031647
-0.0034836
-0.0018891
-0.0028458
0.0003433
0.013738
0.0022568
-0.0041214
-0.00029452
0.0019378
0.0016189
-0.00061343
-0.0015702
-0.012413
0.0022568
0.0019378
0.0022568
-0.0038025
-0.0034836
-0.00061343
-0.00093234
0.0070404
0.010548
2.4388e-05
-0.0053971
-0.00029452
-0.00029452
-0.0018891
-0.0012513
-0.0066727
-0.015283
2.4388e-05
0.0028946
-0.00093234
-0.0028458
-0.0034836
-0.0018891
-0.00093234
0.012781
0.00066221
-0.00061343
-0.0012513
0.0016189
0.00066221
-0.00093234
-0.0028458
-0.0095429
-0.011137
-0.0028458
0.0041702
-0.0038025
-0.0050782
-0.0028458
-0.0047593
-0.00061343
0.012143
-0.002208
-0.0060349
-0.002208
-0.00093234
-0.00061343
-0.0018891
-0.0034836
-0.014008
-0.0034836
-0.0012513
-0.00029452
-0.0047593
-0.0047593
-0.0050782
-0.0031647
0.0032135
0.0089539
2.4388e-05
-0.0060349
-0.00093234
-0.00093234
-0.00061343
-0.0012513
-0.0050782
-0.014645
2.4388e-05
0.0035324
0.00066221
-0.0012513
-0.0034836
-0.00093234
0.0013
0.0099106
0.0022568
-0.00029452
-0.0015702
0.0003433
0.0016189
-0.00061343
-0.00029452
-0.0095429
-0.013689
-0.0028458
0.0038513
-0.00093234
-0.0012513
-0.00061343
-0.0038025
-0.00061343
0.011824
0.00098112
-0.0038025
-0.0031647
-0.0018891
-0.0015702
-0.0038025
-0.0025269
-0.012094
-0.0034836
-0.0012513
0.0003433
-0.0044404
-0.0047593
-0.00093234
-0.002208
0.0041702
0.013419
0.0032135
-0.0031647
0.0013
-0.00061343
-0.0015702
-0.0012513
-0.0031647
-0.012732
2.4388e-05
0.0019378
2.4388e-05
-0.0038025
-0.0050782
-0.002208
-0.0038025
0.0060837
0.0003433
-0.0031647
-0.0076295
-0.0015702
-0.0015702
-0.005716
-0.0050782
-0.013689
-0.019748
-0.0076295
-0.0012513
-0.005716
-0.0098618
-0.0082673
-0.010819
-0.0073105
0.0041702
-0.0073105
-0.0095429
-0.0069916
-0.009224
-0.0079484
-0.0066727
-0.011137
-0.021024
-0.012094
-0.0085862
-0.0050782
-0.0089051
-0.0089051
-0.005716
-0.0047593
-0.00029452
0.011186
-0.0025269
-0.0079484
-0.0012513
-0.0012513
0.00066221
-0.0012513
-0.0050782
-0.015283
2.4388e-05
-0.00061343
-0.0044404
-0.0073105
-0.0047593
-0.0034836
-0.0066727
0.0044891
0.0003433
-0.0044404
-0.0063538
0.0003433
0.00066221
-0.0028458
-0.0034836
-0.009224
-0.014008
2.4388e-05
0.0041702
-0.00061343
2.4388e-05
0.00066221
-0.00093234
0.0003433
0.012462
0.0019378
-0.0034836
2.4388e-05
0.0022568
0.0019378
-0.0015702
-0.0018891
-0.012732
-0.0060349
-0.0012513
2.4388e-05
-0.0047593
-0.0076295
-0.0069916
-0.0073105
-0.0060349
0.0044891
-0.0076295
-0.014008
-0.011137
-0.011775
-0.010181
-0.0066727
-0.010819
-0.022618
-0.0060349
-0.0076295
-0.0082673
-0.011775
-0.011137
-0.0041214
-0.0031647
0.0038513
0.0013
-0.0028458
-0.0050782
-0.002208
-0.002208
-0.0012513
0.0025757
-0.0050782
-0.012732
0.0019378
0.008635
0.0070404
0.0070404
0.0079971
0.0076782
0.0044891
0.017564
0.0044891
0.004808
0.0028946
0.0016189
0.0044891
0.0016189
-0.0044404
-0.017835
-0.0085862
2.4388e-05
-0.00061343
-0.012094
-0.012413
-0.0089051
-0.0060349
-0.0031647
0.0051269
-0.0076295
-0.012094
-0.005716
-0.0047593
-0.0066727
-0.0066727
-0.0063538
-0.017197
-0.00029452
0.0025757
0.0019378
-0.0034836
-0.0028458
0.0016189
0.0067215
0.016289
0.016608
0.0057648
0.0016189
0.0089539
0.0073593
0.0041702
0.0057648
-0.00029452
-0.010819
0.0025757
0.0044891
-0.0012513
-0.0034836
-0.0050782
-0.005716
-0.0050782
0.0038513
-0.0076295
-0.0105
-0.011775
-0.0089051
-0.0069916
-0.010819
-0.011137
-0.019429
-0.018791
-0.0095429
-0.0050782
-0.011456
-0.011137
-0.0038025
-0.0069916
-0.0050782
0.0076782
-0.00061343
-0.0060349
-0.0041214
-0.0028458
-0.00061343
-0.0025269
-0.0060349
-0.015921
0.00098112
-0.0031647
-0.005716
-0.0073105
-0.0069916
-0.0069916
-0.0082673
0.00066221
0.0032135
-0.0066727
-0.012094
-0.0066727
-0.0060349
-0.00061343
2.4388e-05
-0.017197
-0.023894
-0.005716
0.0003433
-0.0076295
-0.0095429
-0.0098618
-0.0098618
-0.013051
-0.0012513
-0.011775
-0.014645
-0.016878
-0.013051
-0.01337
-0.015283
-0.012413
-0.023894
-0.022937
-0.0089051
-0.0063538
-0.011137
-0.0105
-0.009224
-0.0095429
-0.0044404
0.0060837
-0.0063538
-0.011456
-0.0076295
-0.0050782
-0.0038025
-0.0098618
-0.0098618
-0.018153
-0.0085862
-0.0041214
-0.0031647
-0.0038025
-0.0085862
-0.0076295
-0.0041214
-0.0018891
0.0073593
-0.0034836
-0.0098618
-0.005716
-0.0069916
-0.0069916
-0.0063538
-0.0105
-0.015921
-0.0031647
-0.0047593
-0.005716
-0.009224
-0.0085862
-0.0060349
-0.0053971
0.0057648
-0.0018891
-0.0044404
-0.0073105
-0.0050782
-0.0082673
-0.005716
-0.0018891
-0.015921
-0.017516
-0.0066727
-0.00061343
-0.0060349
-0.009224
-0.010181
-0.0095429
-0.0085862
0.0038513
-0.011775
-0.015283
-0.012094
-0.0095429
-0.012094
-0.0082673
-0.011456
-0.02198
-0.011456
-0.0076295
-0.0025269
-0.0018891
-0.00093234
-0.0025269
-0.00029452
0.0060837
0.016289
0.004808
-0.0041214
0.0035324
0.0032135
0.0051269
0.0013
-0.0082673
-0.016878
-0.0015702
-0.0012513
-0.0031647
-0.0079484
-0.012413
-0.0089051
-0.0047593
0.004808
-0.0050782
-0.0098618
-0.015921
-0.0073105
-0.0089051
-0.009224
-0.0105
-0.014008
-0.022618
-0.01624
-0.0063538
-0.011775
-0.012413
-0.011775
-0.014964
-0.014964
-0.0031647
-0.0089051
-0.015921
-0.014008
-0.016559
-0.012413
-0.015921
-0.017197
-0.024213
-0.013689
-0.009224
-0.0079484
-0.011775
-0.01337
-0.009224
-0.0085862
-0.0012513
0.011505
2.4388e-05
-0.005716
-0.00029452
0.0016189
0.0025757
0.0016189
-0.0015702
-0.014327
0.0022568
0.0038513
0.0067215
-0.002208
-0.0025269
2.4388e-05
0.00066221
0.0019378
0.0003433
-0.0034836
-0.0069916
-0.0063538
-0.0041214
-0.0047593
-0.0015702
-0.010181
-0.020705
-0.0066727
0.00066221
-0.0015702
2.4388e-05
-0.0044404
-0.009224
-0.0063538
0.012781
-0.0028458
-0.002208
-0.00093234
-0.0069916
-0.0076295
-0.0076295
-0.0079484
-0.015283
-0.014327
-0.009224
-0.0044404
-0.0073105
-0.0041214
-0.0050782
-0.0044404
-0.00061343
0.0057648
-0.0028458
-0.005716
0.0041702
-0.00061343
-0.0034836
2.4388e-05
-0.00061343
-0.016878
-0.0025269
0.0022568
0.0057648
-0.0028458
-0.0044404
-0.00029452
2.4388e-05
0.014694
0.0095917
0.0019378
-0.0041214
0.0032135
0.0019378
0.0019378
-0.0012513
-0.011775
-0.021343
-0.0060349
-0.0028458
-0.014964
-0.018472
-0.018791
-0.023575
-0.02198
-0.010819
-0.024851
-0.023894
-0.018153
-0.012413
-0.0089051
-0.0076295
-0.016878
-0.015921
-0.0044404
0.0057648
0.012462
0.0064026
0.0079971
0.011505
0.014694
0.018521
0.02777
0.012781
0.0044891
0.011505
0.012462
0.0099106
0.0038513
2.4388e-05
-0.0047593
0.01023
0.0089539
0.0076782
0.0022568
0.0003433
0.0054459
0.0041702
0.0073593
0.01023
0.0016189
-0.0063538
-0.0012513
-0.0034836
-0.0063538
-0.0085862
-0.012413
-0.026126
-0.0063538
-0.0034836
-0.0105
-0.012094
-0.012094
-0.012094
-0.0031647
0.011505
-0.0015702
0.0013
0.00066221
0.0092728
0.013738
0.011824
0.0064026
-0.0044404
-0.0044404
0.0041702
0.013419
0.012781
0.0032135
0.0067215
0.0051269
-0.00029452
0.0089539
-0.0069916
-0.0105
-0.0041214
-0.0063538
-0.0069916
-0.0060349
-0.010819
-0.019429
-0.0069916
-0.0095429
-0.0073105
-0.013051
-0.017197
-0.0082673
-0.0069916
-0.0038025
-0.00061343
-0.0073105
-0.012732
-0.011137
-0.014327
-0.011456
-0.0047593
-0.014327
-0.02517
-0.012094
-0.0034836
-0.0105
-0.005716
-0.0063538
-0.0031647
0.0025757
0.015013
0.0025757
0.0032135
0.0044891
0.010548
0.011824
0.011186
0.0092728
0.0025757
-0.0018891
0.008635
0.013738
0.0070404
0.0060837
0.0044891
0.004808
0.0076782
0.019159
0.004808
-0.002208
-0.0018891
0.0028946
0.0038513
0.0038513
-0.0015702
-0.01624
-0.00061343
0.0067215
-0.00061343
-0.005716
-0.0060349
-0.0044404
-0.0041214
0.0022568
0.0089539
0.0016189
-0.014008
-0.012094
-0.0095429
-0.0085862
-0.0095429
-0.018791
-0.025807
-0.011775
-0.0079484
-0.011775
-0.011775
-0.0066727
0.0016189
-0.0015702
0.010548
0.0022568
-0.0028458
0.00066221
0.012143
0.017883
0.017564
0.010548
0.0016189
-0.0085862
-0.0018891
0.00066221
-0.0041214
-0.0018891
-0.00061343
-0.0069916
-0.0089051
0.0035324
-0.016878
-0.022618
-0.012732
-0.0063538
0.0016189
-0.002208
-0.0060349
-0.015921
-0.011456
-0.00061343
0.0044891
-0.00093234
0.0003433
0.0013
-0.0053971
0.012781
0.015651
-0.00061343
-0.015283
-0.0063538
-0.0015702
-0.00061343
-0.0028458
-0.0031647
-0.013689
-0.0066727
-0.0018891
-0.0015702
-0.0031647
0.00098112
0.0064026
0.0076782
0.014375
0.0013
0.0013
-0.00029452
0.0038513
0.0035324
0.0073593
0.0038513
-0.0079484
-0.0053971
0.0041702
0.0092728
0.0028946
2.4388e-05
-0.00029452
0.0003433
0.0057648
0.013738
-0.00061343
-0.0018891
-0.0015702
-0.00029452
-0.0041214
-0.0079484
-0.0076295
-0.01337
-0.0053971
-0.0041214
-0.0063538
-0.0095429
-0.011137
-0.0060349
-0.0044404
0.0019378
0.014375
0.0044891
-0.005716
-0.0018891
-0.0050782
-0.0063538
-0.0050782
-0.0085862
-0.022618
-0.0069916
-0.0095429
-0.013689
-0.014327
-0.01624
-0.020067
-0.015602
-0.0079484
-0.010819
-0.009224
-0.0105
-0.0028458
0.0028946
-0.002208
0.0003433
-0.0060349
-0.011137
0.00066221
0.011186
0.013738
0.0060837
0.004808
0.0054459
0.0013
0.0095917
0.00098112
-0.0050782
-0.0085862
-0.011775
0.011505
-0.0031647
-0.01624
-0.031229
-0.022299
-0.020705
-0.017197
-0.011775
-0.011456
-0.01337
-0.019748
-0.009224
-0.0012513
-0.0044404
-0.01337
-0.0044404
0.00066221
0.0064026
-0.0031647
0.0016189
-0.002208
0.014375
0.018202
0.019159
0.0067215
0.010548
0.010548
0.015332
0.031278
0.021391
0.0060837
-0.00093234
0.015651
0.02458
0.023943
0.021072
-0.00093234
-0.0073105
0.020754
0.022986
0.012143
0.019159
0.016289
0.015651
0.017564
0.029683
0.020435
0.013419
0.011824
0.019159
0.014375
0.0076782
0.0099106
-0.0038025
-0.0025269
-0.0038025
0.0054459
-0.0015702
-0.0018891
-0.0095429
-0.012413
-0.0063538
0.0003433
-0.0085862
-0.020067
-0.024851
-0.024851
-0.023256
-0.03091
-0.026764
-0.03378
-0.031229
-0.028359
-0.031229
-0.035375
-0.030272
-0.025488
-0.026764
-0.0085862
-0.0105
-0.020705
-0.025488
-0.024851
-0.023256
-0.023894
-0.01337
-0.016559
-0.024851
-0.014327
-0.012094
-0.0073105
-0.0025269
0.0051269
0.0079971
-0.0053971
0.012462
0.021072
0.037018
0.032553
0.051369
0.066995
0.066677
0.063806
0.054558
0.055834
0.08039
0.084217
0.080071
0.068909
0.081346
0.048499
0.039888
0.054877
0.041483
0.024262
0.017246
-0.0038025
-0.005716
-0.0038025
-0.0079484
-0.026764
-0.015283
-0.0053971
0.0016189
-0.012094
-0.02198
-0.020386
-0.01337
0.0003433
0.004808
-0.00061343
-0.0076295
-0.00061343
-0.015921
-0.025807
-0.012413
-0.018472
-0.032504
-0.027402
-0.026126
-0.027083
-0.033461
-0.038564
-0.037607
-0.036012
-0.03378
-0.042391
-0.042072
-0.04845
-0.044304
-0.038883
-0.022299
-0.0079484
-0.037926
-0.047493
-0.028359
-0.0060349
-0.015283
-0.0060349
0.0038513
0.004808
0.0028946
0.018521
0.0003433
-0.0031647
-0.00029452
-0.0047593
-0.026445
-0.031867
-0.017516
-0.031867
-0.023575
-0.033142
-0.03378
-0.037288
-0.027721
-0.047493
-0.05419
-0.04558
-0.042072
-0.053234
-0.053234
-0.053552
-0.051958
-0.047812
-0.044304
-0.036012
-0.058974
-0.037926
-0.020386
-0.009224
-0.011456
-0.015283
-0.016878
-0.0098618
0.021072
0.016927
0.017883
0.0131
0.025218
0.029364
0.01884
0.023305
0.027132
0.0079971
0.015332
0.022348
0.023943
0.0003433
0.00098112
-0.00093234
0.00098112
0.017246
-0.0031647
-0.0047593
-0.013051
-0.02198
-0.024532
-0.026764
-0.024851
-0.030272
-0.018791
-0.021343
-0.01911
-0.028996
-0.024532
-0.020386
-0.023256
-0.0076295
0.0016189
-0.014964
-0.017835
-0.017835
-0.0073105
0.018202
0.026494
0.03638
0.011505
0.027132
0.029683
0.042439
0.050093
0.061255
0.05105
0.048818
0.048818
0.049137
0.042439
0.030959
0.030959
0.015332
-0.0012513
-0.0076295
-0.034418
-0.034418
-0.024851
-0.020386
-0.032504
-0.037607
-0.043028
-0.038245
-0.037288
-0.029634
-0.045261
-0.048131
-0.034418
-0.036969
-0.043028
-0.038883
-0.023575
-0.03665
-0.032504
-0.034737
-0.033142
-0.039202
-0.049726
-0.055785
-0.050682
-0.029634
-0.034099
-0.047174
-0.045899
-0.048769
-0.061844
-0.050044
-0.04558
-0.041115
-0.040796
-0.027402
-0.019429
-0.017835
-0.017197
-0.016878
-0.010181
0.0076782
0.032872
0.027132
0.026813
0.016289
0.032872
0.025218
0.017883
0.028407
0.034467
0.041802
0.05392
0.040845
0.031278
0.025856
0.028726
0.02777
0.032234
0.030321
0.008316
0.0051269
0.0003433
0.010548
-0.0034836
0.0003433
-0.0047593
-0.027721
-0.0066727
-0.012732
0.00066221
-0.0073105
-0.011775
-0.020386
-0.017197
-0.011775
0.0003433
-0.0018891
-0.017835
-0.024213
-0.027083
-0.015921
-0.026445
-0.047174
-0.055785
-0.039202
-0.049726
-0.049726
-0.052915
-0.061844
-0.080341
-0.056742
-0.023575
-0.026445
-0.030272
-0.03091
-0.049088
-0.049088
-0.022299
0.0028946
-0.0060349
0.0057648
0.032553
0.039888
0.032553
0.02777
0.020754
0.013738
0.022986
0.045947
0.022029
0.0057648
0.020754
0.025537
0.0044891
-0.012413
-0.019748
-0.02804
-0.023256
-0.020067
-0.018472
-0.020386
-0.026126
-0.027083
-0.050363
-0.049407
-0.038883
-0.057698
-0.049726
-0.05419
-0.082573
-0.078427
-0.070136
-0.063439
-0.079065
-0.056104
-0.063758
-0.06886
-0.061844
-0.051001
-0.031548
-0.034418
-0.023575
-0.026126
-0.022299
-0.012413
-0.0066727
-0.0098618
-0.0069916
-0.011456
-0.017197
-0.01624
-0.0044404
0.0044891
0.0064026
-0.0034836
-0.010819
-0.0063538
0.0060837
0.025856
0.027132
0.0070404
-0.0012513
-0.0053971
-0.00029452
-0.0031647
0.014694
0.0095917
0.02777
0.0057648
0.025218
0.044034
0.01597
0.023305
0.022348
0.047223
0.08039
0.045947
0.058066
0.08326
0.091233
0.069228
0.042121
0.052326
0.025856
0.039569
0.072098
0.074649
0.052963
0.013738
-0.011137
-0.011775
-0.0053971
-0.0018891
-0.022299
-0.041434
-0.051001
-0.05419
-0.056742
-0.037926
-0.04845
-0.078109
-0.064714
-0.063439
-0.083211
-0.068541
-0.055466
-0.046855
-0.04558
-0.043028
-0.051639
-0.068541
-0.06312
-0.048769
-0.04558
-0.054509
-0.047812
-0.058336
-0.049407
-0.047493
-0.051639
-0.03952
-0.039839
-0.037607
-0.022618
-0.019429
-0.025488
-0.031229
-0.027402
-0.037288
-0.022299
-0.013051
-0.0073105
-0.011456
-0.033142
-0.015921
-0.01624
-0.005716
-0.032186
-0.038564
-0.029953
-0.030272
-0.025488
-0.0069916
-0.0095429
-0.028359
-0.036012
-0.038883
-0.031867
-0.010181
-0.026445
-0.03091
0.011186
0.020754
0.035742
0.049137
0.059023
0.059342
0.031596
0.050093
0.064125
0.069228
0.089638
0.093465
0.093784
0.08326
0.066358
0.049455
0.038612
0.048818
0.020435
0.02458
0.0079971
-0.0073105
0.0028946
0.0057648
-0.005716
-0.020705
-0.056423
-0.070455
-0.053234
-0.035375
-0.067585
-0.081617
-0.087038
-0.041434
-0.042391
-0.048769
-0.037607
-0.038564
-0.032504
-0.018472
-0.022299
-0.00029452
-0.0012513
-0.020705
-0.016559
-0.010181
-0.00029452
0.0038513
0.0060837
-0.026445
-0.044304
-0.04271
-0.047174
-0.058017
-0.063758
-0.067266
-0.072687
-0.079703
-0.092141
-0.069179
-0.057379
-0.040796
-0.051639
-0.040158
-0.005716
0.01884
0.0054459
0.028088
0.046266
0.045947
0.059342
0.083579
0.070503
0.045629
0.049137
0.047223
0.034786
0.014375
-0.019748
-0.046855
-0.076195
-0.075557
-0.090546
-0.066628
-0.10841
-0.069179
-0.081298
-0.055147
-0.052277
-0.060569
-0.012413
0.0099106
0.008635
-0.012413
0.0099106
0.091233
0.063806
0.041164
0.030002
0.01597
0.024262
0.040526
0.0028946
-0.0025269
-0.016878
-0.030591
-0.073325
-0.01624
-0.037607
-0.062163
-0.050682
-0.045899
-0.009224
-0.00061343
0.0070404
-0.014327
-0.020705
-0.02198
-0.0085862
-0.005716
0.0051269
0.008635
0.0044891
-0.01624
0.015013
0.014375
0.012143
-0.0069916
-0.010819
-0.01911
-0.009224
-0.011456
-0.031548
0.02171
0.029683
0.026494
0.023943
0.01597
0.0057648
0.020116
0.0041702
0.0003433
-0.012413
-0.018791
-0.0063538
0.0067215
0.01597
-0.005716
-0.0047593
-0.038245
-0.022299
-0.035056
-0.035056
-0.023894
-0.037607
-0.024851
-0.021661
-0.023256
-0.026126
-0.030272
-0.049088
-0.02804
-0.026126
-0.039839
-0.048131
-0.061844
-0.061525
0.0057648
0.0076782
0.0013
-0.038883
-0.029953
-0.020386
-0.0018891
0.012462
0.016289
0.058704
0.065401
0.033829
0.041483
-0.0015702
0.011186
0.026175
0.038294
0.035742
0.047861
0.031278
0.03064
0.033829
0.021072
0.008316
-0.021343
-0.045899
-0.014964
-0.013689
-0.0038025
-0.019748
-0.022618
-0.0098618
-0.0082673
-0.022618
-0.046218
-0.029634
-0.014645
-0.015921
-0.00029452
0.018202
0.014375
0.021072
-0.0044404
0.029045
0.0060837
-0.010181
0.027132
0.053282
0.036699
0.042758
0.10367
0.059661
0.051369
0.06285
0.061255
0.079114
0.079114
0.073693
0.081028
0.088362
0.046585
0.028088
0.040207
-0.01624
-0.038883
-0.043666
-0.038564
-0.075238
-0.12658
-0.13774
-0.13137
-0.13902
-0.12052
-0.1269
-0.13679
-0.15528
-0.12531
-0.090865
-0.072368
-0.08353
-0.071093
-0.05132
-0.055147
-0.031229
-0.020067
-0.02198
-0.0105
-0.0038025
0.015651
0.01023
0.011824
0.014694
-0.0098618
0.004808
-0.011137
-0.0050782
0.023943
0.099843
0.094741
0.089957
0.12185
0.08039
0.055834
0.13014
0.11419
0.098249
0.15087
0.16873
0.13078
0.10495
0.043715
0.011186
-0.0012513
0.036699
0.049137
0.010548
-0.058336
-0.057061
-0.051639
-0.086719
-0.070136
-0.093735
-0.089589
-0.10203
-0.06886
-0.098519
-0.14699
-0.11702
-0.059612
-0.078427
-0.065352
-0.081935
-0.089589
-0.082892
-0.018153
-0.032186
-0.029315
-0.083211
-0.046536
0.0060837
0.031915
0.032872
0.0054459
-0.012094
0.0057648
-0.0012513
-0.012732
-0.045261
-0.041753
-0.053552
-0.03091
-0.04558
-0.053552
-0.043347
-0.061844
-0.077152
-0.068541
-0.034099
-0.036969
-0.029953
-0.0082673
2.4388e-05
0.02171
0.02171
0.043715
0.057428
0.057747
0.021072
0.050731
0.081028
0.061255
0.052326
0.040845
0.0089539
0.038931
0.015651
-0.045261
-0.051639
-0.029953
-0.036969
-0.024532
-0.034099
-0.046855
-0.047812
-0.025807
-0.035694
-0.045899
-0.045261
-0.035694
-0.034737
-0.034099
-0.011137
-0.017516
-0.031867
-0.02804
-0.022618
0.0057648
0.031596
0.031278
0.047542
0.0057648
0.031596
0.015651
0.035104
0.10877
0.063169
0.072098
0.11388
0.067633
-0.0050782
-0.0041214
0.050412
0.017564
0.017883
-0.00029452
0.0035324
-0.03378
-0.028996
-0.0073105
0.0060837
-0.0066727
-0.013689
-0.017197
-0.0073105
0.013419
-0.0082673
-0.050363
-0.052277
-0.019429
-0.011775
-0.02198
-0.019429
0.0013
-0.022618
-0.048131
-0.060887
-0.10841
-0.057698
-0.036969
-0.049407
-0.042072
-0.026445
0.0028946
0.0016189
0.016608
-0.037926
-0.030591
-0.059612
-0.0047593
0.066358
0.054877
0.044353
0.025218
0.040207
0.049774
0.037975
0.014375
0.0092728
0.0032135
0.020754
-0.0034836
-0.020386
-0.031229
-0.012094
-0.01911
-0.027402
-0.017197
0.008635
-0.0034836
-0.028996
-0.034418
-0.0050782
-0.0015702
-0.0044404
-0.031548
-0.038245
-0.050044
-0.048131
-0.011775
-0.062801
-0.064077
-0.073325
-0.074282
-0.058336
-0.034099
-0.034418
-0.043028
-0.032823
0.0064026
0.0073593
0.057747
0.09187
0.052326
0.069228
0.081028
0.08613
0.074968
0.07433
0.069866
0.034148
0.041483
0.030321
0.045629
0.012781
2.4388e-05
0.026813
0.044672
0.023943
-0.022299
-0.0034836
-0.0034836
-0.00029452
-0.0069916
-0.037607
-0.0066727
-0.051639
-0.072049
-0.051958
-0.037288
-0.017197
-0.054509
-0.035694
-0.050044
-0.037926
-0.051639
-0.087038
-0.084487
-0.055466
-0.011775
0.022029
0.042758
0.052963
-0.0053971
-0.031867
-0.014645
-0.017516
0.0003433
0.044672
0.042758
0.03925
0.066995
0.066039
0.050412
0.022667
0.015332
0.043077
0.08326
0.089319
0.049137
0.058704
0.094422
0.087087
0.010867
0.0022568
-0.0076295
-0.0034836
0.0038513
0.01884
-0.010819
-0.028996
-0.047493
-0.08066
-0.11861
-0.12307
-0.10553
-0.10011
-0.097881
-0.089908
-0.082892
-0.035056
-0.058017
-0.038883
-0.062801
-0.083211
-0.037926
-0.031229
-0.011456
0.013419
0.047223
0.07433
0.012781
-0.027721
0.011505
-0.010819
-0.034418
0.029364
0.051369
0.06859
0.042121
0.030959
0.012462
-0.010181
0.032872
0.008635
0.049137
0.058066
0.03638
0.018202
-0.014327
-0.041115
-0.052596
-0.062482
-0.075876
-0.076833
-0.064077
-0.05419
-0.02517
0.0051269
-0.052915
-0.089589
-0.080341
-0.06599
-0.062482
-0.0053971
0.022348
0.040845
0.037337
0.023624
0.0032135
0.031278
0.081665
0.040845
0.02458
0.021391
0.083898
0.09187
0.065082
0.070503
0.042439
0.020116
-0.02198
0.019159
0.061893
0.06572
0.040526
0.014694
-0.039202
-0.059293
-0.091822
-0.075876
-0.051001
-0.016559
-0.063439
-0.062801
-0.036969
-0.055147
-0.11574
-0.11128
-0.10362
-0.098519
-0.079703
-0.050363
-0.041434
-0.036969
-0.020705
0.0041702
-0.018472
0.0044891
-0.021343
-0.064395
-0.055466
0.0003433
-0.023894
-0.027402
-0.029953
-0.087676
-0.069817
-0.022937
-0.00093234
-0.0079484
-0.0060349
-0.031229
-0.020067
-0.00029452
0.08039
0.12217
0.089319
0.092827
0.049137
0.10303
0.10558
0.061574
0.074012
0.10303
0.026175
-0.0069916
0.011186
-0.0063538
-0.032186
-0.025488
-0.025488
-0.031867
-0.084806
-0.079065
-0.064395
-0.069179
-0.047174
-0.023894
-0.0031647
0.0070404
0.0025757
0.011505
0.0060837
0.0057648
-0.035375
-0.018791
0.030321
-0.037926
0.042758
0.034467
-0.019748
-0.012413
-0.040477
-0.10235
-0.055785
-0.056742
-0.080022
-0.052277
-0.03665
-0.0015702
-0.0079484
-0.0041214
0.0013
0.027132
0.065082
0.089319
0.021391
0.040526
0.022667
-0.02804
-0.022299
-0.033142
-0.066309
-0.011775
0.0025757
-0.049088
-0.10362
-0.084487
-0.099157
-0.12945
-0.11638
0.0099106
-0.044942
-0.038564
-0.044942
-0.0089051
-0.0031647
-0.016559
0.014694
-0.0041214
-0.044304
-0.040796
-0.026126
-0.027721
-0.015921
-0.020705
-0.017835
-0.014964
0.010867
0.030002
-0.0047593
0.028088
-0.0044404
0.058066
0.058704
0.037018
0.031278
0.067952
0.057747
0.024899
0.013419
0.041802
0.024262
0.0016189
-0.013689
-0.03952
-0.058017
-0.082573
-0.051958
-0.045261
-0.071093
-0.058974
-0.082892
-0.11446
-0.060887
-0.022937
-0.0015702
-0.049407
-0.0085862
-0.022937
-0.064077
-0.020067
-0.0044404
-0.019429
0.008635
0.011505
-0.0044404
-0.030272
-0.067585
-0.078427
-0.053234
0.012462
-0.020386
-0.049726
-0.010819
0.0044891
-0.010819
-0.0076295
-0.0025269
-0.019429
-0.018791
-0.0047593
0.0051269
-0.0053971
-0.034737
-0.041115
-0.00061343
0.010548
0.036061
-0.012413
-0.047812
-0.039839
-0.019748
0.0057648
0.020435
0.028407
0.019478
-0.049407
-0.062801
-0.068222
-0.063439
0.0013
-0.043666
-0.078109
-0.086719
-0.10553
-0.13169
-0.077471
-0.075557
-0.069179
-0.033142
-0.014645
-0.024532
-0.086719
-0.056742
0.0079971
-0.028359
-0.014008
-0.0041214
-0.031867
-0.014645
0.012143
0.082622
0.074649
0.054877
0.076882
0.10654
0.10048
0.12025
0.11898
0.11324
0.12312
0.099843
0.062531
0.086449
0.038612
0.0025757
0.036699
-0.019429
-0.048131
-0.046218
-0.078746
-0.14157
-0.11925
-0.11925
-0.12626
-0.10426
-0.087357
-0.097562
-0.08066
-0.094373
-0.10968
-0.10298
-0.096605
-0.1454
-0.08066
-0.014964
-0.043347
-0.060887
-0.063758
-0.002208
-0.052915
-0.079065
-0.085762
-0.084168
-0.077471
-0.046218
-0.030591
-0.030272
-0.073325
-0.094054
-0.035694
-0.070455
-0.057379
-0.079065
-0.06599
-0.014327
-0.014327
-0.01337
-0.0050782
0.02171
0.03064
0.035104
0.022029
0.043077
0.02777
0.014694
0.069866
0.044991
0.048499
0.081346
0.066995
0.029364
0.0038513
0.047542
0.036699
-0.0041214
0.017246
-0.013051
0.018521
-0.017516
0.043396
0.030959
0.035104
0.076244
0.0095917
0.011186
0.021391
0.033829
0.025856
0.046585
0.075925
0.065082
0.058704
0.021391
0.0073593
-0.091503
-0.049726
-0.031229
-0.043347
-0.075876
-0.023575
-0.04271
-0.10075
-0.13679
-0.12658
-0.078746
-0.04271
-0.046218
-0.0025269
0.01023
-0.040477
-0.091822
-0.049407
-0.038564
-0.034418
-0.053552
-0.030272
-0.05419
-0.022299
-0.087995
-0.10904
-0.10426
-0.098519
-0.098519
-0.093735
-0.069817
-0.072687
-0.050682
-0.019429
-0.036331
-0.0012513
-0.028678
-0.044942
-0.010181
0.017564
0.0099106
0.012462
0.023305
-0.058017
-0.10585
-0.061206
-0.059293
-0.067585
-0.035056
-0.065671
-0.087357
-0.079703
-0.086719
-0.078109
-0.044304
0.0092728
0.025856
0.033191
0.047542
0.078157
0.086768
0.10112
0.061255
0.055196
0.076244
0.055515
0.097611
0.047542
0.03351
-0.016878
-0.025807
0.02171
-0.014645
-0.02198
0.00066221
-0.028359
-0.045899
-0.075876
-0.067903
-0.053552
-0.040477
-0.014008
-0.020705
-0.053871
-0.087357
-0.049407
-0.088633
-0.1033
-0.055466
-0.0095429
0.032553
0.008635
0.028088
0.085173
0.038612
0.022348
0.042439
0.064444
0.034786
0.10654
0.070185
0.022667
0.04818
-0.0063538
-0.053552
-0.031229
-0.080022
-0.073963
-0.063758
-0.061844
-0.083849
-0.094692
-0.065352
-0.084487
-0.08927
-0.10011
-0.084806
-0.041115
-0.0063538
-0.012094
0.0025757
0.017564
-0.021661
-0.005716
0.015332
-0.01337
-0.0018891
0.034148
0.077201
0.03351
0.0073593
-0.0063538
-0.0095429
-0.013051
-0.069498
-0.077152
-0.067585
-0.1033
-0.078746
-0.079065
-0.078109
-0.032504
-0.015921
-0.056742
-0.055785
-0.045899
-0.03091
-0.049407
-0.055147
-0.0044404
0.024899
0.017246
0.048499
-0.0038025
-0.025488
-0.034418
-0.0015702
-0.018153
-0.049407
-0.023575
0.014056
-0.022937
-0.01624
-0.054509
-0.097562
-0.048131
0.0079971
-0.11319
-0.091503
-0.08927
-0.078109
-0.084168
-0.1033
-0.15241
-0.13169
-0.070455
-0.024851
-0.0018891
0.023624
0.041483
0.01884
-0.023894
0.0067215
0.063487
0.14066
0.12855
0.099205
0.03351
0.088044
0.10813
0.071141
0.058066
0.045629
0.011824
-0.054828
-0.029953
-0.048131
-0.079703
-0.074919
-0.085762
-0.097243
-0.10266
-0.11542
-0.13105
-0.14763
-0.10713
-0.079703
-0.050044
-0.055466
-0.014964
-0.021661
-0.010819
0.0054459
0.022986
0.032553
0.14609
0.11228
0.094422
0.082941
0.087406
0.1177
0.084217
0.11834
0.12599
0.10558
0.042758
0.060298
0.034148
-0.0082673
-0.04558
-0.011775
-0.078746
-0.09246
-0.12818
-0.12148
-0.12913
-0.12084
-0.065671
-0.1151
-0.14444
-0.14986
-0.13711
-0.14699
-0.1151
-0.11606
-0.13169
-0.053234
-0.085762
-0.1403
-0.17091
-0.1505
-0.14795
-0.14954
-0.12626
-0.14189
-0.12212
-0.10841
-0.069817
-0.079703
-0.060887
0.018202
0.047223
0.10367
0.10782
0.10782
0.14736
0.17415
0.14513
0.14768
0.22613
0.22422
0.19871
0.22517
0.15757
0.11675
0.085173
0.054877
0.058704
0.050731
0.03638
-0.074282
-0.06599
-0.096286
-0.11096
-0.11638
-0.095968
-0.088314
-0.07779
-0.07173
-0.074282
-0.088952
-0.067903
-0.035694
0.03638
0.013419
-0.010819
0.019159
0.073374
0.055515
0.0032135
0.00098112
0.025856
0.052645
-0.0063538
-0.035375
-0.033461
-0.05419
-0.051639
-0.03091
-0.04558
-0.035375
-0.021661
-0.070774
-0.076833
-0.052915
-0.069179
-0.059293
-0.071411
-0.086081
-0.056423
-0.097243
-0.097243
-0.062482
-0.052277
0.0067215
0.015332
-0.016559
-0.062482
-0.099794
-0.088952
-0.044623
0.014694
0.03638
0.0013
-0.074601
0.008635
0.042121
0.07146
0.070822
0.061574
0.03064
0.045629
0.044353
0.048818
0.046266
0.073055
0.038931
0.017564
0.043396
0.050412
0.03064
0.0028946
0.0076782
-0.043347
-0.067585
-0.060887
-0.074919
-0.041115
-0.009224
0.015332
0.012143
0.060617
0.05105
0.0057648
0.037337
0.046585
0.073374
0.01023
0.046585
0.054239
0.02458
-0.036331
-0.078427
-0.065671
-0.045261
0.0044891
-0.073963
-0.10553
-0.12626
-0.084806
-0.032186
-0.048131
-0.052277
-0.038883
0.0032135
0.019478
0.0022568
0.0064026
0.084536
0.07433
0.058704
0.037656
-0.0060349
-0.012094
0.01884
-0.044942
-0.03665
-0.018791
-0.051639
-0.057698
-0.057379
-0.074282
-0.096605
-0.070455
-0.042391
0.019159
0.062531
0.020435
-0.0085862
0.011824
0.020116
0.04531
0.0022568
0.015013
0.034467
-0.0015702
0.025218
0.037656
0.021391
-0.00093234
-0.043666
-0.015921
0.0013
0.0028946
-0.012094
-0.029315
-0.015921
-0.0069916
-0.011137
0.047223
0.1008
0.044353
0.02171
0.058066
0.050731
0.0079971
-0.025488
-0.047493
0.026813
0.071779
-0.0069916
-0.037926
-0.023894
-0.058655
-0.01624
-0.08353
-0.02804
-0.092778
-0.081935
-0.069179
-0.10171
-0.11733
-0.082254
-0.037926
-0.073325
-0.048769
-0.013689
0.058385
0.029364
0.0067215
-0.01624
0.014056
0.022986
-0.024851
-0.0012513
0.05105
0.055515
0.1244
0.055196
0.0051269
0.016608
0.074968
0.088362
0.029045
0.021072
0.0076782
0.01884
0.040526
0.012781
0.040526
0.025218
-0.0098618
-0.0060349
0.033829
0.0016189
0.0041702
-0.024532
-0.030272
0.0041702
0.0041702
-0.014327
0.033829
0.018202
-0.0050782
0.017564
0.029045
0.059661
0.054239
0.008635
0.039569
0.010548
0.017246
-0.009224
-0.0095429
-0.031229
-0.012413
0.028726
0.0076782
-0.024213
-0.036331
-0.044623
-0.0095429
-0.015283
-0.037288
-0.022618
-0.023575
0.017883
0.015332
0.012143
0.02458
-0.019748
-0.021024
-0.035056
-0.022937
0.057428
0.053282
0.10463
0.050412
0.028726
0.034148
0.037018
0.03064
0.030959
0.048499
0.13365
0.074968
0.008635
0.023624
0.013738
0.0079971
0.16076
0.17702
0.15119
0.12855
0.10526
0.051369
0.056153
0.040207
0.057109
0.1008
0.038931
0.1244
0.065401
-0.0041214
-0.06312
-0.087357
-0.1151
-0.10968
-0.14285
-0.14795
-0.12212
-0.071411
-0.073325
-0.096286
-0.11925
-0.13679
-0.1403
-0.11128
-0.10649
-0.072687
-0.074919
-0.046855
-0.033142
-0.051958
-0.03091
-0.050044
-0.09246
-0.11096
-0.02804
0.010867
-0.0050782
-0.005716
-0.015921
-0.012413
0.019478
0.011824
-0.0076295
-0.028678
0.041164
0.073055
0.018521
0.038294
0.081028
0.078476
0.050412
0.043396
0.057109
0.015332
-0.0038025
0.069228
0.10877
0.06285
0.097292
0.051688
-0.011775
-0.010819
-0.0012513
-0.06025
-0.087038
0.0038513
0.035104
-0.043028
-0.025488
-0.066628
-0.058017
-0.055147
-0.066309
-0.014008
0.080709
0.086768
0.084217
0.089957
0.062212
0.070185
0.061255
0.11962
0.14258
0.078157
0.10526
0.13365
0.070185
0.028407
-0.010819
-0.072049
-0.060569
-0.036331
-0.072368
-0.065671
-0.016878
-0.027721
-0.030591
-0.052596
-0.045899
-0.051639
-0.052596
-0.067266
0.0035324
-0.032504
-0.030591
-0.051958
-0.079384
-0.035375
-0.044304
-0.065033
-0.085762
-0.016878
-0.061206
-0.068222
-0.040477
-0.028996
-0.033461
-0.047812
0.019159
0.038294
-0.012732
0.0067215
0.008635
0.036061
0.18978
0.22836
0.1582
0.10144
0.14672
0.13939
0.094422
0.13333
0.10239
0.14353
0.15916
0.13269
0.09506
0.084536
0.0016189
-0.059612
-0.084806
-0.086719
-0.085125
-0.086081
-0.071411
-0.11989
-0.097243
-0.095968
-0.092778
-0.10522
-0.090227
-0.0982
-0.080022
-0.036331
-0.033142
0.012143
0.0003433
-0.040158
-0.024532
0.0025757
-0.050682
-0.033461
0.0060837
0.034148
-0.014645
-0.017516
-0.042391
-0.048131
-0.064714
-0.054509
-0.057698
-0.069817
-0.068541
-0.070136
-0.048131
-0.036969
-0.01337
-0.015283
0.017246
0.048499
0.058066
0.12185
0.11706
0.058704
0.084854
0.12185
0.16267
0.10718
0.047223
0.086768
0.11164
0.051369
0.025537
0.0025757
0.01597
-0.012094
0.018202
-0.023256
-0.063758
-0.049088
-0.02804
-0.027721
0.0019378
-0.037288
0.065082
0.093784
0.082303
0.040845
0.028088
-0.050682
0.044034
0.017883
0.10399
0.18946
0.20636
0.19839
0.14226
0.059979
0.064125
0.046266
0.060936
-0.061206
0.0013
0.082941
0.096335
0.027132
0.012781
-0.071411
-0.09246
-0.10362
-0.1403
-0.15528
-0.14061
-0.15337
-0.12084
-0.10936
-0.092778
-0.12339
-0.132
-0.13009
-0.14508
-0.13583
-0.12754
-0.14636
-0.14189
-0.10394
-0.038245
-0.020386
-0.05419
-0.022618
0.011505
0.0054459
0.040845
0.040207
0.085173
0.038931
0.067633
0.080709
0.070185
0.033829
0.033829
0.051688
0.084536
0.090595
0.056153
0.052645
0.037975
0.055196
0.076882
0.066358
0.052645
0.10941
0.08326
0.064125
0.092827
0.07752
0.19073
0.12408
0.04531
0.13301
0.18212
0.15087
0.072417
0.11611
0.061893
0.094103
0.064763
0.071779
0.11419
0.1177
0.032553
0.038931
0.06572
0.06572
0.056471
0.040207
0.0057648
0.0028946
-0.028678
0.010867
0.032553
0.0067215
-0.002208
-0.0041214
-0.070455
-0.082573
-0.11351
-0.13998
-0.16645
-0.1521
-0.12339
-0.13169
-0.15879
-0.16358
-0.1674
-0.16198
-0.15018
-0.14891
-0.12563
-0.12276
-0.11415
-0.11478
-0.11861
-0.090546
-0.11383
-0.082254
-0.06312
-0.079703
-0.054509
-0.036969
-0.036331
-0.050682
-0.066628
-0.036012
0.029683
0.030959
0.033829
0.028726
0.05392
0.014375
0.022667
0.023943
0.069228
0.06572
0.063169
0.067314
0.15055
0.21306
0.19615
0.19966
0.15565
0.20732
0.24527
0.13875
0.16905
0.19041
0.21784
0.20572
0.12057
0.077838
0.10495
0.046585
0.032234
-0.059931
-0.05419
-0.013689
-0.026445
-0.0069916
-0.0018891
-0.0018891
-0.037288
-0.062163
-0.030591
-0.0085862
0.037656
0.023305
0.020435
0.021072
0.024899
0.023943
0.017883
0.079752
0.029364
0.016927
0.028726
0.023943
0.0076782
-0.0041214
-0.051958
0.011186
0.032234
-0.0025269
-0.0031647
-0.011456
-0.058974
-0.076514
-0.071093
-0.046218
-0.0069916
0.081665
0.1059
0.050412
0.051369
0.015013
-0.010181
-0.038245
-0.012094
0.043715
0.026175
0.008316
-0.019748
-0.031548
-0.065352
-0.069179
-0.11829
-0.12116
-0.12499
-0.12116
-0.092141
-0.09246
-0.087038
-0.042391
-0.06599
-0.053871
-0.028996
-0.0044404
-0.014645
-0.022299
0.0051269
0.0028946
0.030959
0.020116
0.014375
0.059023
0.11292
0.13811
0.07433
0.022986
0.064763
0.061574
-0.0098618
-0.025488
0.023624
0.036699
0.019478
0.008316
0.0003433
0.015013
-0.00061343
0.018202
0.022667
0.016289
0.027132
-0.0069916
-0.009224
0.058704
0.11069
0.13142
0.19424
0.1834
0.16937
0.11611
0.10622
0.096335
0.073374
0.023943
0.036699
0.11483
0.073374
0.024262
-0.0053971
-0.058336
-0.08927
-0.11542
-0.11957
-0.086081
-0.044304
-0.10298
-0.092778
-0.052915
-0.06025
-0.061525
-0.099157
-0.076833
-0.023256
-0.0044404
-0.0069916
-0.02804
-0.051639
-0.046536
-0.058336
-0.051639
-0.01624
-0.024532
-0.02198
0.044672
0.075287
0.10239
0.097611
0.088362
0.043396
0.076882
0.10431
0.03638
0.043715
0.088044
0.10973
0.082622
0.02777
-0.016559
-0.055466
-0.043985
-0.049726
-0.051958
-0.06025
-0.053871
-0.046855
-0.047812
-0.044304
0.012781
0.046266
0.088681
0.15501
0.23283
0.14098
0.091233
0.096973
0.079114
0.15693
0.082622
0.11579
0.16554
0.13365
0.052963
-0.0012513
-0.017197
-0.039839
-0.091822
-0.12467
-0.1049
-0.097562
-0.10107
-0.088633
-0.090227
-0.11542
-0.083211
-0.065352
-0.066947
-0.061525
-0.039202
-0.021343
-0.027083
-0.015283
-0.023256
-0.024851
-0.023575
-0.010819
0.021072
0.020435
0.031596
0.079114
0.090914
0.11388
0.10112
0.077201
0.10431
0.091233
0.078795
0.089638
0.088681
0.098886
0.10271
0.043396
0.064763
0.0131
0.050412
0.0131
-0.018153
-0.0069916
-0.023575
-0.018472
-0.010181
0.026175
0.059023
0.056471
0.055196
0.049455
0.03925
0.04531
0.017246
0.028726
0.04531
0.043077
0.05105
0.0035324
0.0070404
0.020754
0.010867
-0.017516
-0.017835
-0.002208
-0.01911
-0.0089051
-0.011137
-0.034418
-0.044304
0.016608
-0.002208
-0.012094
0.0054459
0.019159
0.010867
0.008635
0.0038513
0.041164
0.052963
0.037656
0.044672
0.064763
0.073055
0.069547
0.075925
0.074968
0.028407
0.0016189
0.026813
0.03925
0.0003433
0.011505
0.00098112
-0.028359
-0.024851
-0.015602
-0.026126
-0.051001
-0.047174
-0.03665
-0.053234
-0.046855
-0.02804
0.0013
-0.018472
-0.017197
-0.0095429
-0.06312
-0.013051
0.014056
0.040207
0.090595
0.056471
0.052645
0.053601
0.094103
0.052007
0.020435
0.067952
0.13397
0.15278
0.074649
0.11898
0.14034
0.10845
0.069866
0.059661
0.12185
0.088044
0.061255
0.13046
0.11324
0.12918
0.037337
0.065082
0.074012
0.047861
0.024899
0.032872
0.030002
0.01023
0.084217
0.07433
0.032234
-0.0076295
-0.010819
-0.0105
-0.0025269
0.017883
0.0044891
0.0016189
-0.059612
-0.045261
-0.035375
-0.049088
-0.067585
-0.083849
-0.08927
-0.078109
-0.077152
-0.046855
-0.051958
-0.047493
-0.047812
-0.038245
-0.021343
-0.01337
-0.0050782
-0.0095429
-0.0069916
2.4388e-05
0.017246
0.031915
0.010548
0.0041702
0.026494
0.01597
0.032234
0.04531
0.034467
0.0038513
0.05105
0.10463
0.15151
0.12599
0.11962
0.14066
0.1346
0.14991
0.074012
0.064125
0.16394
0.16841
0.14864
0.1244
0.051369
0.067952
0.034148
-0.002208
0.044991
-0.023256
-0.031229
-0.049088
-0.050363
-0.016559
-0.011775
0.030321
0.039888
-0.017835
0.0131
0.017564
0.010548
-0.0047593
-0.0069916
0.012462
0.049774
0.032553
0.013419
0.0076782
-0.0041214
-0.03952
-0.057379
-0.045899
-0.060569
-0.082254
-0.056423
-0.031548
-0.036331
-0.046536
-0.045261
-0.041115
-0.038564
-0.028359
0.016608
-0.0069916
0.0028946
0.01597
0.067952
0.075287
0.08613
0.081984
0.16841
0.14226
0.12057
0.10718
0.088681
0.13046
0.13716
0.13269
0.15342
0.089957
0.066358
0.059342
0.037018
0.013738
0.047223
0.031278
0.0013
-0.0073105
0.0019378
-0.021661
0.00066221
0.0019378
0.058704
0.068909
0.065401
0.065082
0.042439
0.042439
-0.061844
-0.047174
0.064125
0.028088
-0.012413
-0.024213
-0.015283
-0.049088
-0.059293
-0.06599
-0.097243
-0.087038
-0.074601
-0.051958
-0.06312
-0.073325
-0.073644
-0.051639
-0.02198
-0.010181
0.046585
0.0028946
0.035423
0.069228
0.08613
0.072417
0.11132
0.10782
0.12567
0.10048
0.1244
0.087406
0.076563
0.031278
0.031915
0.067952
0.041164
0.047542
-0.013051
-0.035056
-0.034737
-0.038883
-0.065671
-0.045899
-0.04845
-0.11797
-0.091184
-0.040796
-0.010819
-0.020386
-0.033142
-0.051639
-0.024213
-0.0069916
-0.0047593
-0.0025269
0.03351
0.073055
0.075287
0.071141
0.069547
0.068909
0.061574
0.07752
0.062212
0.1008
0.09506
0.053282
0.021391
0.016927
0.029045
0.074968
0.10303
0.09793
0.063169
0.051369
0.052963
0.044034
0.044672
0.027132
0.052963
0.056471
0.052645
0.054558
0.029364
-0.0041214
-0.024213
-0.028996
-0.035375
-0.041434
-0.060887
-0.026126
0.02171
0.025537
-0.043666
-0.022618
-0.021343
0.042439
0.064444
0.041802
0.0079971
0.0131
0.03064
0.042121
0.0019378
0.012462
-0.022618
-0.0098618
0.061255
-0.019748
-0.020386
-0.009224
-0.020386
0.017564
-0.0044404
0.0054459
-0.0095429
0.0076782
0.020435
0.026813
0.0089539
0.0060837
-0.0069916
0.015651
0.034786
0.064444
0.035104
0.0032135
-0.005716
0.012143
0.047223
0.040526
0.05679
0.0070404
0.043396
0.04818
0.039888
0.066677
0.046585
0.034148
0.049137
0.052326
0.059342
0.069547
0.063487
0.032234
0.065082
0.10495
0.042439
-0.012732
0.025218
0.067633
0.019797
0.0025757
-0.014008
-0.013051
0.0019378
-0.035056
-0.056742
-0.052277
-0.045261
-0.065352
-0.073325
-0.072049
-0.055785
-0.047812
-0.049088
-0.035694
-0.02804
-0.031867
-0.036331
-0.028359
2.4388e-05
0.033829
0.06572
0.041483
0.026813
0.035423
0.069228
0.069228
0.093146
0.10271
0.084217
0.074012
0.084854
0.06572
0.046266
0.054877
0.026175
0.0044891
0.014375
0.022029
0.0051269
0.012781
0.0041702
-0.0069916
0.0054459
0.019478
0.017564
0.008635
0.016927
0.032234
0.026175
0.034467
0.012462
0.029683
0.05392
0.01884
0.016608
-0.002208
0.013738
0.0073593
0.01597
0.019159
0.011824
0.027132
0.013738
0.012781
0.024899
0.071779
0.077201
0.075287
0.035742
0.079114
0.094103
0.082303
0.087406
0.16139
0.10973
0.10909
0.087725
0.068909
0.11451
0.10654
0.071779
0.064125
0.034467
-0.0041214
-0.03091
-0.028996
-0.00061343
-0.015283
-0.063439
-0.086081
-0.097881
-0.088952
-0.099476
-0.092141
-0.10649
-0.084487
-0.090546
-0.094054
-0.10649
-0.10936
-0.10617
-0.080022
-0.054828
-0.06312
-0.061525
-0.032823
-0.043028
-0.046218
-0.038564
-0.015921
0.012462
0.043396
0.036699
0.048499
0.057109
0.071779
0.090914
0.090914
0.076244
0.10399
0.12823
0.12472
0.099524
0.11356
0.071141
0.052326
0.069547
0.058066
0.05679
0.011824
-0.0089051
0.0092728
0.0003433
-0.018153
-0.041753
-0.034737
-0.027083
0.030321
0.012462
0.0003433
0.0028946
0.011824
0.072098
0.099205
0.05392
0.064444
0.073374
0.063169
0.065401
0.059979
0.03925
0.019159
0.0032135
0.019478
0.021072
-0.01337
-0.038883
-0.053234
-0.063439
-0.066309
-0.043347
-0.044623
-0.014645
-0.036969
-0.041434
-0.02517
-0.034737
-0.059293
-0.059293
-0.0031647
0.0028946
-0.016878
-0.040477
-0.036969
-0.0089051
-0.041115
-0.0069916
0.0057648
-0.0015702
0.02777
0.012143
0.0076782
0.03064
0.081028
0.084217
0.080709
0.064763
0.092508
0.087725
0.081984
0.11451
0.11005
0.075606
0.10271
0.065082
0.027132
0.023943
0.024899
-0.018791
-0.0063538
0.0099106
-0.034737
-0.076833
-0.055785
-0.062163
-0.054509
-0.078109
-0.045261
-0.066947
-0.080022
-0.06025
-0.062482
-0.04845
-0.040477
-0.053871
-0.055785
-0.04558
-0.055147
-0.043028
-0.026764
-0.022299
-0.057379
-0.043028
-0.027721
-0.013689
-0.011775
0.0131
0.020435
0.095697
0.095378
0.070503
0.084854
0.098249
0.10558
0.079114
0.047223
0.081346
0.11388
0.083898
0.059661
0.053601
0.064763
0.0099106
0.0025757
-0.01337
0.0003433
0.031915
0.062212
0.069228
0.11706
0.10622
0.10813
0.1126
0.11834
0.11324
0.096335
0.05392
0.089
0.041802
0.032234
0.013419
-0.0041214
-0.0864
-0.099794
-0.13487
-0.15401
-0.169
-0.18654
-0.20886
-0.18271
-0.16166
-0.13264
-0.16995
-0.17665
-0.15114
-0.12754
-0.09533
-0.089589
-0.072368
-0.049088
-0.047493
-0.052915
-0.041434
-0.0044404
0.02171
0.016608
0.046904
0.058066
0.038294
0.046585
0.061574
0.067314
0.056153
0.062212
0.13652
0.18531
0.13652
0.16618
0.16586
0.13365
0.16044
0.18754
0.21433
0.19679
0.21625
0.17064
0.094103
0.085811
0.094741
0.06572
0.065082
0.046585
-0.0034836
-0.040796
-0.061844
-0.10235
-0.10904
-0.11383
-0.14061
-0.13137
-0.10043
-0.14891
-0.13998
-0.13169
-0.14731
-0.12658
-0.15433
-0.15752
-0.12626
-0.13009
-0.11765
-0.084168
-0.15178
-0.17729
-0.19292
-0.16166
-0.13743
-0.089589
-0.061844
-0.077152
-0.1202
-0.11223
-0.099794
-0.11478
-0.11415
-0.10617
-0.11287
-0.078427
-0.086081
-0.10171
-0.075557
-0.093735
-0.097881
-0.059612
-0.037926
-0.054828
-0.070455
-0.048131
-0.022618
-0.014645
0.0013
0.0038513
-0.00061343
0.03064
0.020435
0.0057648
0.054877
0.092827
0.081028
0.13237
0.22773
0.23538
0.20158
0.19966
0.2172
0.24303
0.23666
0.27811
0.22868
0.27748
0.24846
0.17319
0.095697
0.096016
0.056471
0.015332
-0.026126
-0.045261
-0.099794
-0.1403
-0.19005
-0.17793
-0.18335
-0.15082
-0.169
-0.19674
-0.18271
-0.1403
-0.16932
-0.17697
-0.18048
-0.14572
-0.10809
-0.098519
-0.081617
-0.094054
-0.074601
-0.073963
-0.1218
-0.10649
-0.058655
-0.084806
-0.099794
-0.081617
-0.09533
-0.089908
-0.088633
-0.10266
-0.11893
-0.055466
-0.067903
-0.080979
-0.075557
-0.07173
-0.042391
-0.042072
-0.027083
-0.031867
0.071141
0.014056
-0.014645
-0.0025269
0.0035324
0.038612
0.046904
0.034786
0.098249
0.099205
0.044034
0.020435
0.0032135
0.073374
0.061574
0.072098
0.082941
0.078795
0.07752
0.066039
0.053282
0.10782
0.1413
0.092189
0.079752
0.10782
0.10877
0.11675
0.092508
0.07433
0.1244
0.098568
0.059661
2.4388e-05
-0.013689
0.021072
-0.014645
-0.0063538
-0.041115
-0.036012
-0.036012
-0.047493
-0.03665
-0.01911
-0.028359
-0.024213
-0.046218
-0.0066727
-0.002208
-0.058655
-0.068541
-0.061844
-0.045261
-0.075557
-0.06025
-0.04845
-0.080022
-0.12212
-0.12913
-0.12212
-0.093097
-0.086719
-0.10011
-0.11797
-0.10107
-0.055466
-0.090546
-0.11415
-0.0864
-0.05419
-0.0073105
-0.014964
-0.03378
-0.046855
0.0089539
-0.0079484
0.012143
0.034786
0.070503
0.089
0.07752
0.10208
0.11356
0.084854
0.042121
0.058385
0.025218
0.017883
0.042758
0.037975
0.061255
0.046904
-0.0053971
0.0003433
0.066039
0.01023
0.010867
0.0092728
0.020116
0.037018
0.030959
0.03925
0.044034
0.034148
-0.0018891
-0.01337
-0.036012
0.0064026
-0.014964
-0.029634
-0.038245
-0.05132
-0.074601
-0.052915
-0.047174
-0.063758
-0.048131
-0.043985
-0.052915
-0.066947
-0.066309
-0.043985
-0.048131
-0.079384
-0.091822
-0.066309
-0.071093
-0.061844
-0.073644
-0.084806
-0.063758
-0.066309
-0.047174
-0.062801
-0.063758
-0.022618
-0.018153
-0.073006
-0.070455
-0.044623
-0.032823
-0.0047593
-0.0015702
0.041802
0.063169
0.042758
0.044034
0.035742
0.064763
0.067633
0.092189
0.11738
0.12791
0.11101
0.11898
0.12567
0.10176
0.063806
0.028407
0.084217
0.030002
0.022029
-0.0053971
0.014375
-0.011775
0.0003433
-0.064395
-0.076833
-0.043347
-0.052915
-0.058974
-0.045899
-0.040477
-0.054828
-0.10426
-0.051958
-0.036969
-0.01911
-0.078427
-0.11223
-0.083849
-0.039839
-0.057061
-0.090865
-0.072687
-0.055466
-0.058336
-0.080341
-0.056742
-0.044304
-0.052596
-0.042072
-0.041434
-0.0044404
-0.0063538
-0.0041214
0.0019378
0.011186
-0.0028458
0.024899
0.012143
0.0067215
0.017246
0.010867
0.022667
-0.00061343
0.025537
0.023943
0.03351
0.040845
0.032234
0.016608
-0.00029452
0.026175
0.076882
0.064763
0.049137
0.037337
0.047223
0.042758
0.068271
0.069228
0.065401
0.12217
0.13684
0.15087
0.11069
0.10845
0.1362
0.10303
0.046585
0.066358
0.097292
0.059661
0.10399
0.031915
0.025537
-0.0098618
-0.015283
-0.065352
-0.10362
-0.064714
-0.062482
-0.037607
-0.0982
-0.052915
-0.044304
-0.071411
-0.043985
-0.064714
2.4388e-05
-0.029315
-0.047174
-0.063439
-0.034099
-0.018791
-0.032823
-0.0018891
-0.0053971
-0.0098618
-0.01911
-0.022937
-0.04558
-0.080341
-0.060569
-0.017516
-0.018472
-0.04271
-0.051001
-0.047493
-0.06025
-0.046536
-0.066628
-0.060887
-0.066947
-0.053871
-0.04845
-0.032186
-0.026764
-0.031867
-0.041115
-0.044942
-0.0038025
0.0064026
-0.0015702
-0.0018891
-0.00093234
0.0099106
0.051369
0.041483
0.050412
0.045629
0.039569
0.05392
0.038294
0.048499
0.12185
0.11388
0.12599
0.11356
0.066995
0.1413
0.11675
0.063487
0.079433
0.11324
0.093465
0.071141
0.13301
0.11898
0.064125
0.088362
0.070822
0.027451
0.0060837
0.038612
0.032234
0.064125
0.067952
0.013419
-0.022299
-0.036331
-0.018153
-0.014964
-0.046855
-0.028996
-0.024851
-0.042391
-0.06599
-0.053234
-0.053552
-0.072368
-0.045899
-0.026445
-0.024532
-0.061525
-0.052277
-0.043985
-0.067903
-0.090865
-0.079703
-0.064714
-0.06886
-0.075238
-0.067266
-0.094054
-0.13519
-0.073963
-0.06886
-0.075876
-0.072049
-0.077152
-0.067585
-0.033142
-0.041434
-0.011456
0.019797
0.0038513
0.019797
0.012781
-0.01911
-0.00093234
0.05105
0.050412
0.079433
0.037975
0.051369
0.059979
0.077201
0.045629
0.036699
0.06859
0.093784
0.10399
0.074012
0.089957
0.1193
0.059661
0.017246
0.038612
0.049455
0.00098112
0.022986
-0.009224
-0.03091
-0.03091
-0.024213
-0.025807
-0.014964
-0.012094
-0.05132
0.0054459
-0.014645
0.032553
0.024899
0.03925
0.051688
0.06859
0.065401
0.078476
0.019159
0.0003433
0.010548
0.029045
0.00066221
-0.032823
-0.067585
-0.026764
-0.046536
-0.06886
-0.053234
-0.068541
-0.047812
-0.035694
-0.057698
-0.034418
-0.037288
-0.026126
-0.021343
0.011505
0.016927
0.0089539
0.0095917
0.017564
-0.0082673
-0.009224
-0.027721
-0.064077
-0.023256
-0.009224
-0.041434
-0.07173
-0.039202
-0.046855
-0.069179
-0.04845
-0.038245
-0.023256
-0.040796
-0.0089051
-0.0025269
0.019478
0.011186
0.028407
0.065401
0.057109
0.05679
0.067952
0.10495
0.1059
0.081028
0.066039
0.044353
0.0051269
0.047542
0.079114
0.059342
0.024262
0.05105
0.066039
0.02171
0.01597
-0.010181
-0.0044404
0.020435
0.06859
0.035742
0.022986
0.022667
0.011505
-0.016878
-0.019748
-0.026764
-0.054509
-0.057061
-0.041753
-0.055147
-0.078746
-0.065671
-0.090227
-0.10298
-0.098519
-0.099476
-0.10777
-0.13041
-0.1218
-0.12052
-0.13647
-0.10075
-0.080341
-0.065352
-0.080979
-0.087676
-0.095968
-0.07173
-0.062482
-0.060569
-0.035375
-0.020705
-0.005716
0.0035324
0.011186
0.0022568
-0.0095429
0.011186
0.049137
0.054239
0.066358
0.052007
0.062531
0.066358
0.082622
0.066358
0.059979
0.06859
0.076882
0.07433
0.081346
0.098249
0.07146
0.084854
0.057109
0.037337
0.031596
0.015332
0.01597
0.029045
0.028407
0.02171
0.019797
0.0044891
-0.0012513
0.0060837
0.018202
0.0032135
0.0079971
0.034148
0.041164
0.043077
0.052326
0.05679
0.069547
0.095697
0.087406
0.069547
0.083579
0.044353
0.022986
0.0092728
0.051369
0.040207
0.0051269
-0.0069916
0.008635
-0.034099
-0.042391
-0.069179
-0.081298
-0.053871
-0.033461
-0.041753
-0.082573
-0.059293
-0.074601
-0.083849
-0.074919
-0.064077
-0.10681
-0.12276
-0.096605
-0.096924
-0.10043
-0.095968
-0.089908
-0.10458
-0.091503
-0.078427
-0.073644
-0.070455
-0.05419
-0.053552
-0.037288
-0.020386
-0.022937
0.0003433
-0.0044404
-0.0063538
0.0032135
0.012462
0.0019378
-0.024851
0.012781
0.0092728
-0.017835
-0.032186
-0.038564
-0.029315
-0.036969
-0.01624
-0.01624
-0.015921
-0.012413
-0.015921
-0.00061343
-0.023256
-0.030591
-0.0069916
0.0044891
0.046585
0.058704
0.07146
0.061255
0.077201
0.075925
0.060936
0.050731
0.068909
0.036061
0.047861
0.062531
0.054877
0.044353
0.037337
0.036061
0.0051269
0.0131
0.015332
0.011824
0.0025757
0.0028946
0.016289
0.0131
-0.011456
-0.017516
-0.0044404
-0.012094
-0.018153
-0.014327
-0.022937
-0.010181
-0.038883
-0.049407
-0.028678
-0.021661
-0.022618
-0.021343
-0.029315
-0.022937
-0.011775
-0.01337
-0.045261
-0.041115
-0.033142
-0.028996
0.0003433
-0.021661
-0.028996
-0.043347
-0.03091
-0.0098618
-0.012413
-0.026445
-0.022299
-0.010819
-0.011775
-0.014008
0.0079971
0.004808
-0.01911
-0.044623
-0.047812
-0.060887
-0.073963
-0.068541
-0.095011
-0.090546
-0.095011
-0.082892
-0.083211
-0.078109
-0.087357
-0.086719
-0.057698
-0.037607
-0.02517
-0.012732
-0.00093234
0.01884
0.052007
0.060617
0.075606
0.074012
0.099205
0.12376
0.10303
0.075925
0.078157
0.07146
0.072098
0.073693
0.059023
0.029683
0.056471
0.065082
0.02458
-0.00093234
-0.02517
-0.028359
-0.015921
-0.0012513
0.014375
-0.00061343
-0.0047593
0.0035324
-0.019429
-0.011775
0.0054459
-0.013689
-0.02517
-0.0098618
-0.01911
-0.042072
-0.03091
-0.036012
-0.055147
-0.051958
-0.045899
-0.04271
-0.055466
-0.053552
-0.051001
-0.055466
-0.038564
-0.033461
-0.036012
-0.027083
-0.036969
-0.019748
-0.017197
-0.019748
-0.014008
-0.017516
0.0038513
0.013738
0.011186
0.0076782
-0.0015702
-0.023256
-0.01624
0.024262
0.011505
-0.026764
-0.031867
-0.030591
-0.031867
-0.050682
-0.043985
-0.060569
-0.053552
-0.061844
-0.042072
-0.043347
-0.052596
-0.033142
-0.026764
-0.014327
0.0060837
-0.0060349
-0.02198
-0.01624
-0.023575
0.0022568
0.030002
0.014056
-0.0012513
0.00098112
0.0064026
0.020116
0.023624
0.030959
0.020435
0.021072
0.055196
0.047542
0.055196
0.037018
0.022348
0.022667
0.02458
0.037337
0.017564
-0.0089051
0.014375
0.020116
-0.01337
-0.014008
-0.050682
-0.058655
-0.041753
-0.031548
-0.037607
-0.039202
-0.039839
-0.011775
-0.024213
-0.014327
-0.012094
-0.022937
-0.02517
0.0028946
0.026813
0.0057648
0.014694
0.015651
0.022348
0.031915
0.043077
0.0067215
-0.012094
-0.017835
-0.010181
-0.012413
-0.015921
-0.01911
-0.040477
-0.022937
-0.036331
-0.044304
-0.039839
-0.046218
-0.055466
-0.058974
-0.04558
-0.056104
-0.071093
-0.061525
-0.052915
-0.058017
-0.056423
-0.049088
-0.053552
-0.058336
-0.043985
-0.034737
-0.032504
-0.029634
-0.017197
-0.020386
-0.018791
0.0035324
-0.00061343
-0.0034836
0.0060837
2.4388e-05
-0.005716
-0.0076295
-0.0041214
-0.0073105
0.0057648
0.0003433
0.012781
0.031915
0.0076782
0.0131
0.02458
0.043396
0.037337
0.023943
0.019159
0.028088
0.029364
0.028088
0.020754
0.03351
0.028726
0.030002
0.030002
0.048818
0.038612
0.024262
0.026813
0.01597
0.012781
0.014375
-0.0015702
-0.02198
-0.0079484
-0.011775
-0.039202
-0.050363
-0.038564
-0.048769
-0.063758
-0.051001
-0.058655
-0.048131
-0.037926
-0.038564
-0.029634
-0.017197
-0.018153
-0.015921
-0.012413
-0.0073105
-0.0041214
-0.0034836
-0.0018891
-0.0098618
-0.0089051
0.0016189
0.0076782
0.0025757
0.00098112
0.0016189
-0.00061343
0.0044891
0.015332
0.0028946
-0.0015702
0.0022568
0.0013
0.0022568
0.00066221
0.0022568
-0.0105
0.00066221
0.0028946
0.0054459
0.00098112
0.00098112
0.0022568
0.0016189
0.010867
0.013419
0.0035324
-0.00029452
0.0016189
0.0032135
0.010548
0.0044891
-0.0060349
-0.023894
-0.014008
-0.0105
-0.0066727
-0.002208
-0.010181
-0.011456
-0.0034836
0.0089539
0.0032135
0.004808
-0.009224
-0.01337
-0.009224
-0.0041214
-0.0034836
-0.018153
-0.020067
-0.0066727
-0.0063538
-0.019429
-0.021661
-0.011775
-0.014008
-0.0073105
0.0076782
0.0089539
0.01597
0.0035324
-0.01337
-0.0038025
-0.00029452
-0.0076295
-0.01911
0.020435
0.028407
0.017246
-0.0050782
0.0041702
0.0003433
-0.0085862
0.01023
0.02458
0.0095917
-0.0028458
0.0099106
0.01884
0.019159
0.019159
0.013738
0.008316
0.0131
0.014375
0.0057648
-0.0076295
-0.0050782
-0.0015702
-0.00029452
0.0073593
-0.011775
-0.015921
-0.01624
-0.016878
-0.020386
-0.023256
-0.025488
-0.03091
-0.033142
-0.019748
-0.012413
-0.020705
-0.020386
-0.010819
-0.011456
-0.0079484
0.0022568
-0.0047593
-0.0053971
2.4388e-05
0.0025757
0.0025757
0.0022568
0.0013
-0.0085862
0.0016189
0.008316
0.0051269
-0.0031647
-0.0044404
-0.0038025
-0.0038025
0.0067215
0.008635
-0.0050782
-0.017516
-0.0098618
-0.0082673
-0.0060349
-0.0034836
-0.011775
-0.02804
-0.0098618
-0.0015702
-0.0028458
0.0016189
0.0038513
0.0003433
0.0070404
0.019797
0.010867
-0.0038025
0.0016189
0.0067215
0.0076782
0.008635
0.008635
0.0019378
-0.00061343
0.01597
0.012781
0.0092728
0.010867
0.012143
0.020116
0.022986
0.035742
0.02171
0.017883
0.015013
0.0079971
0.0041702
0.0057648
-0.012413
-0.028996
-0.029953
-0.029953
-0.036012
-0.039202
-0.042072
-0.041753
-0.044942
-0.037288
-0.029953
-0.043028
-0.047812
-0.031229
-0.016878
-0.0047593
-0.005716
-0.0069916
-0.015283
0.0095917
0.017883
0.019159
0.019797
0.021391
0.026813
0.030002
0.042121
0.042121
0.028726
0.029683
0.035104
0.037337
0.03638
0.037656
0.029683
0.02171
0.034148
0.039569
0.03638
0.031915
0.032553
0.030959
0.031596
0.042121
0.026494
0.022986
0.023305
0.018521
0.016289
0.012143
0.012781
-0.00093234
0.00098112
0.0051269
0.010548
0.0073593
0.0022568
0.0073593
0.0076782
0.0038513
0.015332
0.0064026
0.0041702
0.024899
0.019478
0.02777
0.02777
0.022348
0.0131
0.031278
0.032234
0.037975
0.038612
0.024899
0.022029
0.023943
0.034786
0.035104
0.027451
0.022348
0.028726
0.022667
0.034467
0.021391
0.0041702
-0.012094
0.011505
0.029045
0.018202
0.013419
0.012143
0.011824
0.008635
0.0131
-0.0044404
-0.0076295
-0.0076295
-0.0098618
-0.009224
-0.012732
-0.014645
-0.026445
-0.022618
-0.01337
-0.0095429
-0.014008
-0.015283
-0.015283
-0.01337
-0.0047593
0.0019378
-0.009224
-0.0076295
-0.0044404
-0.0060349
-0.0050782
-0.0018891
-0.0031647
-0.01337
0.0022568
0.0054459
0.0054459
0.00098112
0.0025757
0.0079971
0.0092728
0.016289
0.015013
0.0089539
0.0064026
0.01023
0.0092728
0.008635
0.01023
0.00098112
-0.005716
0.0099106
0.0131
0.0079971
0.0073593
0.0073593
0.008635
0.0092728
0.018521
0.0095917
0.0092728
0.0079971
0.0092728
0.010548
0.008635
0.0064026
-0.0031647
-0.00029452
0.0079971
0.0099106
0.0073593
0.004808
0.0060837
0.0003433
0.0022568
0.014694
0.004808
-0.00061343
0.0044891
0.00066221
-0.00093234
-0.0041214
0.0076782
-0.0012513
0.0019378
0.0038513
0.01023
0.008316
0.0073593
0.016608
0.017564
0.02777
0.03064
0.025218
0.022029
0.02458
0.026494
0.02777
0.028407
0.026175
0.016608
0.031915
0.034467
0.029045
0.020754
0.01884
0.019478
0.023305
0.030959
0.016608
0.01023
0.0064026
0.008635
0.0092728
0.0032135
-0.0076295
-0.023256
-0.021343
-0.009224
-0.0076295
-0.014327
-0.015283
-0.015921
-0.01911
-0.014008
0.0003433
-0.0076295
-0.014008
-0.012413
-0.0098618
-0.0066727
-0.0047593
-0.0069916
-0.013689
0.0019378
0.0044891
0.008316
0.004808
0.00098112
0.0076782
0.011505
0.031915
0.04818
0.047542
0.031278
0.032872
0.038931
0.042439
0.046585
0.044991
0.040845
0.054877
0.053601
0.04818
0.039888
0.026813
0.012462
0.008316
0.021072
0.0054459
0.00098112
-0.0082673
-0.014327
-0.015921
-0.023894
-0.023894
-0.041434
-0.040796
-0.028996
-0.017197
-0.017197
-0.014327
-0.014964
-0.017197
-0.0089051
0.0038513
-0.0079484
-0.009224
-0.0085862
-0.005716
-0.0076295
-0.0085862
-0.020386
-0.02804
-0.01337
-0.017516
-0.017197
-0.0095429
-0.027402
-0.028996
-0.019429
-0.013689
-0.0047593
-0.0098618
-0.017197
-0.016559
-0.016559
-0.01337
-0.0098618
-0.014964
-0.023256
-0.0079484
-0.005716
-0.0095429
-0.0105
-0.009224
-0.0076295
-0.0073105
0.0064026
-0.0038025
-0.0044404
-0.0060349
-0.0015702
-0.00093234
-0.0018891
-0.0031647
-0.0079484
-0.013051
-0.00029452
0.0057648
0.0019378
0.00098112
0.0019378
0.00098112
0.0019378
0.015332
0.0044891
0.0003433
0.0032135
-0.00029452
0.00098112
-0.0015702
-0.0034836
-0.013051
-0.0063538
-0.0031647
-0.00029452
-0.0073105
-0.005716
-0.00029452
0.0022568
0.0057648
0.018202
0.0025757
2.4388e-05
0.011186
0.012143
0.014375
0.020754
0.0089539
-0.00029452
0.014694
0.025537
0.03064
0.031596
0.026813
0.026175
0.030002
0.041164
0.035423
0.034148
0.027132
0.023624
0.023624
0.037337
0.03351
0.014694
0.0057648
0.017883
0.019159
0.0064026
0.0022568
0.0041702
0.0035324
0.0041702
0.0099106
-0.0066727
-0.012094
-0.012094
-0.0069916
-0.011456
-0.016559
-0.021024
-0.03091
-0.018791
-0.017835
-0.017197
-0.024213
-0.020067
-0.015921
-0.01337
-0.010819
-0.0085862
-0.0066727
-0.01337
-0.017516
-0.01911
-0.011775
-0.014008
-0.013051
-0.023256
-0.010181
-0.0089051
-0.014327
-0.014008
-0.015283
-0.015283
-0.01337
-0.00093234
-0.0053971
-0.0085862
-0.0105
-0.0050782
-0.0069916
-0.0066727
-0.0073105
-0.012732
-0.017516
-0.005716
0.00066221
-0.0031647
-0.002208
-0.0034836
-0.0041214
-0.0047593
0.0073593
-0.0034836
-0.0050782
-0.002208
-0.0028458
-0.0034836
-0.0063538
-0.0041214
-0.0082673
-0.0079484
-0.0015702
0.0070404
0.0060837
0.0089539
0.011186
0.010548
0.01884
0.028726
0.020116
0.012143
0.01884
0.014056
0.0070404
0.01597
0.008635
-0.0050782
0.0067215
0.00098112
-0.010181
-0.015602
-0.023575
-0.021024
-0.021343
-0.011775
-0.018791
-0.022618
-0.023575
-0.016559
-0.0095429
-0.005716
-0.0079484
-0.017516
-0.015283
0.0067215
0.017564
0.0060837
0.0070404
0.015332
0.022348
0.030321
0.035742
0.021072
0.020116
0.02777
0.018202
0.023305
0.022029
0.019478
0.01597
0.022029
0.028088
0.032553
0.03064
0.023624
0.021391
0.019478
0.022667
0.029045
0.013419
0.0070404
0.0038513
0.008316
0.01023
-0.0041214
-0.009224
-0.027083
-0.012094
-0.01624
-0.013689
-0.018153
-0.022937
-0.026445
-0.027402
-0.016878
-0.018153
-0.026126
-0.031548
-0.026764
-0.024213
-0.020705
-0.01911
-0.027402
-0.033142
-0.017197
-0.009224
-0.01337
-0.011456
-0.0079484
-0.0044404
-0.005716
0.008316
-0.0031647
-0.0079484
-0.013689
-0.0050782
0.0044891
0.0022568
-0.0082673
-0.015283
-0.0066727
-0.00061343
0.0019378
-0.0053971
-0.0063538
-0.0018891
-0.0025269
0.0035324
0.015013
0.0019378
-0.0089051
-0.0073105
-0.0015702
-0.00029452
-0.0025269
-0.012094
-0.024851
0.0025757
0.0013
-0.0031647
-0.0053971
-0.0050782
-0.0050782
-0.0018891
0.0038513
0.0079971
0.0003433
-0.010181
-0.0047593
-0.0031647
-0.0041214
-0.012094
-0.019748
-0.028359
-0.012413
-0.0095429
-0.01911
-0.016559
-0.015921
-0.021024
-0.014964
0.00098112
-0.010819
-0.01337
-0.0060349
0.0022568
-0.00061343
0.0025757
0.0022568
-0.017197
-0.0098618
0.0057648
0.0070404
0.0095917
0.0025757
-0.0025269
0.0019378
0.0032135
0.013419
0.0131
0.0025757
0.0038513
0.0028946
0.0028946
0.0067215
0.0035324
-0.0044404
0.011824
0.014375
0.028088
0.020754
0.01597
0.028407
0.031278
0.028407
0.032234
0.028407
0.02458
0.022986
0.028726
0.030959
0.02777
0.021391
0.018521
0.023624
0.023624
0.018521
0.010867
0.010548
0.0099106
0.0076782
0.01884
0.0016189
-0.0050782
-0.012094
-0.0066727
-0.018791
-0.028678
-0.030591
-0.035694
-0.038245
-0.038245
-0.039839
-0.044623
-0.043985
-0.043985
-0.044304
-0.042072
-0.026126
-0.036012
-0.038245
-0.029634
-0.021343
-0.028996
-0.023256
-0.020067
-0.025488
-0.005716
-0.005716
0.0025757
0.0025757
0.0038513
0.012143
0.015332
0.026175
0.03064
0.019797
0.0092728
0.012781
0.012143
0.01023
0.008635
0.0019378
-0.013051
-0.0031647
-0.00061343
-0.0044404
-0.01337
-0.01624
-0.0085862
-0.020705
-0.0089051
-0.014327
-0.01624
-0.013689
-0.0053971
-0.0025269
-0.0069916
-0.0085862
-0.019748
-0.014008
-0.0034836
0.0022568
-0.0038025
-0.0038025
-0.0015702
-0.011456
-0.002208
0.022348
0.0095917
0.0041702
0.0089539
0.0057648
0.01023
0.0073593
0.004808
-0.0015702
0.0131
0.0079971
0.0089539
0.0003433
-0.0034836
-0.00093234
-0.0028458
0.0038513
0.010867
-0.012094
-0.01624
-0.0034836
-0.0105
-0.015283
-0.012413
-0.0098618
-0.021343
-0.0018891
2.4388e-05
0.008635
0.0025757
-0.0069916
-0.0012513
-0.0047593
0.0095917
0.0032135
0.0070404
0.0089539
0.010867
0.0057648
0.0019378
0.0025757
-0.011775
-0.012094
0.0035324
0.0044891
-0.00029452
0.0013
-0.00061343
-0.0015702
-0.0038025
0.0057648
-0.0060349
-0.002208
-0.013689
-0.012413
-0.010181
-0.011775
-0.012413
-0.021024
-0.015602
-0.0089051
-0.0041214
-0.014008
-0.0098618
-0.0089051
-0.0050782
0.0025757
0.014694
0.0025757
0.00098112
0.0067215
0.0092728
0.014056
0.012781
0.0095917
-0.00061343
0.016608
0.021391
0.016927
0.0041702
-0.0015702
0.0073593
0.008635
0.014694
0.01023
-0.0012513
0.0038513
0.011505
0.0028946
-0.0034836
0.0038513
-0.012413
-0.0095429
0.004808
0.0092728
0.0035324
-0.00061343
0.0044891
-0.0018891
-0.0028458
0.011186
-0.0031647
-0.010181
-0.013689
-0.0082673
-0.0041214
-0.0076295
-0.020067
-0.028678
-0.019748
-0.015283
-0.0089051
-0.014964
-0.021024
-0.016559
-0.014008
-0.0038025
0.01023
-0.0063538
-0.014645
-0.0079484
-0.0095429
-0.0076295
-0.0050782
-0.0047593
-0.013051
2.4388e-05
0.0064026
0.004808
-0.0063538
-0.0060349
-0.0015702
-0.0038025
0.0131
0.018521
0.016608
0.0067215
0.004808
0.0076782
0.0099106
0.010548
0.0022568
-0.0060349
0.0095917
0.019797
0.011186
0.0041702
-0.0044404
-0.0060349
0.0003433
0.015013
-0.0025269
-0.013689
-0.014964
-0.009224
-0.0089051
-0.010181
-0.0095429
-0.012413
-0.0098618
-0.00061343
0.0025757
-0.0015702
-0.0041214
0.0016189
0.0025757
0.011824
0.027451
0.013738
0.0092728
0.0073593
-0.0028458
-0.0018891
0.0016189
-0.0063538
-0.018153
-0.0041214
-0.005716
-0.0060349
-0.013689
-0.016559
-0.014964
-0.015921
-0.005716
-0.0028458
-0.011775
-0.012413
-0.0085862
-0.010181
-0.0082673
-0.010181
-0.015921
-0.02198
-0.010181
-0.0047593
-0.0098618
-0.012094
-0.01624
-0.01337
-0.016878
-0.0085862
-0.023256
-0.027402
-0.016559
-0.017197
-0.023256
-0.022937
-0.023256
-0.029315
-0.028996
-0.02198
-0.011137
-0.01337
-0.0098618
-0.0038025
-0.0073105
-0.0038025
0.021072
0.01023
0.0013
0.0051269
0.011824
0.0016189
-0.00061343
0.0079971
-0.005716
0.0060837
0.008635
0.0032135
-0.010819
-0.012094
-0.011456
-0.011456
-0.0015702
-0.0025269
-0.014645
-0.017516
-0.014964
-0.013051
-0.0105
-0.005716
-0.012732
-0.018153
0.00098112
0.0035324
-0.0050782
-0.0044404
-0.0085862
0.0003433
0.00098112
0.011824
0.0028946
0.0070404
0.0067215
0.0095917
0.01023
0.0022568
-0.0034836
-0.0079484
-0.00029452
0.0067215
0.012143
0.012781
0.016289
0.010548
0.013738
0.017883
0.022348
0.011824
0.0060837
0.011824
0.012781
0.010867
0.016289
0.017564
0.0003433
0.012781
0.010867
0.0092728
0.0041702
0.0051269
0.015013
0.00098112
0.0089539
0.015651
0.00098112
-0.010181
-0.01624
-0.017197
-0.015283
-0.0098618
-0.020705
-0.031867
-0.018791
-0.010181
-0.017835
-0.023256
-0.0095429
-0.013689
-0.015921
0.0051269
-0.0025269
-0.0041214
-0.0069916
0.0013
0.0003433
0.0013
0.00098112
-0.009224
-0.0089051
-0.0038025
-0.0041214
-0.0076295
-0.00029452
-0.0082673
-0.0089051
0.0028946
0.0044891
-0.0085862
-0.0085862
-0.0031647
0.0054459
0.011186
0.014375
0.011505
-0.0079484
0.0076782
0.014375
0.017564
0.014694
0.013738
0.017246
0.018521
0.017883
0.025218
0.0092728
0.0095917
0.0079971
0.0070404
0.0060837
0.0044891
-0.0028458
-0.0015702
0.010548
0.010548
0.0019378
0.0041702
-0.00061343
-0.0015702
-0.0041214
0.010867
0.0019378
0.0025757
-0.0047593
-0.0028458
-0.0060349
-0.005716
-0.011775
-0.024213
-0.024532
-0.0105
-0.0031647
-0.0079484
-0.012732
-0.012413
-0.015921
-0.012732
-0.009224
-0.012413
-0.015283
-0.021661
-0.012094
-0.011137
-0.010181
-0.014008
-0.013051
-0.010181
-0.016559
-0.00029452
-0.0044404
-0.0050782
0.0028946
0.0022568
0.0131
0.017883
-0.0076295
-0.015921
-0.016878
-0.018472
-0.01911
-0.019429
-0.02804
-0.031867
-0.020705
-0.01911
-0.02198
-0.028996
-0.03378
-0.01624
-0.02804
-0.010181
-0.0063538
-0.0038025
-0.005716
-0.0063538
-0.0044404
0.0076782
0.011824
0.0025757
0.0131
0.025537
0.02458
0.021391
0.027451
0.031278
0.03351
0.032234
0.044991
0.02777
0.030959
0.031278
0.029364
0.020116
0.0131
0.020435
-0.00029452
0.0025757
-0.0025269
-0.00061343
-0.0060349
-0.0085862
-0.0082673
-0.0089051
-0.0066727
0.00098112
-0.012413
-0.020067
-0.015921
-0.017516
-0.019429
-0.020067
-0.017835
-0.02804
-0.01911
-0.01911
-0.017197
-0.020705
-0.025807
-0.020705
-0.019429
-0.0098618
-0.0098618
-0.0085862
-0.0069916
-0.012413
-0.009224
-0.011775
-0.002208
-0.002208
-0.009224
-0.0063538
0.0054459
0.0051269
0.0044891
-0.0098618
-0.0050782
0.0003433
0.008635
-0.0073105
-0.010819
-0.014964
-0.015921
-0.012094
-0.012094
-0.013689
-0.024532
-0.020386
-0.012732
-0.0073105
-0.009224
-0.0089051
-0.0050782
-0.0028458
0.0041702
0.0131
0.0019378
-0.0041214
-0.0012513
-0.00061343
-0.00061343
0.0016189
-0.00061343
-0.011775
0.00098112
2.4388e-05
-0.0028458
-0.005716
-0.0073105
-0.0015702
-0.0050782
0.0019378
-0.0015702
-0.0041214
-0.0073105
-0.0076295
-0.011137
-0.0079484
-0.0073105
-0.020067
-0.026764
-0.014327
-0.0082673
-0.014964
-0.019748
-0.020705
-0.019748
-0.020705
0.0057648
0.0041702
-0.0076295
-0.014327
-0.014964
-0.019429
-0.012413
-0.0044404
-0.012094
-0.00093234
0.0013
0.0032135
-0.0041214
0.0019378
0.0013
0.0013
0.012781
0.019797
0.0095917
0.0067215
0.010548
0.012462
0.011824
0.011824
0.010867
0.0003433
-0.0012513
0.0057648
0.0022568
-0.0079484
-0.0038025
-0.011137
-0.0098618
-0.0034836
-0.012413
-0.01911
-0.027083
-0.024851
-0.024213
-0.026445
-0.023894
-0.029634
-0.038245
-0.026764
-0.021024
-0.02517
-0.02517
-0.019429
-0.01624
-0.015283
-0.0044404
-0.013689
-0.014964
-0.015602
-0.011775
-0.010819
-0.012413
-0.012413
-0.020705
-0.017516
-0.011456
-0.0069916
-0.010819
-0.013689
-0.01337
-0.010181
-0.0044404
0.0067215
-0.002208
-0.010819
-0.0050782
-0.00093234
-0.0015702
-0.00093234
0.00098112
-0.011137
0.0064026
0.011824
0.0054459
0.0089539
0.010548
0.0131
0.014694
0.022029
0.024899
0.018521
0.016289
0.025537
0.026494
0.018202
0.012462
0.0028946
-0.0012513
0.021391
0.021391
0.0092728
0.020754
0.0095917
0.0041702
0.0025757
0.014694
-0.0012513
-0.0066727
-0.0105
-0.0034836
-0.0015702
0.0016189
-0.0015702
-0.019748
-0.030591
-0.022299
-0.012413
-0.020067
-0.022299
-0.020067
-0.01911
-0.017197
-0.0050782
-0.022937
-0.028678
-0.017516
-0.018791
-0.020705
-0.020705
-0.02198
-0.026764
-0.012094
-0.0095429
-0.0095429
-0.012094
-0.009224
-0.010181
-0.0076295
0.0060837
0.010548
2.4388e-05
-0.0050782
0.0025757
-0.0015702
0.0044891
0.0089539
0.00098112
0.00098112
0.014375
0.015013
0.010867
0.014694
0.012781
0.019478
0.020116
0.026175
0.0079971
0.011824
0.017564
0.0038513
-0.0082673
-0.0089051
-0.012413
-0.020386
-0.026764
-0.022299
-0.019748
-0.032504
-0.037607
-0.032504
-0.031867
-0.023894
-0.017516
-0.031548
-0.037926
-0.030591
-0.026445
-0.021343
-0.022618
-0.020386
-0.029315
-0.023575
-0.023256
-0.0105
-0.026126
-0.024851
-0.020386
-0.016878
-0.010819
-0.0076295
-0.01911
-0.023894
-0.018791
-0.020386
-0.020705
-0.019429
-0.02517
-0.031229
-0.019429
-0.014645
-0.017197
-0.018153
-0.019429
-0.017197
-0.017197
-0.0038025
-0.014645
-0.015921
-0.017835
-0.014645
-0.014327
-0.015602
-0.014008
-0.020386
-0.021024
-0.012413
-0.0066727
-0.011137
-0.0098618
-0.0063538
-0.0063538
-0.0041214
0.0060837
-0.0041214
-0.0089051
-0.0041214
-0.0028458
-0.0028458
-0.0028458
-0.0031647
-0.012732
-0.0038025
-0.0015702
-0.0018891
-0.0050782
-0.0038025
-0.0012513
-0.0031647
0.00098112
0.0051269
0.00098112
-0.0076295
-0.0105
-0.01624
-0.013051
-0.015283
-0.01624
-0.026126
-0.0063538
-0.0060349
-0.0085862
-0.01911
-0.017197
-0.0082673
-0.0060349
0.0051269
-0.0031647
-0.0034836
-0.00029452
0.0003433
-0.00029452
-0.0012513
-0.00093234
-0.0076295
-0.0098618
0.0019378
0.0060837
0.0076782
0.008316
0.0070404
0.0076782
0.010548
0.023305
0.010548
0.0073593
0.008635
0.011824
0.013738
0.0095917
0.0057648
-0.0028458
0.0032135
0.00098112
0.0076782
0.0041702
0.0079971
0.010548
0.0060837
0.0099106
0.018521
0.0079971
0.004808
0.0089539
0.011505
0.0099106
0.0022568
-0.013051
-0.019429
-0.0015702
-0.0060349
-0.01337
-0.024851
-0.024851
-0.026764
-0.03091
-0.021343
-0.028996
-0.035694
-0.040477
-0.036969
-0.035375
-0.034418
-0.036331
-0.043028
-0.044304
-0.03091
-0.027721
-0.027721
-0.027083
-0.024851
-0.024532
-0.022937
-0.0085862
-0.017835
-0.018153
-0.013051
-0.014327
-0.015921
-0.011456
-0.009224
-0.016878
0.0028946
0.0051269
0.008635
0.0054459
0.0019378
0.010867
0.014694
0.019797
0.038612
0.027132
0.02171
0.02777
0.0131
0.020116
0.019797
0.0067215
-0.01911
0.00098112
0.0044891
0.0016189
-0.012732
-0.022937
-0.017835
-0.022618
-0.016559
-0.01911
-0.028359
-0.027721
-0.020705
-0.017835
-0.020386
-0.019748
-0.025488
-0.02517
-0.0079484
-0.0053971
-0.01337
-0.0098618
-0.0018891
-0.00061343
-0.0076295
0.00098112
-0.0095429
-0.011456
-0.012413
-0.0095429
-0.014327
-0.016559
-0.0076295
-0.017516
-0.013689
-0.012732
-0.011456
-0.017197
-0.014008
-0.0095429
-0.0105
-0.011775
-0.0028458
-0.0076295
-0.013689
-0.013689
-0.014964
-0.018791
-0.021343
-0.022618
-0.031229
-0.015283
-0.015602
-0.017835
-0.022937
-0.018472
-0.012413
-0.016878
-0.0053971
-0.0105
-0.015602
-0.0098618
-0.0060349
-0.0095429
-0.0085862
-0.0095429
-0.012413
-0.018791
-0.0034836
0.0022568
-0.0031647
-0.0069916
-0.0082673
-0.012094
-0.0047593
0.0067215
-0.0082673
-0.011456
-0.0105
-0.0085862
-0.013051
-0.012413
-0.013051
-0.018791
-0.01337
-0.010819
-0.0079484
-0.009224
-0.009224
-0.009224
-0.0063538
-0.0015702
0.0099106
-0.00093234
-0.0034836
0.0032135
-0.0041214
0.0032135
0.0013
0.012781
0.00098112
0.012781
0.017564
0.020754
0.018521
0.0095917
0.019478
0.021391
0.028726
0.029045
0.010867
-0.0073105
-0.002208
0.0022568
-0.0044404
-0.011775
-0.022618
-0.033461
-0.021024
-0.019429
-0.024213
-0.027721
-0.025807
-0.027083
-0.024851
-0.014645
-0.026445
-0.016878
-0.014645
-0.01337
-0.011775
-0.015921
-0.014964
-0.024532
-0.01911
-0.012732
-0.0095429
-0.0066727
-0.0085862
-0.0066727
-0.011137
-0.011775
0.00098112
-0.0089051
-0.01337
-0.012413
-0.011775
-0.014964
-0.015283
-0.014327
-0.029953
-0.015921
-0.021024
-0.019429
-0.025488
-0.023575
-0.021024
-0.020705
-0.009224
-0.0095429
-0.014964
-0.017516
-0.0105
-0.0079484
-0.0095429
-0.011456
-0.018791
-0.016559
0.0019378
0.0022568
-0.00061343
-0.00061343
-0.0028458
-0.0063538
-0.009224
0.0051269
-0.0060349
-0.0079484
-0.0082673
-0.0034836
-0.005716
-0.0069916
-0.0044404
-0.009224
-0.0085862
0.00066221
0.008635
0.00066221
-0.002208
0.0003433
0.0057648
0.010867
0.017564
0.0032135
-0.0041214
0.00098112
-0.00061343
-0.0031647
-0.0060349
-0.010181
-0.022299
-0.010819
-0.0098618
-0.0050782
-0.0063538
-0.0095429
-0.0063538
-0.0015702
0.0032135
0.0089539
-0.00029452
-0.0015702
-0.0028458
-0.002208
0.0022568
0.0028946
-0.0060349
-0.017516
-0.0047593
-0.0012513
-0.0015702
-0.0095429
-0.01337
-0.0047593
-0.0041214
0.0016189
-0.009224
-0.012732
-0.010819
-0.011775
-0.0098618
-0.011775
-0.018153
-0.028996
-0.03091
-0.018791
-0.015921
-0.023575
-0.022937
-0.021024
-0.026445
-0.018153
-0.0044404
-0.016559
-0.016878
-0.014008
-0.0095429
-0.0069916
-0.0079484
-0.0050782
-0.013051
0.00098112
0.00066221
0.00098112
-0.0079484
-0.0060349
-0.0053971
-0.005716
0.0019378
0.0060837
-0.002208
-0.014008
-0.012413
-0.012732
-0.010819
-0.0079484
-0.0105
-0.019429
-0.0066727
-0.0015702
-0.0034836
-0.0028458
-0.0044404
0.004808
0.0092728
0.025856
0.015651
0.0054459
0.0022568
0.013419
0.015651
0.012462
0.011186
0.0022568
-0.0050782
0.0016189
0.008635
-0.0053971
-0.0082673
-0.0044404
-0.002208
0.0003433
0.012462
-0.011137
-0.017835
-0.00061343
-0.0038025
-0.0018891
-0.0047593
-0.0038025
-0.025488
-0.012413
-0.0069916
-0.009224
-0.022618
-0.018791
-0.0089051
-0.012732
0.00098112
-0.0047593
-0.031548
-0.032504
-0.02517
-0.023894
-0.021024
-0.019748
-0.025807
-0.041753
-0.021024
-0.015921
-0.019429
-0.028359
-0.028678
-0.022618
-0.023575
0.0013
-0.0018891
-0.0076295
-0.0034836
-0.00093234
-0.0063538
-0.0066727
-0.0041214
-0.00093234
2.4388e-05
0.0099106
0.01597
0.008316
0.024262
0.022348
0.010867
0.012143
0.022348
0.0076782
0.0054459
0.0067215
0.010867
0.021072
0.024262
0.021072
-0.002208
-0.0034836
-0.0028458
0.00098112
-0.0031647
0.0035324
0.0016189
0.0032135
0.0038513
0.01023
0.0054459
-0.0031647
-0.0031647
-0.0060349
-0.0012513
-0.0034836
-0.0047593
-0.015283
-0.0066727
-0.011456
0.00098112
0.0016189
-0.0034836
0.012143
0.0070404
0.010548
0.0060837
0.020435
0.0067215
0.008316
0.030959
0.030321
0.030959
0.0019378
-0.0063538
0.012143
0.025218
0.0095917
0.0076782
0.0067215
-0.005716
-0.00061343
0.0041702
-0.011775
-0.0038025
0.014694
0.013419
0.021391
0.015651
0.022029
0.0076782
0.0131
0.030959
0.045947
0.028088
0.019797
0.028726
-0.0069916
-0.0047593
0.013738
-0.012732
-0.044942
-0.038883
-0.060569
-0.067903
-0.056742
-0.078109
-0.087995
-0.081298
-0.090227
-0.084168
-0.075557
-0.064077
-0.066947
-0.068222
-0.040158
-0.029953
-0.0028458
-0.017197
-0.027083
-0.014964
-0.016878
0.00066221
-0.0069916
-0.020067
0.0099106
0.0022568
-0.0069916
0.038612
0.043077
0.021391
0.011505
0.029364
0.035104
0.040207
0.049137
0.061574
0.046585
0.043715
0.035423
0.031915
0.03638
0.05105
0.049455
0.022348
-0.0073105
-0.0038025
-0.01337
-0.038883
-0.04558
-0.052596
-0.055466
-0.036969
-0.011456
-0.0018891
-0.0089051
-0.021343
-0.040158
-0.010819
-0.011456
0.0067215
0.018202
0.019159
0.018202
0.017564
0.029683
0.037656
0.015332
-0.032823
-0.029953
-0.045261
-0.061206
-0.051001
-0.070774
-0.083211
-0.060569
-0.058655
-0.058336
-0.058974
-0.069498
-0.10777
-0.090227
-0.056742
-0.06025
-0.052596
-0.031229
-0.041115
-0.037926
-0.046218
-0.064714
-0.075876
-0.077152
-0.059612
-0.079703
-0.11159
-0.10394
-0.095968
-0.071411
-0.10235
-0.0982
-0.13774
-0.1218
-0.1269
-0.12403
-0.11415
-0.08927
-0.070136
-0.07173
-0.069179
-0.026126
-0.009224
-0.0073105
-0.012732
-0.023894
-0.0069916
0.0013
-0.00061343
-0.0050782
0.008635
-0.015921
-0.029315
-0.040477
-0.040158
-0.034099
-0.0095429
-0.020705
-0.013689
-0.019429
0.015013
-0.0098618
0.0092728
0.01597
0.0064026
-0.023575
-0.0031647
-0.028996
-0.059612
-0.028996
-0.026445
-0.070774
-0.099157
-0.10617
-0.10872
-0.1033
-0.10777
-0.10777
-0.08353
-0.056104
-0.028359
0.0003433
0.0044891
0.011505
0.028726
0.016289
0.010867
0.03351
0.067314
0.041483
0.034148
0.012781
0.010548
-0.017197
-0.0031647
0.019478
-0.005716
0.008635
-0.094054
-0.11861
-0.10522
-0.10266
-0.072687
-0.062482
-0.087357
-0.11733
-0.069498
-0.056104
-0.043985
-0.035694
-0.019748
-0.053552
-0.028359
-0.04845
0.010867
-0.0034836
-0.01911
0.020116
-0.018472
-0.014645
-0.0095429
-0.027721
-0.0073105
-0.053234
-0.016878
-0.046218
-0.098838
-0.097562
-0.051958
-0.029953
-0.036012
-0.027083
-0.037288
-0.043985
-0.024851
-0.059612
-0.046218
-0.025488
-0.0105
-0.032186
-0.029953
0.020116
0.010548
0.024899
0.066995
0.091233
0.10303
0.089319
0.10718
0.11101
0.098886
0.076882
0.075925
0.11611
0.11993
0.08613
0.045629
0.02777
0.033829
0.019159
-0.018153
0.0073593
-0.044942
-0.029634
-0.051639
-0.074282
-0.10522
-0.11893
-0.10043
-0.045261
-0.030591
-0.061844
-0.094054
-0.06599
-0.037288
-0.009224
0.008635
-0.012094
-0.055466
-0.040158
0.032553
0.069228
0.069228
-0.00093234
-0.022299
0.0013
-0.0044404
0.029683
0.035423
-0.0085862
-0.01337
-0.009224
-0.020705
0.0016189
-0.0012513
0.020435
0.064763
0.079114
0.065401
-0.01337
-0.04271
-0.0050782
2.4388e-05
-0.0076295
0.0044891
-0.014327
0.0013
-0.010181
0.0131
-0.028359
-0.046855
-0.16071
-0.17155
-0.11925
-0.094054
-0.10745
-0.10522
-0.10107
-0.14125
-0.14349
-0.076195
-0.071093
-0.072687
-0.11415
-0.068222
-0.04558
0.008635
-0.0034836
0.0099106
0.062531
0.11292
0.093784
0.088044
0.077838
0.064763
0.056153
0.066677
0.066677
0.079114
0.077201
0.083579
0.081665
0.013738
0.034467
0.029045
0.084536
0.096016
0.056471
0.067952
0.037975
0.0022568
0.023305
0.03064
0.048818
0.044672
0.004808
0.022986
0.058066
0.044672
-0.066947
-0.08353
-0.066309
-0.057379
-0.057698
-0.034737
-0.058336
-0.10617
-0.11128
-0.11096
-0.10362
-0.17219
-0.15592
-0.10266
-0.11191
-0.12307
-0.06599
-0.043985
-0.033461
-0.038245
-0.045261
-0.035056
0.11675
0.15438
0.054239
0.061574
0.12599
0.0032135
0.026175
0.070822
0.061255
0.069866
0.051369
0.024262
0.065401
0.037018
0.013738
-0.037926
0.013419
0.020435
0.0131
0.049455
0.050731
0.058385
0.038612
0.041483
0.047223
0.028407
0.048499
0.040526
0.029683
0.0054459
0.02171
-0.021661
-0.014645
0.014694
-0.05132
-0.085762
-0.082254
-0.084168
-0.082573
-0.050682
-0.037926
-0.072049
-0.065352
-0.033142
0.004808
-0.038883
-0.065352
-0.045261
-0.0047593
0.0057648
0.032553
0.029045
0.07433
0.045629
0.12567
0.10654
0.070185
0.093784
0.08039
0.044353
0.072098
0.081665
0.081346
0.065401
0.069866
0.074649
0.075925
0.034467
0.0079971
-0.015602
-0.021343
-0.01911
-0.10585
-0.13647
-0.16358
-0.16166
-0.14253
-0.15688
-0.11733
-0.10617
-0.072368
-0.12945
-0.13615
-0.15656
-0.19834
-0.15018
-0.033142
0.0038513
0.012143
0.035742
0.0060837
0.041483
0.044353
0.014056
0.0070404
0.02777
0.060617
0.034148
0.0032135
0.01597
0.0131
-0.0076295
0.0057648
0.02171
0.020754
-0.0015702
-0.021661
-0.015283
-0.032186
-0.0053971
0.017883
0.055515
0.04818
0.037656
0.039569
0.03638
0.067952
0.05105
0.068271
0.036699
0.047861
0.041802
0.037018
0.041483
0.070503
-0.026445
-0.055147
-0.040477
-0.00029452
-0.044623
-0.057379
-0.06312
-0.057379
-0.013689
-0.054509
-0.1049
-0.11128
-0.12084
-0.053552
-0.067585
-0.048769
-0.0044404
-0.0076295
0.0022568
0.023624
-0.015921
0.013419
0.075287
0.051688
0.058385
0.051688
0.05679
0.076563
0.044034
0.050412
0.066995
0.10686
0.1413
0.086768
0.024262
0.013419
0.0022568
-0.022299
0.077838
0.060617
0.042439
0.023305
-0.018472
0.019159
-0.036969
-0.065033
-0.11797
-0.12084
-0.08927
-0.11223
-0.10362
-0.13041
-0.10266
-0.090865
-0.16804
-0.1674
-0.10139
-0.074601
-0.074601
-0.034418
-0.015283
-0.023575
-0.054509
-0.080022
-0.075876
-0.07779
-0.034737
-0.009224
0.0038513
0.04818
0.028726
-0.04271
-0.066947
-0.057379
-0.029953
0.047542
0.0016189
0.029045
0.040526
0.04818
0.037656
0.01884
-0.0073105
-0.023894
-0.011775
-0.028678
-0.034418
-0.0044404
-0.015283
0.0051269
-0.011775
0.016608
0.0092728
-0.091503
-0.084806
-0.030591
-0.041434
-0.023894
0.030959
0.030959
0.015651
0.055834
0.060617
0.045629
0.031596
0.026494
0.010548
0.0041702
0.10048
0.10271
0.081028
0.037975
-0.010181
0.034786
0.012462
-0.075557
-0.042072
-0.038883
-0.053234
0.0067215
-0.032186
-0.040158
-0.043028
-0.028678
-0.041434
-0.03091
-0.074282
0.042758
0.063487
0.022348
-0.033461
-0.064714
-0.089908
-0.046536
-0.054828
-0.073006
-0.082892
-0.065033
-0.072368
-0.12435
-0.13009
-0.089589
-0.096924
-0.11319
-0.080979
-0.066309
-0.066628
-0.087995
-0.092778
-0.061844
-0.039839
-0.045261
-0.079065
-0.073644
-0.063758
-0.07173
-0.094054
-0.11319
-0.066309
-0.046218
-0.045899
0.0013
0.013419
-0.069817
-0.071411
-0.043028
0.029683
0.10048
0.060617
0.068271
0.012462
0.031278
-0.023575
-0.015921
0.049455
0.034148
0.041483
0.02777
-0.034099
-0.050682
-0.045261
-0.030272
-0.047812
-0.072049
-0.08066
-0.04271
-0.0095429
-0.0085862
-0.0041214
-0.0044404
0.014694
-0.00029452
-0.01624
-0.0041214
0.04531
0.037656
0.03064
0.023305
0.024899
0.03638
-0.010181
0.069228
0.051688
0.02777
0.0028946
-0.0050782
0.0044891
0.012143
0.059023
0.029045
-0.025807
-0.071093
-0.068222
-0.051639
-0.047493
-0.019429
-0.055466
-0.089589
-0.062801
-0.13711
-0.18686
-0.12435
-0.12945
-0.10872
-0.070774
-0.095649
-0.11765
-0.14827
-0.091503
-0.13328
-0.11702
-0.10203
-0.087357
-0.047493
-0.090865
-0.079703
-0.0095429
-0.0079484
-0.015283
-0.00061343
-0.01337
-0.0031647
0.031915
-0.013051
0.0032135
-0.021343
0.0079971
-0.053234
-0.012413
0.0079971
0.0064026
-0.06886
-0.064077
-0.043347
-0.031867
0.013738
0.048818
0.024262
-0.01911
0.048499
-0.0053971
0.043396
0.076882
0.088362
0.092827
0.074968
0.040845
-0.051958
-0.038883
0.0095917
0.037337
0.03351
0.016927
-0.052596
-0.089908
-0.039202
-0.04845
0.0076782
0.0089539
-0.055785
-0.047812
-0.023256
-0.078427
-0.057379
-0.076195
-0.073963
-0.099476
-0.089589
-0.072049
-0.067585
-0.11032
-0.12371
-0.041115
-0.020067
-0.0105
-0.044304
-0.018791
-0.017516
-0.028996
0.0016189
0.06285
0.075925
0.10813
0.058066
0.0041702
0.0131
0.015013
0.011505
-0.0098618
0.0054459
-0.043028
-0.037288
-0.044304
-0.074601
-0.082573
-0.075557
-0.097243
-0.12722
-0.12977
-0.11542
-0.10841
-0.11702
-0.17155
-0.21779
-0.20025
-0.12499
-0.097562
-0.059293
-0.16613
-0.12563
-0.10713
-0.088633
-0.055147
-0.014008
-0.022618
-0.01624
-0.028678
-0.024532
0.0041702
0.0028946
-0.0095429
-0.0025269
0.03638
0.019478
0.038612
0.037975
0.015013
-0.0053971
-0.0069916
0.044034
0.10048
0.090276
0.052963
0.050731
0.06859
0.082622
0.046904
0.022667
0.063487
0.090914
0.066677
0.083898
0.090276
0.032553
0.03351
0.081028
0.098568
0.024262
-0.010819
-0.015921
-0.014645
0.027451
0.0032135
0.046904
0.022029
-0.069179
-0.075557
-0.0085862
-0.034737
-0.014645
-0.058655
-0.070774
-0.079703
-0.048769
-0.050682
-0.13137
-0.065033
-0.086719
-0.09246
-0.10298
-0.13743
-0.16198
-0.1572
-0.16804
-0.17633
-0.13137
-0.093416
-0.095649
-0.063758
-0.075238
-0.086081
-0.054828
-0.0082673
-0.011775
-0.0085862
0.049137
0.040207
-0.01624
0.030002
0.03925
0.0013
-0.01624
0.031915
0.038294
0.044991
-0.03378
-0.038883
0.011824
-0.0050782
0.0044891
-0.0050782
0.0067215
0.010867
0.023624
-0.040158
-0.014645
0.0131
0.03925
0.047861
0.022667
0.050093
-0.0085862
0.011186
0.0067215
0.0073593
0.035104
0.0038513
-0.011775
-0.03952
0.0022568
-0.031229
-0.053871
0.039888
0.017246
0.0035324
-0.021343
-0.050363
-0.021024
-0.021661
0.008635
0.069547
0.026813
-0.030591
0.008635
0.03638
0.0070404
0.061893
0.01884
0.030002
0.059342
-0.010181
0.013738
0.012143
0.0057648
-0.045899
-0.00029452
-0.083849
-0.083211
-0.047812
-0.075557
-0.032504
-0.062163
-0.068222
-0.073963
-0.080979
-0.074282
-0.070455
-0.092141
-0.065352
-0.015602
0.0057648
0.03925
0.03351
-0.0095429
-0.0085862
0.039888
0.066039
0.056471
-0.0038025
-0.044623
-0.039839
-0.031229
-0.017197
-0.045899
-0.072049
-0.0864
-0.098519
-0.096605
-0.088952
-0.098519
-0.11574
-0.12339
-0.055785
-0.039839
-0.036331
0.0089539
0.066039
0.042439
0.080071
0.093146
0.16012
0.16841
0.10526
0.082941
0.10973
0.17
0.17542
0.14864
0.15597
0.10271
0.098568
0.052963
0.069866
0.069547
0.033829
-0.0089051
0.0089539
0.056153
0.030321
-0.026126
-0.02198
-0.056742
0.0089539
-0.014327
-0.047812
-0.075876
-0.035056
0.0064026
-0.028678
-0.022618
-0.015602
-0.054509
-0.087357
-0.10107
-0.11638
-0.08353
-0.051001
-0.078427
-0.098838
-0.15082
-0.13519
-0.12786
-0.10203
-0.087038
-0.06886
0.019478
0.067633
0.087406
0.10813
0.18085
0.18882
0.20572
0.18818
0.18754
0.19552
0.19169
0.23219
0.18244
0.16681
0.13556
0.097292
0.028088
-0.06886
-0.087676
-0.075238
-0.10681
-0.1521
-0.13232
-0.15975
-0.1556
-0.1269
-0.087357
-0.087676
-0.068222
-0.071411
-0.048131
-0.045899
-0.0089051
-0.0025269
0.043396
0.036061
0.023943
0.028407
0.058385
0.0067215
-0.027402
-0.02517
-0.011456
-0.015921
-0.033461
-0.073644
-0.080341
-0.018791
0.0079971
0.0044891
0.012781
0.017246
0.073055
0.032872
0.079114
0.11451
0.058066
0.092827
0.16841
0.097611
0.12185
0.061255
-0.022937
0.013419
0.089638
0.014375
-0.033461
-0.070455
-0.061844
-0.0047593
0.03925
0.00098112
0.008316
-0.0085862
0.015651
0.029364
0.0079971
-0.027721
-0.018791
-0.0044404
0.0131
0.011505
-0.016878
-0.071093
-0.072368
-0.067903
-0.11446
-0.13296
-0.14476
-0.16517
-0.16453
-0.10617
-0.047174
-0.063758
-0.090227
-0.10553
-0.1033
-0.036012
-0.03952
-0.012094
0.018202
0.063487
0.040207
0.028088
0.028407
0.016927
0.017564
0.051688
0.10941
0.12918
0.13173
0.15087
0.1075
0.16554
0.17
0.11005
0.083898
0.066995
0.041483
0.074649
0.10112
0.15119
0.19137
0.084854
0.10431
0.091233
0.059023
0.012462
-0.049407
0.0092728
-0.028678
0.031915
0.10048
0.059661
0.025856
-0.03378
-0.069817
-0.0095429
-0.033461
0.020754
-0.015602
-0.074919
-0.047812
-0.038245
-0.04845
-0.044942
-0.034418
0.0038513
-0.05132
-0.058336
-0.047493
-0.075876
-0.10394
-0.10968
-0.096286
-0.10107
-0.092141
-0.10011
-0.091184
-0.088952
-0.037288
-0.052915
-0.11415
-0.11797
-0.10745
-0.11191
-0.064395
-0.068222
-0.021343
-0.032504
-0.0031647
0.025537
0.0079971
0.0067215
0.032234
0.078157
0.12185
0.1177
0.13652
0.16586
0.22262
0.17
0.17606
0.22709
0.21274
0.18818
0.14417
0.20604
0.1952
0.20732
0.22805
0.089638
0.022029
0.030002
0.017246
0.019478
0.042439
0.023305
-0.066947
-0.06312
-0.044623
-0.069179
-0.10872
-0.12595
-0.11702
-0.091822
-0.1033
-0.082573
-0.12084
-0.099157
-0.099476
-0.10841
-0.13583
-0.11765
-0.061206
-0.084487
-0.06025
-0.08066
-0.10777
-0.09246
-0.075557
-0.0066727
0.021072
0.03064
-0.01337
0.019478
0.051688
0.030321
0.022667
0.03638
0.074012
0.079114
0.082622
0.077838
0.06285
0.008316
0.017883
0.026494
0.020754
-0.028996
-0.014645
0.0054459
-0.020386
-0.046855
0.0019378
-0.00093234
-0.024213
-0.0069916
0.016927
-0.014645
0.018202
-0.0044404
0.0019378
0.03064
0.083579
0.022986
0.058385
0.025537
0.010548
0.01023
0.13811
0.15406
0.11228
0.089319
0.077838
0.084536
0.024899
0.038294
0.056153
0.052963
0.074012
0.08326
0.06859
0.029364
0.016927
-0.011775
-0.017516
0.0044891
0.019478
-0.031548
-0.01337
-0.0038025
0.016608
0.0019378
-0.035694
0.011824
0.042121
0.045947
0.037337
0.0054459
-0.043985
-0.087038
-0.068541
-0.1269
-0.075557
-0.024532
-0.048769
-0.091503
-0.11733
-0.10458
-0.10394
-0.12626
-0.11925
-0.12307
-0.0982
-0.079703
-0.072368
-0.084487
-0.10266
-0.04558
-0.024532
-0.0089051
-0.022299
-0.0047593
0.0070404
0.044353
0.03351
0.058385
0.069547
0.046904
0.077838
0.075287
0.05392
0.14832
0.084854
0.030959
0.012143
-0.019429
-0.01337
0.048499
0.044034
0.023624
-0.027083
-0.053234
-0.049726
-0.036331
-0.040477
-0.014008
0.041164
0.062212
0.059023
0.037018
0.016927
0.030002
0.034467
0.023624
-0.0050782
0.0073593
0.091552
0.097292
0.072098
0.098249
0.00066221
0.01597
0.069547
0.097292
0.13301
0.07146
0.023305
0.069228
0.064125
0.028407
0.023943
0.047542
0.078795
0.034786
-0.018472
-0.029315
-0.072049
-0.088633
-0.074919
-0.058017
-0.091503
-0.083849
-0.090865
-0.10522
-0.08066
-0.070774
-0.069817
-0.044942
-0.036331
-0.056104
-0.050682
-0.050044
-0.016878
-0.026445
-0.024851
-0.01337
-0.011775
0.035423
0.024899
-0.012094
-0.014964
-0.023575
-0.021343
0.013419
-0.0050782
0.0073593
-0.027402
-0.01337
0.0060837
-0.049407
-0.01337
0.008635
0.0095917
-0.030591
0.022348
0.0060837
-0.0028458
0.017883
0.075287
0.097611
0.12823
0.15055
0.20158
0.19296
0.20285
0.10813
0.13142
0.18691
0.13429
0.19839
0.13269
0.089638
0.11611
0.066358
0.061893
0.0016189
-0.033461
-0.066947
-0.10522
-0.093097
-0.06312
-0.079384
-0.065352
-0.086719
-0.12913
-0.11574
-0.073644
-0.11159
-0.11478
-0.11
-0.10394
-0.10107
-0.07173
-0.064395
-0.078427
-0.048131
-0.062163
-0.068541
-0.024213
-0.029953
-0.033142
0.036699
0.059979
0.02777
-0.0069916
0.01884
0.018521
0.0092728
0.021391
0.019159
0.016608
0.0079971
0.029683
0.023624
0.022029
0.013738
-0.01337
-0.028678
-0.01624
0.0079971
-0.0028458
-0.0034836
0.00098112
0.012462
0.016608
0.042758
0.079114
0.024262
-0.0063538
0.043077
0.069866
0.12249
0.070503
0.11164
0.14672
0.27205
0.21656
0.13875
0.12408
0.095378
0.15852
0.148
0.12759
0.15661
0.08326
0.09506
0.037656
0.029045
0.022029
-0.030591
-0.021343
-0.024851
-0.053552
-0.075876
-0.11064
-0.096286
-0.06886
-0.044304
-0.04271
-0.063439
-0.072368
-0.080979
-0.071093
-0.064714
-0.035694
-0.059612
-0.060569
-0.021343
-0.03952
-0.032186
-0.044304
-0.028359
-0.048131
-0.04271
-0.026445
-0.041434
-0.025807
-0.046218
-0.036969
-0.03952
-0.029634
-0.040158
-0.020386
0.023305
0.01884
0.021072
0.030002
0.052645
0.064444
0.073055
0.028726
0.054239
0.075606
0.069547
0.036061
0.052326
0.06285
0.049137
0.052007
0.053601
0.041483
0.046585
0.081665
0.085492
0.097611
0.097292
0.076882
0.1598
0.13843
0.12312
0.16777
0.094741
0.096016
0.12727
0.12121
0.11738
0.071141
0.028088
0.029045
0.014375
0.004808
-0.023894
-0.034418
-0.066628
-0.08353
-0.06886
-0.067266
-0.054509
-0.022299
-0.02198
-0.025488
-0.01624
-0.014008
0.032553
-0.0015702
0.013738
0.043715
0.067952
0.045629
-0.005716
0.019159
0.050412
0.0095917
-0.0015702
-0.016878
-0.018153
-0.016559
-0.015283
-0.032823
-0.029634
-0.021661
-0.017197
0.026813
0.017564
0.052963
0.064763
0.044672
0.063169
0.044991
0.061893
0.098568
0.076882
0.073374
0.07433
0.073693
0.054558
0.072098
0.037018
0.03351
0.057109
0.080709
0.093465
0.041483
0.029045
0.029683
0.072736
0.012143
-0.0053971
0.044672
0.039888
0.071141
0.026494
-0.011775
0.008635
0.011505
0.020116
0.033191
-0.024851
0.016289
0.029364
0.022667
0.034148
0.069866
0.03351
0.037337
0.081346
0.068909
0.050412
0.027132
-0.0012513
0.035104
0.080709
0.092508
0.087406
0.042121
-0.013689
0.012781
0.014694
-0.0012513
0.0016189
0.012781
-0.0034836
0.0131
0.066995
0.031278
0.017246
0.0092728
0.0003433
0.020754
-0.0012513
0.016927
0.016608
0.058704
0.022667
0.037975
0.064125
0.0092728
0.024262
0.031915
0.0054459
-0.012094
0.013419
-0.031548
0.019797
-0.005716
-0.033142
-0.0066727
-0.014645
-0.025488
-0.0066727
0.0092728
0.020116
0.0054459
0.02458
-0.00061343
0.028726
0.040207
0.05105
0.07146
0.068271
0.091233
0.043077
0.11037
0.092508
0.077201
0.06572
0.089
0.12631
0.11037
0.11132
0.12185
0.11579
0.092189
0.061574
0.063487
0.060617
0.089
0.050412
0.046585
0.061893
0.012781
-0.019748
0.0067215
-0.044304
-0.067585
-0.10649
-0.099476
-0.067903
-0.017197
-0.012094
-0.026764
-0.05419
-0.052277
-0.024532
0.0089539
-0.015283
0.014694
-0.010819
-0.0018891
0.062212
0.035104
0.026813
0.082941
0.071779
0.034786
0.044034
0.062531
0.071141
0.061255
0.071779
0.11802
0.13843
0.13429
0.12759
0.13205
0.17064
0.17319
0.087087
0.057109
0.11515
0.14449
0.13556
0.11547
0.053601
0.010867
0.053282
0.059023
0.041164
0.043077
0.079114
0.030959
0.024262
0.033191
0.043077
0.042439
0.016608
-0.028678
-0.035375
0.023305
0.024262
0.029364
0.011505
-0.012413
-0.037607
-0.042391
-0.03665
-0.017197
0.0003433
-0.0031647
-0.029315
0.01023
0.070185
0.031915
0.045629
0.038931
0.00066221
0.031915
0.024899
0.053601
0.10016
0.07433
0.019478
0.04531
0.032872
0.017246
0.046585
0.024899
-0.0018891
0.0060837
0.01023
0.024262
-0.0041214
0.0095917
-0.0015702
-0.036331
-0.02517
0.045947
0.046266
0.0057648
0.035104
0.074649
0.055834
0.094741
0.068271
0.091233
0.063169
0.07433
0.091233
0.052326
0.017246
0.11579
0.10813
0.10271
0.13205
0.14704
0.11292
0.1059
0.08613
0.046585
0.080071
0.14353
0.088044
0.052007
0.06859
0.018202
0.023943
0.017246
0.040207
0.0028946
0.0099106
-0.022299
-0.055147
-0.075238
-0.043347
-0.04845
-0.058336
-0.082892
-0.012094
0.03351
-0.034737
-0.097881
-0.077471
-0.046855
-0.046855
-0.056104
-0.076195
-0.074601
-0.074601
-0.066628
-0.059612
-0.090227
-0.053234
-0.017835
-0.056423
-0.030591
-0.03665
-0.050363
-0.073006
-0.053234
-0.021024
-0.03665
-0.023256
0.033829
0.018202
-0.00061343
0.0022568
0.046585
0.05392
0.026813
0.046585
0.062212
0.09793
0.091233
0.10782
0.13333
0.14098
0.16331
0.21338
0.17255
0.13046
0.14481
0.17925
0.18722
0.2341
0.15087
0.10335
0.10495
0.11866
0.12217
0.1346
0.074968
0.055515
0.011824
0.082941
0.08039
0.031596
0.051369
-0.020705
0.0022568
-0.00029452
-0.032504
-0.052277
-0.010819
-0.043985
-0.048769
-0.079703
-0.064714
-0.08353
-0.11096
-0.097562
-0.099157
-0.08927
-0.048769
-0.030591
-0.06599
-0.037288
-0.028996
-0.017516
-0.041434
-0.06599
-0.092778
-0.088633
-0.062163
-0.049407
-0.049088
-0.07173
-0.063758
-0.080979
-0.087995
-0.093735
-0.065352
-0.078427
-0.058974
-0.064714
-0.062482
-0.071093
-0.063758
-0.066947
-0.047174
-0.030591
-0.012413
-0.020705
0.0022568
0.015332
0.020116
0.089
0.15374
0.13492
0.17479
0.21529
0.25196
0.26057
0.2306
0.22741
0.2424
0.23092
0.29087
0.24495
0.18404
0.20413
0.14991
0.07752
0.047542
0.02171
0.017564
0.0035324
-0.038245
-0.11415
-0.15847
-0.11829
-0.10681
-0.15018
-0.13902
-0.15018
-0.18973
-0.15624
-0.13711
-0.091184
-0.090227
-0.11032
-0.11925
-0.096286
-0.075238
-0.043347
-0.051958
-0.071093
-0.09533
-0.065033
-0.046536
-0.015602
0.023624
-0.0028458
-0.012094
-0.016559
-0.026126
-0.016559
-0.01624
0.0019378
0.037018
0.035742
0.0092728
-0.015283
-0.025488
-0.02517
-0.011775
0.01884
0.063487
0.023305
0.012143
0.042121
0.09187
0.10239
0.080071
0.06859
0.047861
0.050093
0.046585
0.066358
0.047542
0.028726
0.059979
-0.064714
-0.081298
-0.062163
-0.03378
-0.03378
0.011505
0.0032135
-0.013051
0.0038513
0.032872
0.023624
0.067314
0.057428
0.072736
0.06859
0.015651
0.05679
0.016608
-0.0050782
0.037975
0.0022568
-0.024851
-0.070455
-0.071093
-0.054509
-0.058974
-0.096286
-0.10872
-0.11191
-0.091503
-0.087995
-0.061206
-0.10649
-0.11128
-0.11032
-0.1202
-0.12403
-0.11861
-0.097562
-0.088633
-0.097562
-0.090227
-0.080979
-0.057061
-0.036012
0.023305
0.032553
0.016289
0.020754
0.044034
0.026175
0.019797
0.040845
0.079752
0.080071
0.085492
0.071779
0.050412
0.023943
0.065082
0.053282
0.027451
0.02171
0.0099106
-0.018791
0.046904
0.083898
0.053282
0.049455
0.044353
0.026494
0.064125
0.08326
0.11483
0.16873
0.11738
0.085811
0.035423
0.082303
0.10654
0.069547
0.055196
0.056153
0.022667
-0.0041214
0.0079971
-0.031867
-0.017197
-0.022299
-0.059612
-0.080341
-0.052277
-0.077152
-0.10107
-0.10681
-0.11255
-0.11064
-0.10235
-0.15146
-0.11861
-0.12403
-0.14667
-0.1438
-0.13838
-0.11829
-0.10713
-0.11255
-0.080341
-0.075238
-0.035694
-0.022937
-0.042391
-0.012094
-0.0069916
-0.01337
0.00098112
-0.016878
-0.0073105
-0.002208
0.008635
-0.021343
-0.00061343
-0.01624
-0.058017
-0.039202
-0.028678
-0.044304
-0.064077
-0.066309
-0.083849
-0.056742
-0.04271
-0.077152
-0.075557
-0.04271
-0.045899
-0.061844
-0.045899
0.046904
0.06572
0.060936
0.06285
0.078476
0.10686
0.14385
0.16331
0.18148
0.11005
0.15246
0.15757
0.11643
0.13205
0.18372
0.11993
0.1008
0.13779
0.10463
0.096973
0.06572
0.061893
0.057747
0.044034
-0.021343
0.012143
-0.0069916
-0.025488
-0.01911
-0.066309
-0.1151
-0.13583
-0.15911
-0.14093
-0.12913
-0.10298
-0.16166
-0.097562
-0.092141
-0.11957
-0.09533
-0.055147
-0.067585
-0.03091
-0.017197
-0.037288
-0.010181
-0.011456
-0.036969
-0.076195
-0.06312
-0.043666
-0.014327
-0.038883
-0.046536
-0.057061
-0.081617
-0.090546
-0.088633
-0.084168
-0.073325
-0.05419
-0.059931
-0.069498
-0.039839
-0.029953
-0.041434
0.0013
0.011505
0.021391
0.01023
0.0073593
0.010867
0.035742
0.064763
0.058066
0.048499
0.057428
0.045629
0.064763
0.020754
-0.020386
-0.021343
-0.0041214
-0.012732
-0.043985
-0.027721
-0.022618
-0.032504
-0.040796
-0.044942
-0.0018891
-0.0076295
0.0060837
0.034148
0.042121
0.066039
0.076882
0.05392
0.028726
0.06572
0.072417
0.087087
0.063169
0.056153
0.061574
0.020116
0.037337
0.030002
0.0038513
0.0092728
0.060617
0.008635
0.0076782
0.019478
-0.0028458
-0.050363
-0.045899
-0.047812
-0.01337
-0.023894
-0.032504
-0.057061
-0.11191
-0.084487
-0.08066
-0.092141
-0.068541
-0.064714
-0.081617
-0.055785
-0.035375
-0.057698
-0.024213
-0.033142
-0.020067
0.011186
-0.036012
-0.020386
-0.059612
-0.056104
-0.011137
-0.042072
-0.084168
-0.066628
-0.081298
-0.057061
-0.078427
-0.080341
-0.079703
-0.03378
-0.041115
-0.035694
-0.041115
-0.022299
-0.0069916
-0.0050782
0.030002
0.015651
0.023624
-0.00029452
0.008635
0.02171
-0.0028458
-0.0089051
0.02171
-0.0089051
-0.0079484
0.0038513
0.0032135
-0.014008
-0.011775
-0.01624
-0.015602
0.014375
-0.012413
-0.026764
0.0064026
0.052007
0.030002
0.0067215
0.041802
0.02171
0.052007
0.046585
0.049137
0.049137
0.044991
0.028088
0.062531
0.048499
0.050731
0.059661
0.022348
0.037337
-0.009224
0.036699
0.030002
-0.01337
-0.067266
-0.050682
-0.041115
-0.066947
-0.0063538
-0.038245
-0.054509
-0.043028
-0.088633
-0.10968
-0.076195
-0.087038
-0.027083
-0.05419
-0.061844
-0.067903
-0.055147
-0.023575
-0.02198
-0.0063538
-0.009224
-0.03091
-0.035056
-0.041115
-0.021343
0.0041702
0.0054459
0.015013
-0.03091
-0.055785
-0.053871
-0.049726
-0.014008
0.023943
-0.012413
-0.028996
0.022667
0.02171
0.018521
0.026175
0.01884
0.012143
0.020116
-0.00029452
0.028407
0.022986
-0.028359
-0.0063538
-0.035056
-0.04271
-0.061206
-0.059293
-0.051639
-0.071411
-0.051639
-0.012094
-0.015921
-0.024532
-0.0031647
-0.041434
-0.0069916
0.0070404
0.029683
0.050093
0.025856
-0.0053971
0.034786
-0.023894
0.0019378
0.01597
0.015332
0.021072
-0.0047593
-0.012413
-0.015283
-0.022618
0.0099106
0.027451
0.015651
-0.0063538
-0.0085862
0.00098112
-0.01624
-0.022937
0.016289
0.0067215
-0.014008
-0.0105
-0.0079484
-0.042391
-0.05132
-0.020386
-0.026126
-0.0073105
-0.040477
-0.061206
-0.047493
-0.03952
-0.048131
-0.043985
-0.067903
-0.041115
-0.047174
-0.018153
-0.011456
-0.044304
-0.022618
-0.0066727
0.014694
0.015332
0.028088
0.060617
0.066677
0.046585
0.052326
0.048818
0.035423
0.028407
0.069866
0.087087
0.069228
0.022348
0.0035324
0.022348
0.015651
-0.0025269
-0.0073105
-0.022299
-0.015921
-0.0018891
0.0032135
-0.022937
-0.038245
-0.020386
-0.018791
-0.0025269
0.0076782
-0.020067
0.010867
0.013738
-0.049407
-0.040796
-0.037926
-0.0053971
0.019159
-0.042072
-0.082892
-0.010819
-0.053552
-0.084168
-0.067585
-0.0085862
-0.036331
-0.0066727
0.0067215
0.032872
0.028407
0.008316
-0.0085862
0.030321
0.064444
0.055834
0.042121
0.039569
0.012781
-0.033461
-0.043985
-0.054509
-0.043666
-0.030591
-0.071093
-0.077471
-0.097562
-0.1521
-0.12435
-0.041434
-0.08927
-0.10266
-0.095968
-0.095011
-0.062801
-0.04271
-0.022937
-0.027721
0.039569
0.05679
0.05679
-0.022299
-0.029315
-0.032823
-0.0069916
0.026813
0.066995
0.030002
0.0025757
0.010867
0.0092728
-0.020386
0.0028946
-0.0060349
0.03925
0.061574
0.041802
0.1126
0.11515
0.077201
0.077838
0.076244
0.15565
0.11706
0.073055
0.079114
0.088681
0.079114
0.049137
-0.0082673
0.047223
0.040207
-0.012732
-0.040796
-0.064077
-0.090227
-0.057698
-0.041753
-0.058017
-0.052277
-0.10522
-0.069817
-0.090227
-0.13073
-0.10553
-0.13934
-0.12563
-0.080341
-0.056104
-0.040158
-0.029953
-0.06312
-0.082573
-0.087038
-0.027083
-0.048769
-0.041753
-0.022937
-0.0028458
0.0060837
0.027132
0.038294
0.11898
0.065082
-0.020067
-0.056742
0.013738
0.079433
0.076244
0.077201
0.096335
0.063169
0.075287
0.023305
-0.0098618
-0.057061
-0.04845
-0.028678
-0.045261
-0.043028
-0.023894
-0.052915
-0.046536
-0.058974
-0.056742
-0.05132
-0.05132
-0.063439
-0.057379
0.0044891
0.0067215
0.010548
0.011505
0.016608
0.020435
0.0067215
0.02171
0.015651
0.025218
0.055515
0.040845
0.038612
0.03351
-0.018472
0.041802
0.11738
0.12057
0.082303
0.071779
0.099205
0.10909
0.10303
0.072098
0.048499
0.043077
0.036699
0.048818
0.033829
-0.091503
-0.080341
-0.080979
-0.077152
-0.087676
-0.15305
-0.14731
-0.16836
-0.17314
-0.16645
-0.16804
-0.14125
-0.086719
-0.10203
-0.06886
-0.03665
-0.055147
-0.02804
-0.01337
0.023943
-0.01911
0.068271
0.012781
0.0019378
0.026175
0.034467
0.061574
0.035742
0.043077
0.016289
0.068909
0.098568
0.069866
0.046585
0.037656
0.066995
0.030002
0.0089539
0.049455
0.020435
0.021391
-0.0034836
-0.04558
-0.028678
-0.04558
-0.0085862
-0.017516
-0.0089051
-0.013689
-0.020386
-0.052277
-0.015283
0.0028946
0.050731
0.055196
0.045629
0.063169
0.055196
0.032234
0.004808
0.045947
0.043077
0.011505
-0.016559
-0.0066727
-0.0098618
-0.036331
-0.03952
-0.015921
-0.05132
-0.016878
-0.021343
-0.031229
-0.037926
-0.043666
-0.041434
-0.048769
-0.019748
0.011505
0.017564
0.00066221
0.013738
0.035104
0.05105
0.035742
0.022029
0.072098
0.042758
0.058704
0.044353
0.028726
0.038612
0.019797
-0.023894
-0.038564
0.01023
-0.026764
-0.056742
-0.027083
-0.02198
-0.002208
-0.022937
-0.049407
-0.053234
-0.03952
0.0095917
0.048818
0.015332
-0.042072
-0.026126
-0.051958
-0.010181
-0.002208
-0.018791
0.015013
0.011824
-0.051639
-0.04271
-0.023575
-0.04845
-0.06025
-0.036331
-0.0105
-0.0015702
0.037656
-0.0038025
0.022029
0.0073593
-0.028678
-0.043666
-0.014964
-0.0041214
0.0064026
0.0016189
0.021072
0.027451
-0.0066727
-0.016559
0.0032135
0.036699
0.034467
0.05105
0.031278
0.035104
0.035423
0.062212
0.06859
0.038612
0.030959
0.037337
0.042758
0.064763
-0.021024
-0.017516
-0.022618
-0.024851
-0.025488
-0.075557
-0.034099
-0.074919
-0.10681
-0.084806
-0.086719
-0.095011
-0.076833
-0.057698
-0.065352
-0.063758
-0.052915
-0.058974
-0.043028
-0.026764
-0.025488
-0.010819
0.0035324
0.050412
0.032234
0.082941
0.13365
0.094741
0.016289
0.0022568
0.03064
0.072098
0.097611
0.095378
0.067952
0.04818
0.078157
0.04818
0.0092728
0.015651
0.0089539
0.0013
0.01023
0.028726
0.0022568
0.029683
0.044034
0.015013
-0.035056
0.008316
0.0044891
-0.03091
-0.039202
-0.018791
-0.052915
-0.085443
-0.07779
-0.086081
-0.091184
-0.10235
-0.13009
-0.12307
-0.074601
-0.12818
-0.15401
-0.14444
-0.077152
-0.070774
-0.065671
-0.057698
-0.074282
-0.073006
-0.061844
-0.022618
0.01597
0.011505
-0.0044404
0.012781
0.026175
0.023305
0.03638
0.054877
0.046585
0.079114
0.071779
0.069228
0.075606
0.067314
0.064763
0.064763
0.073374
0.074968
0.083898
0.10782
0.066677
0.044672
0.037975
0.018202
0.046904
0.050412
0.048818
0.038612
0.017246
2.4388e-05
-0.044623
-0.0034836
0.015013
-0.022618
-0.049088
-0.04558
-0.045899
-0.06312
-0.069498
-0.055785
-0.092141
-0.13328
-0.075876
-0.069817
-0.12307
-0.12084
-0.11542
-0.10011
-0.10203
-0.13934
-0.055785
-0.013689
-0.043347
-0.057379
-0.07173
-0.049726
-0.022299
-0.03665
0.010867
0.051369
0.052963
0.031915
0.070822
0.082622
0.042121
0.051369
0.090595
0.066358
0.032872
0.066358
0.054239
0.053601
0.058066
0.050093
0.047861
0.015651
0.037975
0.064125
0.036699
0.051688
0.061574
0.027132
0.039888
0.067314
0.072417
0.06285
0.073055
0.066995
0.082941
0.056471
0.084536
0.0016189
-0.013689
0.0054459
0.004808
-0.018153
-0.07173
-0.031548
-0.090227
-0.12786
-0.12276
-0.13456
-0.14349
-0.12531
-0.098838
-0.076833
-0.062163
-0.042391
-0.062482
-0.07779
-0.090546
-0.043985
-0.029315
0.0060837
-0.0028458
0.017883
0.024262
0.0089539
-0.026445
-0.011775
-0.028996
-0.035694
-0.052277
-0.05419
-0.012732
-0.047493
-0.051001
-0.034418
-0.031867
-0.016559
-0.040158
-0.053871
-0.072049
-0.056104
-0.02804
-0.0082673
0.026175
0.0060837
-0.009224
0.010867
0.012462
0.026175
0.040845
0.050412
0.072417
0.073374
0.053282
0.033191
0.033829
0.036699
0.022667
0.055196
0.052645
0.044034
0.027132
0.041483
0.047223
0.05679
0.044991
0.063487
0.072736
0.098249
0.092508
0.094422
0.062212
-0.012413
0.019478
0.024262
0.013419
0.012143
-0.014008
-0.017516
-0.012094
-0.047174
-0.023575
-0.021661
-0.064395
-0.044623
-0.0098618
-0.027721
-0.04271
-0.031229
0.0099106
0.024262
-0.042391
-0.041115
-0.069498
-0.053871
-0.043347
-0.06599
-0.072368
-0.1033
-0.10841
-0.11446
-0.084806
-0.059293
-0.070774
-0.10394
-0.11319
-0.075238
-0.051639
-0.054828
-0.056104
-0.063439
-0.053234
-0.036331
-0.018153
-0.012094
0.0067215
0.008635
-0.00061343
0.0028946
0.01023
-0.005716
0.026494
0.025856
0.0057648
0.027451
0.026175
0.032872
0.026494
0.041164
0.044353
0.065401
0.052326
0.042758
0.064763
0.052963
0.049455
0.050093
0.064125
0.094741
0.073693
0.04531
0.041483
0.052963
0.052326
0.028088
0.039569
0.046585
0.044991
0.027132
0.010548
0.019159
0.02171
0.0019378
-0.019429
-0.023894
-0.055785
-0.055785
-0.056742
-0.073006
-0.055466
-0.058655
-0.07779
-0.070774
-0.054828
-0.028359
-0.028359
-0.074601
-0.053552
-0.059612
-0.018791
-0.018791
-0.013689
-0.0047593
-0.0031647
-0.0089051
-0.010819
-0.032186
-0.056742
-0.041753
-0.031229
-0.017197
-0.029634
-0.040158
-0.020386
-0.015921
0.0025757
0.011824
-0.015921
-0.009224
0.012143
0.01597
0.029364
0.030002
0.037975
0.038294
0.043715
0.051369
0.041164
0.038612
0.050412
0.045947
0.03064
0.040526
0.046266
0.040207
0.012462
0.010867
0.0079971
-0.0098618
-0.013051
-0.014645
-0.023256
-0.014327
-0.002208
-0.009224
-0.009224
-0.0082673
-0.018472
-0.020386
-0.0047593
-0.02198
-0.028678
-0.013689
-0.015921
-0.021661
-0.020705
-0.035375
-0.028678
-0.02804
-0.011456
-0.0085862
-0.017835
-0.010819
0.0038513
0.0028946
-0.0105
0.004808
0.014375
-0.027083
-0.019429
-0.0076295
0.0051269
0.008635
-0.0098618
-0.030591
-0.032823
-0.024213
-0.012094
-0.037288
-0.043347
-0.036969
-0.041434
-0.021661
-0.0044404
-0.002208
-0.014645
-0.038883
-0.016559
-0.029953
-0.027083
-0.032823
-0.02198
0.0019378
0.008635
0.008635
0.0044891
0.0025757
0.0057648
0.034467
0.04531
0.02777
0.019478
0.020754
0.041802
0.044353
0.017564
-0.00093234
-0.013051
-0.014327
-0.0018891
-0.018153
-0.020705
-0.014327
-0.027083
-0.044942
-0.050682
-0.037288
-0.045899
-0.040158
-0.028678
-0.040477
-0.031548
-0.02517
-0.020067
-0.029315
-0.013051
-0.015921
-0.0031647
-0.010819
-0.015921
-0.012094
-0.0098618
-0.0015702
0.0041702
-0.016559
-0.021024
-0.014645
-0.015921
-0.019429
-0.020067
-0.02517
-0.038245
-0.02517
-0.021343
-0.021024
-0.021661
-0.022299
-0.019429
-0.014645
-0.0069916
-0.031229
-0.02804
-0.028359
-0.022299
-0.023894
-0.023575
-0.027083
-0.024532
-0.023575
0.0016189
0.0095917
0.0057648
-0.0066727
0.0044891
0.0076782
0.0079971
0.03638
0.034148
0.034148
0.03351
0.024262
0.017246
0.012781
0.020116
0.0095917
0.015651
0.025218
0.03351
0.025218
0.024899
0.03925
0.044672
0.037018
0.03925
0.041802
0.027451
0.027451
0.016608
0.022029
0.023624
0.011505
-0.0073105
-0.012732
-0.0012513
-0.021024
-0.035375
-0.036331
-0.04845
-0.037607
-0.025807
-0.040477
-0.027083
-0.015921
-0.01624
-0.026445
-0.034099
-0.034737
-0.04558
-0.028359
-0.015921
-0.018791
-0.009224
-0.017835
-0.030591
-0.02517
-0.018791
-0.0089051
-0.022937
-0.022618
-0.012094
-0.014327
-0.01911
-0.011775
-0.0069916
-0.012094
0.0076782
0.011505
0.0028946
-0.00029452
0.0070404
-0.00061343
0.0032135
-0.013051
0.0022568
-0.0034836
-0.017197
-0.017835
-0.022299
-0.029315
-0.020705
-0.02198
-0.029953
-0.014327
-0.0085862
-0.0105
-0.0069916
-0.0034836
0.0013
0.0089539
0.027132
0.021391
0.012143
-0.0047593
0.0057648
0.010548
0.0092728
0.011824
-0.0041214
-0.021024
-0.011775
-0.0082673
-0.012413
-0.012094
-0.014327
-0.018472
-0.015602
-0.0041214
-0.016878
-0.018153
-0.015921
-0.014645
-0.015283
-0.014645
-0.015921
-0.023575
-0.012094
-0.009224
-0.005716
-0.0098618
-0.0089051
0.0013
0.02458
0.022986
0.017564
0.016608
0.015651
0.027132
0.028088
0.033191
0.039888
0.030959
0.026813
0.034467
0.021391
0.021072
0.015651
0.014694
0.022667
0.025218
0.016289
0.0025757
0.0035324
-0.0076295
-0.0076295
-0.0050782
0.0025757
0.0079971
-0.011456
-0.036012
-0.011456
-0.010819
-0.022299
-0.018153
-0.015921
-0.020386
-0.020067
-0.005716
-0.021024
-0.031867
-0.036331
-0.030272
-0.026764
-0.030272
-0.030591
-0.041434
-0.025488
-0.023256
-0.021024
-0.023256
-0.016878
-0.017197
-0.01337
-0.011456
-0.00061343
-0.0095429
-0.0076295
0.0013
2.4388e-05
0.0025757
0.0095917
0.011824
0.0013
-0.0082673
0.0022568
0.0095917
0.0089539
0.0089539
0.0089539
0.004808
0.014694
-0.0038025
-0.0034836
-0.0085862
-0.0105
-0.010181
-0.01337
-0.013689
-0.023256
-0.028678
-0.017516
-0.012732
-0.011456
-0.011775
-0.011775
-0.012094
-0.009224
0.0057648
-0.0066727
-0.0085862
-0.0041214
-0.0012513
-0.0012513
-0.0015702
-0.0034836
-0.015602
-0.0053971
-0.002208
0.0041702
0.0041702
0.0095917
0.0057648
0.0064026
0.011824
0.024899
0.019159
0.012781
0.015013
0.011824
0.0092728
0.017883
0.019478
-0.0025269
0.0025757
0.0070404
0.0076782
0.0025757
-0.00029452
-0.0053971
-0.0041214
0.0044891
-0.0038025
-0.0034836
-0.0085862
0.00098112
0.0067215
-0.00029452
-0.0044404
-0.010181
-0.013689
0.0016189
0.0067215
0.0051269
0.0060837
0.0089539
0.0067215
0.0028946
0.020754
0.0131
0.0057648
0.010867
0.012781
0.0095917
0.0054459
0.0054459
-0.0028458
0.0092728
0.0079971
0.0070404
0.0067215
0.0016189
-0.00061343
-0.002208
0.0044891
0.01023
-0.0025269
-0.011775
-0.015602
-0.020386
-0.020386
-0.018472
-0.01911
-0.033142
-0.016878
-0.017197
-0.01624
-0.014008
-0.0098618
-0.005716
-0.010181
0.0057648
0.0054459
0.0035324
0.00066221
0.0079971
0.011824
0.025218
0.021072
0.0070404
0.0079971
0.02171
0.028726
0.023943
0.021072
0.02171
0.027451
0.033191
0.037337
0.026175
0.015651
0.010867
0.0131
0.017246
0.0089539
0.0067215
-0.0073105
-0.0076295
-0.0076295
-0.0044404
-0.0089051
-0.012094
-0.0105
-0.010181
-0.0089051
0.0013
-0.0089051
-0.014327
-0.010819
-0.011775
-0.009224
-0.009224
-0.0105
-0.019748
-0.0050782
-0.0047593
-0.0044404
-0.0047593
-0.005716
-0.0028458
-0.0031647
0.0064026
0.0054459
0.0022568
-0.0038025
-0.00029452
0.0003433
-0.00029452
-0.0012513
-0.0034836
-0.011775
-0.00061343
0.0054459
0.0016189
0.0013
0.0013
0.0013
0.0022568
0.016289
0.0025757
0.0016189
0.0032135
0.0038513
0.0060837
0.0032135
0.0019378
-0.0079484
-0.0018891
0.0051269
0.0070404
0.0028946
0.0035324
0.0064026
0.0054459
0.01023
0.021072
0.01023
0.0028946
0.0079971
0.008316
0.008635
0.0070404
0.0051269
-0.0047593
0.0092728
0.008635
0.004808
0.0025757
0.0022568
0.0032135
0.0022568
0.010867
0.008635
0.0019378
-0.00061343
0.0019378
0.0013
0.00066221
-0.00093234
-0.0063538
-0.014008
2.4388e-05
0.0041702
0.00098112
0.00098112
0.00066221
-0.00029452
0.0003433
0.012143
0.0003433
0.00066221
0.0019378
0.0025757
0.0054459
0.0022568
0.0044891
-0.005716
-0.002208
0.0032135
0.0092728
0.0051269
0.0076782
0.0092728
0.011186
0.0131
0.025856
0.017246
0.010548
0.010548
0.0079971
0.0089539
0.0070404
0.0038513
-0.0073105
0.0095917
0.0044891
-0.002208
-0.0018891
-0.0060349
-0.0053971
-0.0060349
-0.00061343
-0.0012513
-0.009224
-0.013051
-0.0098618
-0.0085862
-0.0082673
-0.0098618
-0.015283
-0.022618
-0.0076295
-0.0038025
-0.0060349
-0.0073105
-0.0063538
-0.0044404
-0.0034836
0.010548
-0.0031647
-0.0041214
-0.002208
-0.00061343
-0.00029452
-0.00093234
-0.002208
-0.011456
-0.0050782
-0.00093234
0.0051269
0.00066221
0.0003433
-0.00061343
0.00098112
0.0057648
0.018202
0.0044891
-0.00061343
0.0032135
0.0038513
0.0028946
0.0016189
0.0019378
-0.0082673
0.0044891
0.0051269
0.0038513
2.4388e-05
-0.00061343
0.0022568
0.0028946
0.010867
0.010867
0.0028946
-0.002208
0.0032135
0.0022568
0.00098112
-0.0018891
-0.0082673
-0.015602
-0.0015702
0.0044891
