0.012781
0.0019378
-0.0015702
-0.0063538
0.015651
0.013419
0.0070404
0.011824
-0.0044404
-0.012094
0.024899
0.01023
-0.013051
-0.0063538
-0.020705
-0.012413
-0.0069916
-0.020067
-0.020705
-0.032504
-0.022618
-0.023894
-0.024213
-0.0082673
-0.018472
-0.019748
-0.025488
-0.012094
-0.0069916
-0.017197
-0.023256
-0.020705
-0.028996
-0.034737
-0.029315
-0.0085862
-0.020705
0.004808
-0.0073105
-0.022937
-0.028359
-0.015283
-0.0063538
-0.0041214
0.0032135
-0.0063538
-0.014964
-0.02517
-0.024532
-0.011775
-0.024851
-0.020705
-0.058336
-0.053552
-0.037926
-0.036331
-0.039839
-0.042391
-0.055147
-0.057379
-0.033461
-0.011456
-0.027083
-0.026126
-0.020067
-0.014327
-0.017197
-0.030272
-0.027083
-0.046218
-0.02198
-0.0082673
-0.002208
-0.009224
-0.0076295
-0.018472
-0.0085862
0.0019378
-0.0066727
-0.009224
0.0089539
0.012143
0.0064026
0.067952
0.052326
0.035104
0.030002
0.046904
0.049774
0.054877
0.074968
0.043077
0.0057648
0.023943
0.026494
0.0054459
-0.0098618
-0.023256
-0.055147
-0.054828
-0.057379
-0.064714
-0.065033
-0.056104
-0.035694
-0.044942
-0.038564
-0.041434
-0.028359
-0.0018891
0.011824
0.028726
0.022986
0.016289
0.012462
0.0095917
-0.019748
-0.013051
-0.00093234
-0.035375
-0.022937
-0.028359
-0.03665
-0.040477
-0.034418
-0.04558
-0.041753
-0.036012
-0.03952
-0.035694
-0.037288
-0.034099
-0.032504
-0.022937
-0.024851
-0.026764
-0.029315
-0.013689
-0.0089051
-0.0079484
-0.0073105
-0.0041214
0.0064026
0.0092728
0.017883
0.012462
0.0079971
0.0095917
0.020435
0.035104
0.03638
0.017246
-0.026764
-0.012094
0.004808
0.0092728
0.00098112
-0.021024
-0.019429
-0.028996
-0.029634
-0.015921
-0.0098618
-0.024851
-0.040477
-0.046218
-0.047493
-0.024532
-0.033142
-0.053234
-0.03665
-0.032186
-0.026126
-0.030272
-0.029953
-0.026764
-0.013689
-0.00029452
-0.00029452
0.0028946
-0.0076295
0.0092728
0.025537
0.035104
0.029683
0.025218
0.031278
0.053601
0.023624
0.0067215
0.0032135
0.028407
0.0073593
0.01023
0.0095917
-0.028678
2.4388e-05
-0.019748
-0.031548
-0.021024
-0.020705
-0.031548
-0.052915
-0.044942
-0.023256
-0.010819
-0.027083
-0.031867
-0.020067
-0.024213
0.0019378
0.0051269
-0.015921
-0.028359
-0.01337
-0.0082673
0.0099106
-0.0015702
-0.00061343
-0.01624
-0.017197
-0.011456
0.0035324
0.01023
0.0067215
0.0060837
0.0057648
0.025856
0.01023
0.0099106
0.0089539
0.019478
0.032234
0.018521
0.0079971
0.0041702
0.010867
0.022348
0.024899
0.014375
0.008635
0.0079971
0.0073593
0.010548
0.023943
0.0051269
-0.009224
2.4388e-05
0.012462
-0.0028458
-0.0089051
-0.0095429
-0.01624
-0.014645
-0.0050782
-0.0034836
-0.012094
-0.0105
-0.0034836
0.036699
0.04531
0.04531
0.026175
0.015651
0.027451
0.045947
0.045947
0.045947
0.039888
0.029364
0.022667
0.055515
0.045629
0.0003433
-0.016878
-0.03665
-0.0085862
-0.0066727
-0.029953
-0.040477
-0.050682
-0.046855
-0.052915
-0.064395
-0.064714
-0.075238
-0.082573
-0.058974
-0.046218
-0.058974
-0.070136
-0.053871
-0.051958
-0.046855
-0.026764
-0.028359
-0.037288
-0.048131
-0.045899
-0.024532
-0.016878
-0.026445
-0.034737
-0.024532
-0.015283
-0.013051
-0.019748
-0.010819
-0.0031647
-0.0012513
0.0060837
0.021072
0.008316
0.008635
0.0092728
0.03351
0.02458
0.041164
0.026175
-0.037288
0.018202
0.01884
0.013419
0.01884
-0.0012513
-0.0069916
-0.015283
0.0073593
-0.0028458
-0.023575
-0.049088
-0.058974
-0.073644
-0.072368
-0.050682
-0.045899
-0.06886
-0.067903
-0.050682
-0.037288
-0.02198
-0.02804
-0.039839
-0.029634
0.0016189
0.0095917
0.026175
0.042758
0.043077
0.036699
0.014694
0.020754
0.012143
0.032234
0.037656
0.030959
0.028088
0.032234
0.022348
0.025856
0.029364
0.025218
0.016927
0.014375
0.026494
0.016289
0.0032135
0.010548
0.013419
0.015651
0.0067215
0.0067215
0.012143
0.0089539
0.015332
0.032553
-0.0025269
-0.032823
-0.053234
-0.057698
-0.046536
-0.036012
-0.048769
-0.078746
-0.082892
-0.091822
-0.073644
-0.03952
0.0022568
-0.045261
-0.036331
-0.0076295
0.011186
0.03064
0.05679
0.064763
0.06285
0.085492
0.093146
0.084854
0.066358
0.046904
0.0022568
0.032234
0.050412
0.025537
0.01597
0.0019378
0.011824
0.0070404
0.0051269
-0.017835
-0.027083
-0.022618
-0.010819
-0.01624
-0.025488
-0.040158
-0.043347
-0.052915
-0.032823
-0.033142
-0.044623
-0.052596
-0.041434
-0.028996
-0.026126
-0.017197
-0.027402
-0.0063538
-0.0082673
-0.0031647
2.4388e-05
-0.0031647
-0.00061343
-0.0050782
-0.0041214
0.014694
0.019797
0.0051269
0.0028946
0.0070404
0.0064026
0.008635
0.023624
0.0051269
0.0041702
0.004808
0.011824
0.010867
0.0067215
0.0057648
0.00066221
0.013738
0.032234
0.037018
0.037018
0.030959
0.028088
0.041164
0.03925
0.039888
0.036699
0.035742
0.039888
0.029364
0.016289
0.028088
0.0131
-0.0105
-0.014008
-0.014008
0.008635
-0.0085862
-0.0050782
-0.012094
0.015651
0.016289
-0.010819
0.0051269
0.0057648
-0.0018891
-0.0089051
0.012462
0.014375
-0.014964
-0.0028458
-0.0066727
0.0016189
-0.005716
-0.014008
-0.021024
-0.02517
-0.012094
0.0070404
-0.0076295
-0.032504
-0.031548
-0.02198
-0.01624
-0.030591
-0.035694
-0.043028
-0.030591
-0.032823
-0.036331
-0.03091
-0.039839
-0.046855
-0.035694
-0.020705
-0.018791
-0.031229
-0.030591
-0.032186
-0.022937
-0.024532
-0.02198
-0.022937
-0.021661
-0.017516
-0.027721
-0.019429
-0.017197
-0.0105
-0.015283
-0.0047593
0.0076782
-0.0031647
-0.0044404
0.0092728
0.0044891
0.0019378
-0.00093234
-0.0034836
-0.0073105
0.0016189
0.008635
0.0070404
-0.0031647
-0.013689
-0.0038025
0.016927
0.023943
0.017883
-0.0063538
-0.011456
0.0035324
0.0016189
-0.0038025
0.0060837
-0.0034836
-0.0069916
0.008635
0.0041702
0.014694
0.0070404
0.0076782
0.004808
0.0038513
0.013738
0.021072
0.014694
-0.0028458
-0.002208
-0.0095429
0.0003433
-0.0085862
-0.010819
-0.021661
-0.011456
-0.014645
-0.016878
-0.0082673
-0.023575
-0.011137
-0.013051
0.0070404
0.0028946
-0.0015702
-0.0089051
-0.00061343
-0.0018891
0.0028946
0.01023
-0.0047593
-0.0066727
-0.005716
0.0051269
-0.0105
-0.0089051
0.0016189
-0.0047593
-0.0031647
0.0028946
-0.0041214
-0.0063538
-0.0053971
-0.018791
-0.023894
-0.01337
-0.022618
-0.017197
0.0067215
-0.0031647
-0.0073105
-0.010181
-0.01337
-0.00093234
0.0054459
0.011824
0.0067215
0.012781
0.0032135
0.0070404
-0.0085862
-0.014327
-0.017516
-0.0095429
-0.031229
-0.033142
-0.021024
-0.0073105
-0.0098618
-0.026126
-0.032504
-0.019429
-0.005716
-0.0047593
0.0092728
-0.0047593
-0.0047593
-0.0050782
-0.0095429
-0.0069916
-0.012094
0.0016189
0.0016189
0.013419
-0.0028458
-0.012732
0.015651
0.0041702
2.4388e-05
0.034786
0.01884
-0.0034836
0.0016189
0.0060837
0.0064026
0.0067215
-0.009224
-0.019429
0.01597
0.0032135
-0.013689
-0.015602
-0.011775
-0.010181
-0.005716
0.0038513
0.0003433
2.4388e-05
0.004808
0.0019378
-0.002208
-0.005716
-0.005716
-0.01624
-0.023256
-0.0069916
-0.00061343
-0.020067
-0.02804
-0.015921
-0.0015702
0.012143
0.0025757
-0.010181
-0.015921
0.0060837
0.0028946
-0.00093234
-0.0012513
0.00098112
-0.010819
0.0032135
0.0041702
0.0060837
-0.00029452
-0.0050782
-0.019429
-0.012094
0.0051269
0.014694
-0.012094
-0.021343
-0.011775
-0.0079484
2.4388e-05
-0.0066727
-0.016559
-0.025807
-0.0034836
-0.022618
-0.0066727
-0.00093234
-0.02804
-0.019429
-0.0050782
0.0013
0.0016189
-0.0076295
-0.017835
-0.0079484
-0.0095429
-0.0050782
-0.0082673
-0.012413
-0.00093234
0.00066221
0.004808
0.0044891
-0.0031647
-0.0031647
0.0019378
0.0089539
0.018202
-0.00093234
-0.010181
0.004808
0.035742
0.025218
0.0079971
0.017246
-0.010819
0.0076782
0.013419
0.018521
0.01597
0.010867
0.0041702
0.016289
0.017564
0.01884
0.02171
-0.0047593
-0.0098618
-0.019429
-0.013689
-0.0105
-0.020705
-0.027721
-0.014327
-0.017835
-0.014645
-0.019748
-0.021661
-0.014645
-0.0098618
-0.002208
-0.009224
-0.014008
-0.019748
-0.0063538
-0.0025269
-0.012732
-0.014327
-0.024532
-0.022299
-0.015921
-0.017516
-0.01337
-0.01911
-0.012413
-0.0082673
-0.0082673
0.0044891
-0.0025269
-0.0095429
2.4388e-05
-0.0018891
-0.0079484
-0.013689
-0.005716
-0.012732
-0.0050782
0.0013
-0.0076295
-0.019748
-0.010819
-0.0073105
0.0054459
0.0095917
0.0070404
-0.0031647
-0.012413
0.013419
0.012781
0.0025757
-0.0028458
-0.0060349
-0.021343
-0.00029452
0.0076782
0.012462
0.0089539
0.0013
-0.0034836
0.010548
0.016608
0.0025757
0.0032135
-0.0012513
-0.0038025
-0.0047593
-0.0038025
-0.023256
-0.032823
-0.029315
-0.028359
-0.02517
-0.035056
-0.046218
-0.049726
-0.035694
-0.024532
-0.01337
-0.02198
-0.023894
-0.018472
-0.0053971
-0.0073105
-0.012094
-0.0105
-0.017197
-0.0044404
-0.0041214
-0.0069916
-0.0063538
-0.0076295
-0.0012513
0.0041702
0.0016189
0.0038513
-0.011137
-0.018791
-0.010819
-0.0076295
-0.009224
-0.0076295
-0.018153
-0.029634
-0.0085862
-0.00093234
0.0095917
0.00098112
-0.0105
-0.0066727
0.0054459
0.020754
0.0054459
0.013738
0.01884
0.017246
0.0095917
0.0070404
0.0051269
-0.0069916
-0.015283
-0.011775
0.00098112
-0.0105
-0.01624
-0.017197
-0.017835
-0.01337
-0.0034836
-0.016559
-0.022618
-0.018791
-0.01624
-0.017516
-0.013051
-0.020386
-0.032823
-0.027402
-0.021661
-0.0095429
-0.0079484
-0.020067
-0.015602
-0.014327
-0.010819
-0.0063538
-0.0018891
-0.0069916
0.0041702
0.0016189
-0.013689
-0.009224
-0.011775
-0.018791
-0.01337
0.0044891
-0.0044404
-0.016878
-0.01624
-0.009224
0.0038513
0.028726
0.023624
0.004808
0.0067215
0.017564
0.020116
0.027451
0.024899
0.013419
0.020435
0.021072
0.029683
0.022029
0.016927
0.012462
0.0044891
0.020116
0.029683
0.015013
2.4388e-05
-0.00093234
-0.0025269
-0.0025269
-0.019748
-0.03091
-0.035056
-0.01911
-0.015921
-0.020067
-0.030591
-0.037607
-0.035056
-0.031548
-0.023575
-0.022618
-0.026445
-0.02517
-0.014645
-0.018472
-0.014327
-0.012094
-0.017835
-0.022299
-0.0015702
-0.00061343
-0.0031647
-0.0073105
-0.0082673
-0.0069916
0.004808
0.020435
0.0022568
-0.0012513
0.00098112
0.0057648
0.0016189
-0.0041214
-0.0063538
-0.010819
-0.00093234
-0.0060349
0.012143
0.0028946
-0.0044404
-0.0012513
-0.00029452
0.004808
0.014056
0.0057648
0.0038513
0.0003433
-0.0031647
0.0051269
0.0025757
-0.00093234
-0.015602
-0.00093234
-0.00029452
0.0070404
0.0025757
-0.002208
0.010867
0.011505
0.01884
0.02171
0.024899
0.033191
0.028407
0.021391
0.0035324
0.01023
0.020754
-0.00061343
0.0060837
0.015332
0.0067215
-0.0085862
-0.013051
-0.00093234
0.0025757
0.0013
-0.0069916
-0.0012513
-0.0076295
0.0067215
0.0092728
0.0041702
0.0025757
-0.0015702
0.0131
0.012781
0.016927
0.0057648
0.011505
0.021072
0.013738
0.01023
0.011505
0.0016189
0.0022568
0.0064026
-0.0105
-0.0082673
-0.0063538
-0.016559
-0.022937
0.0016189
0.00066221
-0.0053971
-0.0069916
-0.0034836
0.0041702
0.01023
0.022986
0.014694
0.0092728
-0.00029452
-0.00029452
0.021391
0.0032135
-0.0060349
-0.017516
-0.019429
-0.0105
-0.010181
-0.019748
-0.021024
-0.019748
-0.020705
-0.016559
-0.0047593
-0.016559
-0.014327
-0.016559
-0.0015702
-0.00093234
-0.0073105
-0.013051
-0.018472
-0.0073105
-0.0095429
-0.0025269
-0.009224
-0.00029452
-0.009224
-0.00061343
-0.00061343
0.008635
-0.011775
-0.0079484
-0.0050782
-0.0066727
-0.0073105
-0.0098618
-0.014645
-0.025488
-0.010181
-0.011137
-0.014008
-0.020386
-0.022937
-0.01337
-0.0105
0.0028946
0.010867
0.0054459
-0.0076295
0.0067215
0.0070404
-0.00061343
0.013738
-0.0050782
0.0038513
0.008316
0.0131
0.02777
0.0067215
-0.0076295
-0.011775
0.0025757
0.017564
0.0028946
-0.009224
-0.010181
-0.012094
-0.014327
-0.018153
-0.020386
-0.028996
-0.014645
-0.01624
-0.015283
-0.020067
-0.015921
-0.0098618
-0.011775
0.0016189
0.004808
-0.00061343
-0.0044404
0.0035324
0.0057648
0.0064026
0.010548
0.0038513
-0.0028458
0.0070404
0.0076782
0.0073593
-0.0012513
-0.0012513
0.011505
0.0070404
0.013419
0.0073593
0.0095917
0.0070404
0.0032135
0.00066221
-0.0076295
-0.010819
-0.013051
-0.0079484
0.0044891
0.0019378
-0.0069916
0.012462
0.0025757
-0.0053971
0.0057648
0.023305
0.0051269
0.008635
0.0060837
0.0095917
0.0067215
-0.0050782
-0.0060349
-0.014645
-0.0060349
-0.017835
-0.010819
-0.016559
-0.022299
-0.014008
-0.0098618
-0.0018891
0.0032135
-0.0095429
-0.009224
0.0070404
0.0089539
0.0089539
0.0067215
0.0028946
-0.016559
0.010548
0.022348
0.0099106
0.0025757
-0.002208
-0.0038025
0.0070404
0.017564
0.0057648
-0.00029452
-0.0044404
0.0054459
-0.002208
-0.017835
-0.016559
-0.01624
-0.018791
-0.0063538
0.0025757
0.0028946
-0.013051
-0.021343
-0.012094
0.0089539
0.017246
-0.0073105
-0.0066727
0.0044891
0.0070404
0.010867
-0.0012513
-0.0085862
-0.0063538
-0.0095429
-0.0089051
0.0032135
-0.0060349
-0.010819
-0.0038025
-0.012732
-0.011775
-0.0028458
-0.012413
-0.017835
-0.011137
-0.0050782
-0.014327
-0.018791
-0.025488
-0.037288
-0.015283
-0.014008
-0.014008
-0.024213
-0.017835
-0.013689
-0.0098618
-0.00093234
-0.0085862
2.4388e-05
-0.0053971
2.4388e-05
0.0067215
0.0025757
0.0041702
0.0060837
0.014694
0.016289
0.022348
0.020435
0.017883
0.014694
0.022348
0.021391
0.028088
0.015651
0.0022568
0.0051269
0.014694
0.027451
0.016927
-0.00093234
-0.011137
0.0073593
0.011505
0.013419
0.013738
0.0038513
0.015651
0.015013
0.022986
0.020754
2.4388e-05
0.0013
-0.002208
-0.0050782
-0.0041214
-0.0085862
-0.025807
-0.046855
-0.027083
-0.020705
-0.02517
-0.024851
-0.027083
-0.02804
-0.025488
-0.01337
-0.032823
-0.020705
-0.0089051
-0.011137
-0.012732
-0.020705
-0.021343
-0.027083
-0.022299
-0.014327
-0.0066727
-0.0063538
-0.0034836
0.010548
0.0064026
0.008316
0.022667
0.010867
0.011505
0.017246
0.013738
0.0095917
0.016927
0.0016189
-0.018153
0.0054459
0.0064026
-0.0031647
-0.016878
-0.016559
-0.011775
-0.011456
-0.0076295
-0.0079484
-0.013689
-0.017835
-0.0018891
-0.0082673
-0.0069916
-0.0066727
-0.018791
-0.020386
-0.014327
-0.0044404
-0.00061343
-0.0105
-0.016559
-0.014645
-0.0018891
0.010548
-0.0018891
-0.0050782
-0.0053971
-0.00061343
0.0025757
-0.020705
-0.02198
-0.016559
-0.0050782
-0.0076295
-0.0069916
-0.015921
-0.015283
-0.013689
-0.014327
-0.015921
0.0013
-0.0050782
-0.010819
-0.0060349
-0.005716
-0.00061343
-0.002208
-0.0089051
-0.015283
0.0035324
2.4388e-05
-0.0085862
-0.016559
-0.017835
-0.0105
-0.0063538
-0.0073105
-0.0089051
-0.010819
-0.017197
-0.0060349
0.0038513
0.0079971
0.0003433
-0.011137
-0.010181
0.013419
0.030321
0.026494
0.037656
0.029364
0.028088
0.047223
0.059023
0.047861
0.029364
0.027451
0.024262
0.020754
0.017564
0.021391
0.0019378
-0.0038025
-0.0015702
0.0044891
-0.0105
-0.03952
-0.03378
-0.018153
-0.0085862
-0.0038025
-0.021024
-0.021661
-0.018791
-0.01624
-0.020705
-0.017516
-0.021661
-0.032186
-0.018472
-0.016878
-0.017516
-0.016878
-0.012094
-0.011775
-0.013689
-0.0025269
-0.0076295
-0.0098618
-0.009224
-0.0060349
-0.0047593
-0.0076295
-0.01337
-0.020386
-0.018791
-0.0105
-0.0034836
-0.0069916
-0.015921
-0.015602
-0.01337
-0.010181
2.4388e-05
-0.012094
-0.011775
-0.011456
-0.005716
-0.0012513
-0.0076295
-0.010181
-0.021024
-0.011775
-0.0015702
-0.0015702
-0.005716
-0.005716
0.0019378
-0.0044404
-0.002208
0.0095917
0.0076782
-0.002208
0.00098112
-0.0031647
-0.0018891
-0.0095429
-0.0098618
-0.011137
-0.0038025
-0.010819
-0.0095429
-0.0073105
-0.0034836
-0.0018891
-0.0012513
0.0051269
-0.00061343
0.0025757
-0.0028458
0.0016189
0.0016189
-0.0015702
-0.0012513
-0.012732
-0.0089051
-0.0050782
-0.0053971
-0.013051
-0.012732
-0.0076295
-0.010181
-0.0063538
-0.002208
-0.00029452
-0.011456
-0.0044404
-0.0060349
-0.0050782
-0.0076295
-0.01624
-0.017197
-0.002208
0.0051269
0.0016189
0.0003433
0.0041702
0.0067215
0.0067215
0.01597
0.023943
0.016608
0.014375
0.01597
0.016927
0.025218
0.012781
0.0016189
-0.014327
-0.00093234
0.0076782
0.0028946
-0.0069916
-0.010181
-0.017516
-0.009224
-0.0063538
-0.0050782
-0.0105
-0.03091
-0.029953
-0.021024
-0.023256
-0.01911
-0.024851
-0.035056
-0.01624
-0.0085862
-0.013689
-0.016878
-0.015283
-0.011775
-0.005716
0.021072
0.012781
-0.0060349
-0.00061343
-0.0044404
0.0022568
-0.002208
-0.0069916
-0.014327
-0.0044404
-0.011137
-0.0044404
0.0016189
0.0032135
0.010867
0.0022568
2.4388e-05
0.015651
0.01597
0.0025757
0.0025757
0.008316
-0.0041214
-0.009224
-0.0095429
-0.027083
-0.013051
-0.023256
-0.026764
-0.029953
-0.031548
-0.033461
-0.034418
-0.024532
-0.03378
-0.03378
-0.035375
-0.035056
-0.036331
-0.023894
-0.035375
-0.049407
-0.047493
-0.035375
-0.027083
-0.036331
-0.041753
-0.035375
-0.028359
-0.022618
-0.010181
-0.023256
-0.023894
-0.026445
-0.019748
-0.018791
-0.021024
-0.019429
-0.026126
-0.019429
-0.01624
-0.0095429
-0.015283
-0.015602
-0.0031647
0.0013
0.0060837
0.016289
-0.00061343
-0.010181
0.00098112
0.0054459
-0.009224
-0.0073105
-0.0089051
-0.030272
-0.010181
-0.00029452
-0.0089051
-0.0073105
-0.0063538
-0.010181
-0.0041214
0.0092728
-0.0028458
-0.0095429
-0.0047593
-0.0028458
0.0025757
0.00066221
-0.0098618
-0.017835
-0.020705
-0.011775
-0.0095429
-0.012732
-0.014008
-0.0089051
0.0070404
0.013419
0.0099106
-0.0031647
-0.00061343
0.020116
0.019159
0.01884
0.0073593
-0.0018891
-0.010819
0.0025757
-0.0089051
-0.0079484
0.00098112
-0.011456
-0.012094
-0.0095429
-0.011775
-0.017197
-0.034418
-0.019748
-0.017197
-0.030591
-0.027083
-0.032504
-0.035694
-0.03952
-0.026445
-0.02198
-0.017835
-0.01624
-0.012094
-0.0063538
0.028088
0.032553
0.023943
0.035423
0.028088
0.039569
0.043715
0.038931
0.035742
0.03351
0.021391
0.025218
0.034467
0.014056
0.00098112
0.0041702
-0.0031647
0.012462
0.022348
0.011186
-0.0018891
0.0025757
0.008635
0.013738
0.01597
0.0057648
-0.0069916
0.010548
0.020754
0.011505
0.011505
0.0022568
-0.0012513
-0.0025269
0.01023
0.00098112
-0.0060349
-0.014645
-0.009224
-0.0060349
-0.016559
-0.0105
-0.018791
-0.032504
0.0003433
-0.0018891
-0.0076295
-0.0105
-0.0031647
0.0022568
0.0099106
0.023305
0.0079971
0.0092728
0.0073593
0.012462
0.01597
0.013738
0.0092728
0.0060837
0.0060837
0.0099106
0.021391
0.0067215
0.0076782
0.0099106
0.0099106
0.0095917
0.033191
0.014375
0.0044891
0.0057648
0.011824
0.0003433
-0.0031647
-0.012094
-0.01911
0.00098112
-0.010819
-0.0073105
-0.010181
-0.010181
-0.01337
-0.012732
-0.0034836
-0.0044404
-0.0073105
-0.019748
-0.012413
-0.0105
-0.0079484
-0.016878
-0.010819
-0.025488
-0.014964
-0.014645
-0.016878
-0.011456
0.0051269
0.0095917
0.0032135
0.01597
0.0064026
0.010548
0.011505
0.020435
0.019478
0.013738
0.014694
0.0076782
0.013738
0.015651
0.027451
0.0092728
0.0044891
0.014056
0.0131
0.012781
0.025537
0.008316
0.0044891
0.0032135
0.0019378
0.01023
0.0035324
0.0057648
-0.009224
0.0025757
0.0076782
0.0044891
-0.0044404
-0.005716
0.0013
0.0025757
0.008635
-0.0034836
0.0003433
-0.0079484
0.00098112
-0.0012513
-0.0098618
-0.014327
-0.023575
-0.028359
-0.009224
-0.0085862
-0.012413
-0.011775
-0.014645
-0.010819
-0.0038025
0.0060837
-0.002208
-0.0082673
-0.011456
-0.0098618
-0.0095429
-0.014008
-0.017197
-0.028678
-0.012413
-0.0025269
2.4388e-05
-0.0038025
0.00066221
0.0076782
0.0073593
0.0070404
0.025537
0.030321
0.044034
0.056153
0.034467
0.033829
0.033191
0.031278
0.019478
0.031915
0.03064
0.0079971
0.01023
-0.0098618
-0.013689
0.0057648
-0.00093234
-0.024851
-0.03091
-0.039839
-0.038564
-0.037607
-0.041434
-0.049726
-0.059293
-0.062163
-0.046536
-0.037607
-0.035694
-0.034737
-0.03378
-0.02198
-0.02517
-0.011775
-0.015602
-0.012094
-0.0066727
-0.0076295
-0.0028458
-0.0050782
-0.005716
-0.017516
-0.0044404
-0.00029452
-0.00061343
-0.011775
-0.0105
-0.0095429
-0.010819
0.00098112
0.0073593
-0.0053971
-0.010819
-0.0025269
-0.0012513
-0.0041214
-0.0028458
-0.005716
-0.018153
0.0003433
0.0025757
0.0003433
-0.0031647
-0.0015702
0.0016189
0.0025757
0.010548
0.0038513
0.0057648
0.0022568
0.01023
0.0067215
0.0019378
-0.0031647
-0.0095429
-0.014645
-0.0038025
0.0028946
-0.0044404
-0.0028458
-0.0047593
-0.0085862
-0.0041214
0.014375
0.0019378
0.0079971
0.0092728
0.015332
0.0131
0.014694
0.0095917
-0.0047593
0.0095917
0.015651
0.015332
0.0022568
-0.0076295
-0.0028458
-0.00029452
-0.0076295
-0.005716
-0.012094
-0.026126
-0.027083
-0.02517
-0.031867
-0.028678
-0.028996
-0.041753
-0.022299
-0.020067
-0.01911
-0.021343
-0.017516
-0.0076295
-0.0069916
0.012143
0.0013
0.0054459
-0.0031647
0.0032135
0.0028946
-0.0079484
0.0022568
-0.012094
-0.01911
-0.0098618
0.0016189
-0.009224
-0.0038025
-0.0018891
-0.0066727
-0.0018891
0.014056
0.0028946
0.0099106
0.01023
0.012143
0.0057648
0.0067215
0.0067215
-0.0095429
-0.0041214
0.0003433
0.0079971
2.4388e-05
-0.00061343
-0.00061343
0.0064026
0.0003433
0.00098112
-0.010819
-0.0098618
0.0051269
-0.0089051
-0.011456
-0.014645
-0.017835
-0.026764
-0.009224
-0.018153
-0.022618
-0.02517
-0.026126
-0.023575
-0.020386
-0.0079484
-0.01911
-0.012413
-0.0066727
-0.0073105
-0.01337
-0.015283
-0.013051
-0.013051
-0.017835
-0.0069916
0.0022568
-0.0053971
-0.0041214
-0.0028458
0.0038513
0.013419
0.017246
0.0032135
-0.0041214
0.0003433
0.008635
-0.0066727
-0.0031647
-0.0076295
-0.020705
-0.0105
-0.015283
-0.013051
-0.017516
-0.0105
-0.0073105
-0.0063538
0.0022568
0.0079971
0.0016189
0.0025757
0.011505
0.01023
0.0131
0.0070404
0.0013
-0.010181
0.0032135
0.0022568
0.0013
-0.0095429
-0.015283
-0.018791
-0.018791
-0.0053971
-0.01911
-0.019748
-0.027083
-0.023575
-0.023256
-0.023575
-0.027721
-0.02804
-0.026445
-0.015602
-0.0050782
-0.0060349
-0.01624
-0.013689
-0.0085862
-0.002208
0.018202
-0.00029452
-0.0095429
-0.0031647
-0.0012513
-0.002208
-0.0076295
-0.0095429
-0.015921
-0.0047593
-0.01337
-0.0041214
-0.0053971
-0.002208
0.0041702
-0.0028458
0.0070404
0.010867
0.012781
0.010548
0.014694
0.021391
0.019478
0.013419
0.0073593
-0.0025269
0.0131
0.015013
0.014375
0.016289
0.008635
0.0095917
0.010548
0.017246
0.0019378
2.4388e-05
0.0032135
0.0032135
-0.0034836
-0.0053971
-0.0060349
-0.020386
-0.021024
-0.0041214
0.0070404
0.0019378
-0.00093234
0.0032135
0.01023
0.016927
0.032234
0.019478
0.011505
0.018202
0.017246
0.0064026
0.0067215
0.012781
-0.010819
0.0013
-0.0031647
-0.0028458
-0.012732
-0.013051
-0.010819
-0.009224
-0.0025269
-0.00093234
0.0016189
0.0003433
0.0022568
0.0038513
0.0003433
-0.0028458
-0.01337
-0.021024
0.00066221
0.0016189
0.008316
0.0003433
-0.0063538
-0.00029452
0.0095917
0.014694
0.0092728
0.011824
0.008635
0.010548
0.008316
-0.002208
2.4388e-05
0.0044891
0.011186
0.0092728
0.011186
0.0067215
-0.00029452
0.0041702
0.0092728
0.0076782
0.019159
0.0073593
0.0038513
0.012462
0.01597
-0.0015702
0.0076782
0.0016189
-0.0095429
0.012462
0.0025757
0.0016189
-0.014327
-0.005716
0.0038513
0.0013
0.0028946
-0.0012513
0.0073593
-0.002208
0.0025757
0.0025757
0.0013
-0.0034836
-0.0105
-0.022618
-0.0012513
0.0028946
-0.0034836
-0.0085862
-0.012413
-0.0031647
0.0044891
0.01023
-0.0053971
-0.0082673
-0.012094
0.0016189
2.4388e-05
-0.0025269
-0.012094
-0.015921
-0.0047593
0.0022568
0.008316
0.00066221
0.0067215
0.013738
0.012143
0.011505
0.033191
0.022348
0.023305
0.020435
0.018202
0.022029
0.018202
0.012781
-0.00061343
0.0092728
0.0076782
0.01597
0.01023
0.0019378
-0.0041214
0.0041702
0.015651
0.0016189
-0.0018891
-0.0063538
-0.002208
-0.00061343
-0.0034836
-0.0073105
-0.011456
-0.021661
-0.012094
0.0003433
-0.0015702
-0.005716
-0.0034836
-0.0012513
0.0054459
0.011824
-0.0018891
0.0003433
-0.0012513
2.4388e-05
-0.0018891
0.0013
-0.010819
-0.023575
-0.009224
0.0019378
-0.0015702
-0.0079484
-0.0063538
-0.0105
-0.0076295
0.0032135
0.012143
0.0028946
0.008635
0.0013
0.0038513
0.0073593
0.0016189
-0.0079484
-0.0085862
0.0044891
-0.0018891
-0.0031647
-0.0063538
-0.00061343
0.0003433
0.011824
0.013738
0.0032135
0.0044891
0.0003433
0.0073593
0.0092728
0.0054459
0.0013
-0.0050782
-0.011456
0.0076782
0.010867
0.00098112
-0.0089051
-0.0044404
0.0073593
0.0095917
0.022667
0.020435
0.016927
0.019478
0.018521
0.018202
0.018202
0.012781
0.0092728
0.02458
0.017564
0.025537
0.011505
0.0025757
0.017883
0.0089539
0.0013
0.0051269
0.00098112
-0.0095429
-0.01337
-0.013689
-0.0076295
-0.020705
-0.026445
-0.036012
-0.016559
-0.012413
-0.012094
-0.017516
-0.02198
-0.015283
-0.0076295
0.0041702
-0.0085862
-0.0028458
-0.0085862
-0.0073105
-0.0073105
-0.012094
-0.010181
-0.016559
-0.018791
-0.00061343
0.0016189
-0.0028458
-0.0073105
-0.0012513
0.00098112
0.0054459
0.020116
0.0032135
0.0070404
0.008316
0.02458
0.00066221
0.013738
0.0079971
-0.016878
0.010548
0.0099106
0.0044891
-0.00029452
0.0035324
-0.0015702
-0.0047593
0.0025757
0.0060837
-0.012732
-0.020386
-0.012094
-0.020705
-0.032504
-0.028678
-0.035375
-0.040158
-0.032186
-0.027083
-0.022618
-0.025488
-0.023575
-0.023256
-0.014327
-0.00093234
-0.0063538
-0.0063538
-0.0028458
0.0032135
0.0038513
-0.0012513
-0.0079484
-0.011137
-0.0076295
-0.0050782
0.00098112
-0.0085862
-0.011137
-0.0089051
-0.00029452
-0.0012513
0.0073593
-0.00061343
-0.0025269
-0.0063538
0.0060837
0.004808
-0.0066727
-0.01337
-0.018153
-0.0079484
-0.0034836
2.4388e-05
-0.0098618
-0.011456
-0.017197
-0.005716
0.008635
0.0060837
-0.0076295
-0.0038025
0.0073593
-0.012094
-0.010181
0.004808
-0.0066727
-0.005716
0.012143
0.0092728
0.0079971
0.011505
0.0028946
0.012781
0.023624
0.022029
-0.0031647
0.012781
0.020754
0.016289
0.0073593
-0.00061343
-0.015921
-0.023256
-0.027402
-0.019748
-0.013051
-0.023575
-0.017516
-0.017516
-0.01337
-0.0085862
0.013419
0.011505
0.0016189
0.0003433
0.0060837
0.01023
0.0095917
0.0064026
0.0022568
0.028726
0.010867
0.0089539
0.0016189
0.0003433
0.013738
0.010867
0.0044891
0.0067215
-0.0028458
-0.0060349
0.0022568
0.0025757
-0.0089051
-0.011775
-0.016559
-0.032823
-0.01624
-0.012094
-0.013051
-0.027721
-0.028678
-0.0089051
0.0025757
0.01023
-0.0079484
-0.0047593
-0.0063538
0.0003433
-0.0041214
0.0032135
0.010548
-0.0047593
-0.011137
0.020116
0.022986
-0.011775
-0.0079484
0.0054459
0.011186
0.01597
0.020754
0.0095917
0.0076782
-0.00061343
-0.0044404
-0.0053971
0.004808
-0.005716
-0.0098618
0.0092728
0.0095917
0.022029
0.0032135
0.0041702
-0.0012513
-0.0034836
0.0099106
0.012143
0.018202
0.025537
0.021072
0.0073593
-0.0095429
-0.012732
-0.0063538
-0.036969
-0.012094
0.0051269
0.017246
0.0013
0.0028946
0.010867
0.016608
0.028726
0.035423
0.031596
0.039569
0.021072
0.012462
0.014375
0.02458
0.0038513
0.0131
-0.0060349
-0.0085862
-0.010181
-0.021343
-0.027721
-0.042391
-0.053234
-0.02804
-0.061206
-0.049407
-0.042072
-0.049088
-0.059612
-0.070136
-0.078746
-0.09246
-0.082573
-0.075876
-0.069498
-0.045261
-0.04558
-0.055785
-0.025488
-0.023256
-0.02517
-0.017835
-0.018153
-0.0038025
-0.011775
0.016927
0.019797
0.013419
0.023305
0.021391
0.024262
0.008316
0.0060837
-0.0073105
0.015013
0.021391
0.023305
-0.014645
-0.014964
0.0070404
0.012781
-0.010181
-0.020386
-0.015921
-0.035375
-0.028678
-0.051958
-0.015602
-0.010181
-0.031229
-0.037288
-0.032504
-0.028996
-0.014645
-0.017516
-0.015283
-0.014964
-0.018153
-0.046218
-0.05132
-0.020705
-0.022937
-0.0018891
-0.0060349
0.01023
0.019797
0.028088
0.044353
0.087406
0.096973
0.080071
0.081028
0.10048
0.12344
0.092508
0.092827
0.11993
0.096654
0.06285
0.09793
0.13811
0.05105
0.010867
0.029045
0.0079971
0.014694
-0.00029452
-0.019429
-0.047812
-0.051958
-0.075557
-0.084168
-0.095649
-0.11255
-0.14923
-0.16708
-0.19132
-0.18622
-0.15241
-0.18813
-0.20248
-0.17857
-0.14125
-0.10841
-0.12595
-0.12116
-0.074919
-0.044304
-0.017516
0.0060837
0.020435
0.046904
0.078157
0.10016
0.12599
0.148
0.16777
0.15565
0.073055
0.1075
0.096335
0.071141
0.073374
0.092508
0.080071
0.072098
0.073055
0.085173
0.046585
0.0064026
-0.022299
-0.02198
0.0022568
0.0099106
0.016927
0.052645
0.03351
-0.03091
-0.043347
-0.045261
-0.059293
-0.057379
-0.041434
-0.057061
-0.093735
-0.059931
-0.056423
-0.0085862
-0.017197
-0.014008
-0.020705
0.0054459
0.01884
0.059342
0.049137
0.046266
0.046904
0.041802
0.047223
0.034148
0.031278
0.029364
0.025537
0.034148
0.02458
0.03064
0.026813
-0.022937
-0.029953
0.011505
0.0022568
-0.020705
-0.03665
-0.032823
-0.048131
-0.044942
-0.064714
-0.025488
-0.072049
-0.094054
-0.097562
-0.10011
-0.063439
-0.050044
-0.058655
-0.064714
-0.04845
-0.052915
-0.032504
-0.027083
0.014375
-0.0034836
0.010867
0.029364
0.02171
0.017564
0.02458
0.031278
0.008635
0.066995
0.088362
0.067633
0.054558
0.055196
0.04818
0.063487
0.089638
0.059342
0.034786
0.053601
0.038612
0.042439
0.034786
0.029045
0.028088
0.0032135
-0.022299
-0.00093234
0.017883
0.013419
0.022029
0.020754
-0.020067
-0.021024
-0.018791
-0.0015702
0.0076782
-0.0053971
-0.058336
-0.051639
-0.069179
-0.094692
-0.097562
-0.079703
-0.061206
-0.09246
-0.074919
-0.074282
-0.050363
-0.063439
-0.086719
-0.069498
-0.038564
-0.043347
0.016289
0.0092728
0.050731
0.06859
0.065401
0.024899
0.023624
0.052645
0.042439
0.037018
0.020754
0.040845
0.079752
0.084536
0.052007
0.067952
0.05679
0.010867
0.015332
0.047542
0.096335
0.099205
0.11005
0.10399
0.088044
0.096973
0.043396
0.03351
0.0099106
0.038612
0.070185
0.047861
0.032234
0.0051269
-0.044304
-0.036012
-0.051958
-0.052277
-0.083849
-0.077152
-0.095968
-0.10872
-0.078746
-0.048131
-0.055466
-0.085443
-0.067585
-0.084487
-0.078746
-0.073325
-0.11255
-0.046855
-0.047493
-0.048131
-0.054509
-0.041115
-0.017516
-0.028996
-0.017516
-0.0028458
-0.038245
-0.068222
-0.054828
-0.0105
0.016289
-0.0095429
-0.051639
-0.055466
0.008635
0.0019378
-0.012094
-0.0063538
0.012143
-0.0031647
-0.005716
0.03925
0.057747
0.0057648
-0.026764
0.03351
0.03925
0.011186
0.064444
0.07146
0.022029
0.030959
0.035423
0.026813
0.042758
0.068909
0.07752
0.089
0.1177
0.071779
0.072736
0.06859
0.060936
0.12025
0.086768
0.074649
0.072417
0.070185
0.052007
0.01597
0.032553
0.02777
0.014694
0.031596
0.059342
0.037018
-0.016878
-0.020067
-0.069498
-0.057698
-0.04558
-0.04558
-0.07173
-0.092141
-0.072368
-0.060887
-0.10522
-0.088952
-0.050682
-0.044623
-0.089908
-0.11415
-0.055147
-0.050682
-0.026126
-0.015921
0.013419
-0.057698
-0.06599
-0.075557
-0.068541
-0.079703
0.00098112
-0.023575
-0.043985
-0.034099
-0.019429
0.042121
0.038294
-0.01624
-0.034099
-0.0018891
0.016608
-0.028996
0.0064026
0.016608
0.018202
-0.0031647
0.040526
0.052645
0.0013
-0.035056
-0.022299
0.0051269
0.019478
0.017883
0.016608
0.063169
0.058385
0.05679
0.073055
0.075606
0.073374
0.06285
0.1008
0.16618
0.1665
0.14066
0.10813
0.12663
0.11164
0.087406
0.10622
0.080071
0.066995
0.072417
0.047223
0.03925
0.015651
-0.028359
-0.093416
-0.11733
-0.10043
-0.12371
-0.086081
-0.039202
-0.055466
-0.071411
-0.085762
-0.10107
-0.11096
-0.094692
-0.063758
-0.061206
-0.069498
-0.033142
-0.025488
0.0025757
0.0003433
-0.028359
-0.0098618
0.0041702
-0.014645
0.032553
0.035742
0.021072
0.035423
0.054239
0.059342
0.013738
0.0092728
-0.03952
-0.096605
-0.032186
-0.032186
-0.043347
-0.057379
-0.036969
0.010867
0.0099106
-0.012094
-0.021343
-0.058017
-0.034099
-0.018153
0.030002
0.041164
0.053282
0.04818
0.011824
-0.030591
-0.04558
0.00098112
0.01023
-0.023575
-0.028678
0.018202
0.024262
0.016608
-0.039839
-0.021661
0.017564
0.021391
0.02777
0.027451
0.052007
0.054239
0.027451
-0.00061343
2.4388e-05
0.0019378
-0.0063538
-0.016559
-0.016878
-0.0060349
0.02171
-0.029634
-0.029953
-0.036331
-0.027721
-0.027083
-0.024851
-0.021343
-0.0053971
0.013738
0.037337
0.050412
0.0016189
0.020435
0.0013
0.0051269
0.012143
0.011505
0.022667
0.0057648
-0.010181
0.0028946
0.034786
-0.0079484
0.0032135
-0.011137
-0.021024
0.012462
0.018521
0.037337
0.026494
0.013738
0.03064
0.020116
-0.0050782
-0.012094
-0.011456
0.023943
0.004808
-0.015602
-0.0076295
-0.072049
-0.07173
-0.075238
-0.090865
-0.058974
-0.056423
-0.06312
-0.03091
-0.021024
-0.052915
-0.03091
-0.0028458
-0.0098618
0.011505
-0.038883
0.0051269
0.0013
-0.0060349
0.0070404
0.05679
0.029045
-0.014964
-0.0015702
-0.084168
-0.0085862
0.072736
0.014056
-0.0018891
0.045629
0.045629
0.030959
0.031915
0.031915
0.044991
0.050093
0.070822
0.12631
0.088681
0.060936
0.043715
0.058704
0.064125
0.064125
0.067314
0.051369
-0.0018891
0.044353
0.040526
0.013738
0.029683
0.030959
0.012781
-0.014645
-0.010181
-0.0038025
0.00098112
-0.009224
-0.016878
-0.056423
-0.099157
-0.041753
-0.074282
-0.091822
-0.053552
-0.067266
-0.06025
-0.10235
-0.099476
-0.069498
-0.08353
-0.085443
-0.058974
-0.043028
-0.045899
-0.028996
0.0035324
-0.018472
-0.023575
-0.037926
0.012781
0.028088
0.0003433
-0.032504
-0.005716
2.4388e-05
0.012462
0.023943
0.082622
0.087725
0.065401
0.029683
0.057747
0.091233
0.035104
0.0070404
0.032553
0.031596
0.023943
0.041483
0.0038513
-0.047812
-0.027402
0.0064026
0.019478
-0.049088
-0.054509
-0.039202
-0.017835
-0.013051
-0.0069916
-0.0066727
0.012462
0.040845
0.0044891
-0.02198
0.021072
0.0003433
-0.021343
0.004808
0.011824
-0.019748
-0.011137
-0.023894
-0.057379
-0.04845
-0.041753
-0.037288
-0.028996
-0.030272
0.0044891
-0.0015702
-0.10266
-0.095968
-0.065033
-0.030272
-0.032823
-0.0047593
-0.015602
-0.05132
-0.050363
-0.0041214
-0.016559
-0.031867
-0.037926
-0.040158
-0.03952
-0.020386
-0.014008
-0.026126
-0.041753
-0.03091
-0.018791
-0.0044404
2.4388e-05
0.01597
0.015013
0.03351
0.043715
0.055196
0.059023
0.061255
0.041483
0.035742
0.069547
0.083579
0.059342
0.031278
0.030959
0.052963
0.057109
0.026494
0.035742
0.049774
0.057109
0.072736
0.05392
0.055196
0.078157
0.08613
0.072736
0.058066
0.059342
0.064444
0.032234
0.040526
0.089957
0.063806
0.034467
0.013419
-0.025488
-0.0089051
0.0092728
0.0131
0.0076782
0.047861
-0.015602
-0.022937
-0.040477
-0.047174
-0.061206
-0.044942
-0.03091
-0.043666
-0.043028
-0.083849
-0.084168
-0.088952
-0.11478
-0.093735
-0.054509
-0.070774
-0.069498
-0.051639
-0.094054
-0.087676
-0.075557
-0.084168
-0.092141
-0.067585
-0.032186
-0.039839
-0.029634
-0.040477
-0.063439
-0.03952
0.0003433
-0.0069916
0.010548
0.021391
0.0076782
0.0028946
0.0038513
0.038294
0.054239
0.059342
0.063487
0.046585
0.032234
0.037018
0.037975
0.058385
0.05392
0.069547
0.047223
0.036061
0.040207
0.041164
0.07433
0.058385
0.066677
0.051369
0.07146
0.10718
0.053282
0.030959
0.063487
0.081665
0.11132
0.11005
0.041483
0.028407
0.053282
0.017564
-0.0105
0.063806
0.083898
0.04818
-0.0031647
0.018202
0.020116
-0.0015702
-0.0018891
0.004808
0.031596
0.068909
0.027132
-0.018791
-0.0047593
-0.041115
-0.044304
-0.052596
-0.036012
-0.055785
-0.12435
-0.10139
-0.081617
-0.10936
-0.11542
-0.11702
-0.11797
-0.10011
-0.079065
-0.09246
-0.10809
-0.097881
-0.088952
-0.075557
-0.053234
-0.06886
-0.074282
-0.053234
-0.032186
-0.03378
-0.012732
-0.0063538
0.004808
-0.0098618
0.040207
0.023305
0.0099106
0.016608
0.042121
0.028726
0.035423
0.045629
0.049774
0.064125
0.018202
0.031278
0.050731
0.039888
0.040207
0.04818
0.051688
0.047223
0.06285
0.05392
0.048818
0.054558
0.084854
0.071141
0.080071
0.029045
0.016608
0.03638
0.033829
0.045629
0.031596
0.021391
0.077838
0.037337
0.030002
0.028088
0.029683
0.059661
0.072098
0.081984
0.11132
0.077201
0.049774
0.016608
0.044672
0.072417
0.061893
0.060298
-0.0015702
-0.029953
-0.005716
0.01597
-0.018791
-0.077152
-0.074282
-0.06886
-0.047174
-0.047174
-0.060569
-0.066628
-0.088633
-0.062482
-0.034099
-0.046218
-0.034418
-0.02804
-0.052596
-0.031867
-0.0079484
-0.035056
-0.041115
-0.055785
-0.063439
-0.086081
-0.089589
-0.077471
-0.090546
-0.072368
-0.045261
-0.068222
-0.089908
-0.073006
-0.061206
-0.072687
-0.058017
-0.045261
-0.027402
-0.026126
-0.016878
0.021391
0.069228
0.079752
0.072417
0.064125
0.089638
0.10782
0.12759
0.11228
0.1008
0.085811
0.096654
0.11101
0.078157
0.015332
-0.0018891
0.012143
-0.0041214
-0.023575
-0.053234
-0.091503
-0.082254
-0.046218
-0.022618
-0.014964
-0.022937
-0.00061343
-0.0031647
-0.0069916
0.0041702
-0.002208
0.0070404
0.0076782
-0.022618
-0.01337
-0.0053971
-0.045261
-0.06025
-0.023256
-0.043347
-0.064395
-0.085125
-0.09533
-0.079703
-0.037288
-0.018153
-0.036969
-0.048131
-0.061206
-0.037926
-0.014327
-0.005716
-0.0034836
0.0067215
0.0025757
-0.017197
0.0067215
0.050412
0.075606
0.14959
0.14385
0.096016
0.14034
0.16522
0.15725
0.17224
0.16426
0.1413
0.22549
0.18818
0.13333
0.13333
0.11356
0.099843
0.10909
0.11451
0.09793
0.028088
0.043396
0.083579
0.046904
0.008635
-0.014964
-0.031229
-0.040158
-0.03665
-0.068222
-0.1218
-0.10936
-0.089589
-0.095968
-0.12595
-0.12626
-0.13615
-0.13296
-0.14954
-0.14285
-0.10458
-0.10266
-0.090546
-0.066309
-0.082573
-0.089908
-0.084487
-0.072049
-0.013051
-0.0041214
-0.048131
-0.037288
-0.015283
0.0025757
0.019797
0.008635
0.02458
0.016608
0.0044891
-0.0060349
0.014375
0.023305
0.0057648
-0.005716
-0.028359
-0.044942
-0.031548
-0.046855
-0.054509
-0.08066
-0.081617
-0.064077
-0.041434
-0.03378
-0.073963
-0.056104
-0.050363
-0.06312
-0.046218
-0.032504
-0.014008
0.00066221
0.018202
0.022986
0.078157
0.13365
0.13205
0.17415
0.16012
0.13301
0.16076
0.16394
0.20253
0.21912
0.15214
0.17702
0.13811
0.19009
0.207
0.16554
0.11675
0.075606
0.094103
0.059023
0.023943
0.035423
-0.00029452
0.016608
-0.017516
-0.088952
-0.073644
-0.087357
-0.091503
-0.11446
-0.13105
-0.13711
-0.1403
-0.15018
-0.15369
-0.15114
-0.12563
-0.11829
-0.094373
-0.088314
-0.095968
-0.088633
-0.085125
-0.10394
-0.0864
-0.068541
-0.072368
-0.055147
-0.062163
-0.067585
-0.063439
-0.058017
-0.037288
-0.0076295
-0.017197
-0.026764
-0.0098618
0.0060837
0.015651
0.004808
0.030002
0.018521
0.0013
-0.0018891
-0.014327
-0.032186
0.020435
0.041483
0.0060837
0.011505
0.013738
0.02777
0.020754
0.017564
0.031278
0.038931
0.038931
0.054558
0.061574
0.041164
0.039569
0.032234
0.053601
0.084217
0.087725
0.11547
0.11451
0.10877
0.12727
0.13524
0.099843
0.11388
0.12823
0.15087
0.14736
0.13492
0.15055
0.10813
0.07433
0.10176
0.069228
0.038612
-0.012413
-0.0085862
-0.028996
-0.045261
-0.056104
-0.083849
-0.091184
-0.099794
-0.10011
-0.1336
-0.14699
-0.11765
-0.13998
-0.12052
-0.11478
-0.1218
-0.11415
-0.094054
-0.076514
-0.055466
-0.086081
-0.072687
-0.052915
-0.04845
-0.045261
-0.026445
-0.034737
-0.051001
-0.034099
-0.045261
-0.034737
-0.0047593
-0.01337
-0.03091
-0.042072
-0.020067
-0.014008
-0.017197
-0.0060349
0.019159
0.049137
0.03064
0.0016189
0.021072
0.013738
0.043077
0.052007
0.062212
0.060936
0.076563
0.089957
0.043077
0.054239
0.037656
0.043715
0.04531
0.02458
0.023943
0.041802
0.046266
0.039888
0.021391
0.031278
0.051688
0.09187
0.067952
0.088044
0.10303
0.094103
0.11611
0.10526
0.081028
0.076244
0.092508
0.067314
0.047542
0.07433
0.021391
0.014694
0.011505
-0.045261
-0.025488
-0.032823
-0.050044
-0.058974
-0.04271
-0.060887
-0.073006
-0.10043
-0.1151
-0.082254
-0.07779
-0.072049
-0.075238
-0.056742
-0.032504
-0.032504
-0.040796
-0.03952
-0.069817
-0.010181
0.023624
0.022667
0.015651
0.016289
0.022986
0.013419
0.0019378
0.026175
0.038294
0.012462
0.0095917
0.016608
0.041483
0.015651
0.043715
0.079114
0.080709
0.086449
0.076244
0.069866
0.089
0.11675
0.10208
0.1008
0.11738
0.078795
0.048499
0.07433
0.058704
0.05392
0.052963
0.066677
0.019797
-0.0095429
0.021391
0.028088
-0.012094
-0.049407
-0.056104
-0.018791
-0.012413
-0.015921
-0.058655
-0.076833
-0.084168
-0.058655
-0.05419
-0.063758
-0.072687
-0.059293
-0.049407
-0.04558
-0.062482
-0.062163
-0.044304
-0.014964
-0.01337
-0.035375
-0.032504
-0.020067
0.0060837
-0.017197
-0.017516
-0.0050782
0.0070404
0.022667
0.028407
0.015651
0.019478
0.017883
0.026494
0.050731
0.043396
0.027451
0.037018
0.04531
0.036699
0.055515
0.044034
0.055515
0.032553
0.029045
0.050093
0.018202
0.040845
0.03638
0.008635
0.0057648
-0.0025269
0.0054459
0.014056
-0.0041214
-0.01911
-0.0098618
0.011186
0.020435
0.01884
0.0070404
0.014375
0.019159
0.047542
0.099843
0.10845
0.092189
0.076882
0.07752
0.10144
0.089319
0.054239
0.076882
0.10495
0.093146
0.11962
0.14736
0.10048
0.11962
0.11579
0.09506
0.090276
0.088681
0.079752
0.046904
0.047542
0.042121
0.01597
0.017883
-0.01337
-0.040158
-0.04845
-0.087357
-0.11032
-0.11351
-0.12658
-0.13392
-0.12339
-0.11415
-0.12977
-0.13966
-0.13424
-0.11478
-0.11096
-0.12116
-0.11159
-0.10394
-0.073963
-0.079384
-0.084806
-0.086719
-0.062801
-0.04845
-0.043985
-0.043028
-0.041115
-0.053871
-0.053552
-0.028996
-0.0063538
-0.02804
-0.052277
-0.068541
-0.05132
-0.030272
-0.019429
-0.021343
-0.01911
-0.0105
-0.0069916
0.0051269
0.018521
0.0060837
0.020754
0.042439
0.033829
0.022667
0.026175
0.023943
0.075287
0.092189
0.080709
0.060617
0.072098
0.054239
0.061893
0.086768
0.099524
0.083579
0.074649
0.093146
0.10909
0.1582
0.1464
0.10431
0.10558
0.10239
0.12025
0.099205
0.074012
0.081346
0.074968
0.044034
0.05392
0.01597
0.0032135
-0.012094
-0.053234
-0.080022
-0.10681
-0.12371
-0.11128
-0.13041
-0.13232
-0.13009
-0.11957
-0.12626
-0.12435
-0.11893
-0.12786
-0.091503
-0.063758
-0.12339
-0.11606
-0.058655
-0.065352
-0.076195
-0.068222
-0.06312
-0.060887
-0.0041214
-0.0050782
0.0051269
0.016927
0.01023
0.022667
0.021072
0.049455
0.041164
0.041483
0.020435
0.052963
0.073055
0.064125
0.040207
0.028088
0.017883
0.018202
0.044672
0.050412
0.028726
0.020754
0.019797
0.011186
0.051688
0.058704
0.040845
0.026813
0.035104
0.020754
0.02171
0.037656
0.028407
0.038294
0.031278
0.029045
0.01884
0.020754
0.060936
0.052963
0.023305
0.040845
0.015651
0.010867
-0.0038025
-0.0095429
0.0003433
-0.017516
-0.024851
-0.056742
-0.037607
-0.043666
-0.04271
-0.044942
-0.065352
-0.066947
-0.044304
-0.023894
-0.044942
-0.046855
-0.025488
0.03351
0.031278
0.011505
-0.011456
-0.01337
-0.00029452
0.022348
0.035423
0.019478
0.03064
0.046585
0.023305
0.0099106
0.0067215
-0.0060349
0.0041702
-0.0028458
-0.014008
-0.0063538
-0.037926
-0.034737
-0.028996
-0.002208
-0.0105
-0.016559
-0.026764
0.023305
0.01597
0.048499
0.052326
0.057747
0.057747
0.037975
0.037975
0.041164
0.066995
0.058704
0.058385
0.023305
0.021072
0.052326
0.069866
0.017564
0.022348
0.029364
0.020116
0.043396
0.053282
0.064444
0.071779
0.06859
0.044353
0.029364
0.032234
0.014694
-0.022618
-0.0079484
0.0044891
-0.012094
-0.02804
-0.045899
-0.069498
-0.066947
-0.047812
-0.062482
-0.061844
-0.06886
-0.071093
-0.06312
-0.046218
-0.041115
-0.028996
-0.026126
-0.022618
-0.0018891
-0.0069916
-0.018791
-0.029953
-0.014008
0.0092728
0.030002
0.022667
0.0022568
0.0076782
0.0070404
0.029364
0.022348
0.019159
0.021072
0.022667
0.028726
0.017883
0.04531
0.036699
0.035742
0.033829
0.042121
0.024899
0.020435
0.017246
0.024262
0.045947
0.0057648
0.0051269
0.019478
0.027451
-0.011456
0.017564
0.01884
0.045947
0.032553
0.0016189
0.036061
0.047861
0.033829
0.014056
0.0092728
0.0044891
0.023305
0.026175
-0.02198
-0.04558
0.0038513
-0.0041214
-0.005716
-0.028359
-0.040477
-0.03378
-0.020705
-0.039839
-0.013689
-0.025807
-0.028678
-0.019748
-0.023256
-0.022937
-0.015283
-0.027721
-0.047493
-0.034418
-0.022618
-0.017197
-0.025488
-0.013051
-0.0031647
0.0064026
0.018521
0.0051269
0.0067215
0.0032135
0.02171
0.01884
0.018521
0.028726
-0.0038025
-0.005716
0.035742
0.048818
0.012143
-0.0047593
0.0003433
0.01023
0.022029
0.010548
0.0054459
0.0044891
0.0073593
0.0092728
-0.0089051
0.026813
0.029683
0.028407
0.025856
0.016289
0.055834
0.026813
0.024899
0.061893
0.023305
0.030002
0.068271
0.061574
0.03638
0.01597
-0.018153
0.011505
-0.0073105
-0.00061343
-0.035694
-0.00093234
0.0067215
-0.020386
-0.01624
-0.024851
-0.029634
-0.023575
-0.0034836
0.0067215
0.011824
0.016608
0.024899
0.031915
0.028407
0.02458
-0.00093234
-0.0031647
-0.016559
0.0044891
0.0054459
0.0003433
0.014056
0.0003433
-0.01624
-0.025807
-0.011775
-0.0089051
-0.00029452
0.0013
0.0025757
0.01884
0.044034
0.029683
0.037656
0.019797
0.050412
0.058385
0.072098
0.063169
0.026175
0.017246
0.013738
2.4388e-05
0.00066221
-0.011775
-0.019748
-0.041115
-0.050363
-0.062482
-0.072368
-0.056742
-0.051001
-0.056423
-0.059931
-0.063439
-0.061525
-0.047174
-0.03378
-0.032186
0.020435
0.050093
0.085811
0.04818
0.039888
0.040526
0.061574
0.11643
0.12791
0.1362
0.07752
0.091233
0.11069
0.09506
0.10335
0.096335
0.058066
0.069547
0.046585
0.035742
0.0035324
-0.0085862
0.011505
-0.038564
0.01023
0.004808
-0.0047593
-0.010819
-0.043666
-0.042072
-0.04271
-0.046536
-0.030272
-0.013051
-0.030272
-0.053234
-0.061206
-0.060569
-0.071093
-0.054828
-0.06312
-0.086719
-0.066309
-0.06886
-0.053871
-0.052915
-0.064714
-0.06025
-0.052915
-0.058974
-0.06312
-0.059612
-0.03665
-0.012094
-0.010819
-0.027402
-0.028996
-0.01337
0.0131
0.01597
0.042121
0.032234
0.05105
0.08326
0.083579
0.096654
0.10335
0.063806
0.069228
0.044991
0.078795
0.069547
0.052326
0.030959
0.024899
0.043715
0.024262
0.0095917
0.02777
0.045947
0.055515
0.070185
0.055515
0.042121
0.034467
0.059661
0.055515
0.078795
0.085492
0.047223
0.030002
0.044991
0.039888
0.022986
0.012143
-0.0025269
-0.01911
-0.06599
-0.022618
-0.035375
-0.050363
-0.059612
-0.088633
-0.1269
-0.098519
-0.067903
-0.12148
-0.12913
-0.099157
-0.07779
-0.067903
-0.06886
-0.093735
-0.073963
-0.054828
-0.0012513
-0.015921
-0.023256
-0.010819
-0.0085862
0.0095917
2.4388e-05
0.02777
0.013738
0.02458
0.027132
0.0016189
0.016927
0.0079971
0.0025757
0.020754
0.03351
0.020435
0.0038513
0.012781
0.010867
-0.0047593
-0.01337
-0.010819
-0.0089051
-0.0076295
0.014694
0.024899
0.013419
0.041802
0.089957
0.084854
0.10782
0.13333
0.11866
0.1362
0.15374
0.17287
0.17096
0.11419
0.099205
0.10686
0.11164
0.094103
0.078157
0.013738
-0.015921
-0.046218
-0.075238
-0.059612
-0.071411
-0.10777
-0.11415
-0.11478
-0.11989
-0.11032
-0.13934
-0.1202
-0.12212
-0.097562
-0.078109
-0.087676
-0.086719
-0.087038
-0.058336
-0.052915
-0.036969
-0.023575
-0.020386
-0.018791
0.008635
-0.0044404
0.028726
0.043396
0.014694
0.029364
0.046904
0.050731
0.038612
0.064444
0.072736
0.05392
0.05679
0.065082
0.03064
0.0051269
-0.00029452
0.00098112
0.014694
-0.0073105
-0.028678
-0.047493
-0.047493
-0.012094
-0.017197
-0.045899
-0.03665
-0.023575
-0.022618
-0.0063538
-0.0034836
-0.015921
-0.00029452
0.016927
-0.0012513
-0.012413
-0.021661
-0.0031647
-0.010819
0.0003433
0.00098112
0.03351
0.019797
0.013419
0.021072
0.024899
0.02458
0.02171
0.048818
0.039888
0.038294
0.037337
0.04531
0.055834
0.057747
0.037018
0.052007
0.044034
0.023305
-0.0095429
0.027132
0.017564
0.026813
0.030321
0.0095917
-0.016559
-0.0028458
-0.002208
-0.0041214
-0.0038025
-0.0063538
-0.0047593
0.015651
0.0051269
0.021072
0.0131
0.047542
0.044353
0.039888
0.023943
0.046585
0.015651
0.0003433
0.01884
-0.012413
-0.0076295
-0.0044404
-0.034418
-0.046218
-0.02198
-0.017835
-0.024213
-0.034418
-0.044304
-0.030591
-0.0053971
0.0051269
0.01597
0.021072
0.029045
0.037018
0.041164
0.056471
0.073055
0.062531
0.040526
0.052007
0.070185
0.059342
0.073374
0.044353
0.026813
0.031596
0.016289
0.0064026
-0.0105
-0.029634
-0.0047593
-0.041753
-0.05132
-0.068541
-0.066947
-0.031867
-0.038564
-0.048769
-0.062163
-0.040477
-0.0044404
-0.018791
0.00066221
-0.00061343
2.4388e-05
-0.0034836
-0.013051
-0.0085862
0.017564
0.052007
0.034786
0.01023
0.03064
0.037656
0.037975
0.028407
0.01884
0.030321
0.037018
0.04531
0.01884
0.038612
0.026494
0.0019378
-0.0095429
-0.047174
-0.060569
-0.037607
-0.021661
-0.032504
-0.054509
-0.080979
-0.044942
-0.029634
-0.063758
-0.049088
-0.030591
-0.045899
-0.023256
-0.029634
-0.026445
-0.0015702
-0.0076295
-0.015921
-0.0038025
-0.0066727
-0.0073105
0.034786
0.053282
0.039569
0.028088
0.033829
0.034786
0.029364
0.040845
0.047223
0.041164
0.06285
0.066039
0.066995
0.030959
0.047861
0.061893
0.066358
0.045947
0.029045
0.01884
0.020435
0.035104
0.041164
0.0038513
0.0019378
-0.00093234
-0.016878
-0.031548
-0.036331
-0.086719
-0.061206
-0.050682
-0.039202
-0.0063538
0.010867
0.020754
0.014694
0.021391
0.043077
0.047861
0.031915
0.021391
0.030959
0.014375
0.010867
0.033829
0.030002
-0.015921
0.0044891
-0.03952
-0.053871
-0.062482
-0.044304
-0.03665
-0.037607
-0.015602
-0.02804
-0.051639
-0.046855
0.00098112
-0.016559
-0.02517
-0.015602
-0.023575
-0.026445
-0.0105
-0.011137
-0.0105
-0.037607
-0.054828
-0.0041214
0.016927
0.017246
0.0013
-0.043347
-0.0060349
0.012143
-0.011456
0.0067215
0.008635
0.0041702
0.011505
0.0095917
0.0079971
-0.005716
0.0057648
0.026175
0.03351
0.032553
0.078157
0.097292
0.075606
0.07752
0.068909
0.067952
0.071779
0.088681
0.04818
0.090595
0.078476
0.047223
0.014375
0.027132
-0.013051
-0.002208
0.0089539
-0.023575
-0.038564
-0.069498
-0.0864
-0.085125
-0.075876
-0.075876
-0.055785
-0.087038
-0.059293
-0.028996
-0.035056
-0.021024
0.042758
0.021391
-0.002208
0.016289
0.033829
0.038294
0.022029
0.031915
0.058385
0.052326
0.012781
-0.012094
0.0060837
0.012781
0.0060837
-0.012413
-0.041434
-0.03952
-0.02804
-0.029953
-0.005716
-0.0025269
0.022029
-0.013051
-0.021024
-0.012094
-0.0063538
0.021072
0.0099106
0.012781
0.0070404
0.02458
0.0032135
0.020435
0.039888
0.022029
0.025856
0.030959
0.035104
0.027132
0.013738
0.02458
0.02458
-0.021024
-0.0044404
0.038612
0.0054459
0.015651
0.047542
0.033829
0.028407
0.014694
0.027451
0.049455
0.033191
0.036061
0.028726
0.043715
0.02777
0.0092728
0.030321
0.0076782
0.012781
-0.017516
-0.015283
-0.0073105
-0.0098618
0.014375
-0.0034836
-0.020067
0.0032135
-0.011456
0.00066221
0.0070404
-0.029315
-0.0028458
-0.0063538
-0.026445
-0.036331
-0.037607
-0.056742
-0.054509
-0.06599
-0.066309
-0.0095429
-0.022618
-0.029953
-0.043347
-0.051639
-0.056423
-0.035375
-0.031229
-0.026764
-0.040158
-0.044304
-0.056423
-0.026764
-0.02804
-0.022937
-0.034737
-0.046855
-0.03952
-0.025488
0.01023
0.010867
0.0028946
0.0092728
0.039888
0.061255
0.040207
0.030002
0.045629
0.083579
0.089
0.055834
0.050412
0.057747
0.058066
0.055196
0.051369
0.093146
0.04531
0.00098112
0.0095917
0.015332
0.0003433
-0.0044404
0.020435
-0.013051
-0.013051
-0.01624
-0.021024
-0.051639
-0.009224
-0.0018891
-0.01624
-0.01337
-0.012094
-0.005716
-0.0050782
0.020754
0.020116
0.017246
0.023624
0.0003433
0.0089539
0.026494
0.039888
0.052326
0.049774
0.023305
0.0016189
0.020116
0.016289
-0.009224
-0.034418
-0.016559
-0.014964
-0.050363
-0.070455
-0.068222
-0.069498
-0.065033
-0.066309
-0.047493
-0.051639
-0.041115
-0.024851
-0.011775
2.4388e-05
-0.0069916
-0.0031647
0.008316
0.022029
0.031278
0.035742
-0.0066727
-0.017516
-0.00061343
0.0044891
-0.0018891
-0.016559
-0.0076295
-0.024213
-0.022299
-0.015921
-0.0012513
-0.011456
-0.01911
-0.021024
-0.0038025
0.0079971
0.011186
0.0019378
-0.018153
-0.014645
-0.00061343
0.016608
0.030959
0.037975
0.011824
-0.0095429
-0.0079484
0.017883
0.01597
-0.0085862
-0.0038025
0.0051269
0.021072
-0.0073105
-0.040796
-0.036969
-0.0063538
-0.0085862
-0.022618
-0.036012
-0.015283
0.013419
0.03351
0.029683
0.011824
0.008635
-0.0028458
0.029045
0.030959
0.028726
0.065082
0.079752
0.040845
0.046904
0.048499
0.044353
0.044353
0.072736
0.093465
0.055196
0.083898
0.090595
0.064444
0.046266
0.047542
0.063806
0.022348
0.02458
0.03925
0.021391
0.031915
0.031915
0.011186
0.023624
0.013419
-0.0076295
-0.0038025
0.039569
0.021072
-0.021343
-0.029315
-0.032186
-0.034099
-0.036012
-0.064395
-0.077471
-0.087038
-0.079384
-0.070774
-0.086719
-0.096924
-0.094373
-0.089589
-0.078746
-0.079384
-0.062801
-0.050682
-0.033142
-0.015921
-0.011456
-0.017516
-0.023256
-0.032504
-0.022618
-0.0012513
0.037337
0.03351
0.029045
0.053282
0.03925
0.028726
0.015651
0.028088
0.038931
0.053282
0.024899
0.016289
-0.0038025
-0.032823
0.021072
0.0028946
-0.0018891
-0.013689
-0.026764
-0.0060349
-0.012094
-0.024532
2.4388e-05
-0.017835
2.4388e-05
0.028726
0.0073593
0.012143
0.036699
0.028726
0.0092728
0.019159
0.028726
0.028726
-0.0053971
0.0016189
0.011824
0.019159
0.011824
0.0016189
-0.017197
-0.036969
-0.027083
-0.0079484
-0.011775
-0.0073105
-0.011775
-0.020705
-0.024851
-0.002208
0.0079971
0.025856
0.028726
0.037975
0.051369
0.038612
0.014375
-0.0085862
0.025856
0.041164
0.0095917
-0.017835
-0.024851
-0.059293
-0.082573
-0.035056
-0.033142
-0.04845
-0.037926
-0.096286
-0.072687
-0.049407
-0.031229
-0.03665
-0.032823
-0.021343
0.0038513
0.0016189
-0.013051
-0.0018891
0.029683
0.063487
0.064444
0.073374
0.022348
-0.00061343
0.037018
0.059979
0.031278
0.054558
0.05679
0.035742
0.037018
0.0067215
0.0041702
0.00098112
-0.013051
-0.02198
0.019478
0.01023
-0.011775
-0.0089051
-0.010181
-0.0098618
0.02777
0.038931
0.037018
0.0095917
0.022986
0.031278
0.016927
0.026813
0.036699
0.020116
0.05392
0.06285
0.023943
0.01023
0.0013
0.0025757
-0.010181
0.017883
0.017883
-0.0018891
-0.049407
-0.050044
-0.035375
-0.032823
-0.027083
-0.027721
-0.044304
-0.038564
-0.023575
-0.034737
-0.043985
-0.024213
-0.01337
-0.041115
-0.015283
-0.029953
-0.057379
-0.049407
-0.061206
-0.063758
-0.063758
-0.085443
-0.10585
-0.073963
-0.049726
-0.056423
-0.071093
-0.065033
-0.053234
-0.051958
-0.043028
-0.0028458
-0.010819
-0.015921
-0.0047593
-0.0025269
-0.00029452
0.010548
0.0003433
-0.0018891
0.00066221
0.03064
0.047223
0.033829
0.031278
0.037018
0.044353
0.054239
0.074649
0.042121
0.035742
0.03925
0.04818
0.041483
0.053601
0.044991
-0.00061343
0.01884
0.023943
0.015651
0.026813
0.03638
0.01884
0.038612
0.068271
0.041483
0.056153
0.077838
0.042758
0.040207
0.043077
0.047542
0.066039
0.062212
0.036699
0.0054459
0.042439
0.032234
-0.0047593
0.025856
0.012781
0.0064026
-0.011137
-0.012732
-0.03378
0.0076782
-0.0038025
-0.021343
-0.040477
-0.030591
-0.031867
-0.042391
-0.034737
-0.037926
-0.017197
-0.043985
-0.035694
-0.03378
-0.038883
-0.04558
-0.047812
-0.033461
-0.036331
-0.040796
-0.054828
-0.048769
-0.061844
-0.043985
-0.01624
-0.0076295
-0.027721
-0.013051
-0.0095429
-0.012413
0.012462
-0.0015702
0.0064026
0.0131
0.0076782
-0.00029452
0.010867
-0.00061343
-0.016878
-0.010181
-0.012413
0.0095917
-0.0018891
-0.017197
-0.028996
-0.009224
0.013738
0.037337
0.019159
0.011186
0.023943
0.047542
0.034786
0.022029
0.026494
0.01597
0.040207
0.05105
0.033829
0.072736
0.050731
0.019159
-0.00093234
0.034148
0.044991
0.049137
0.022667
-0.011137
0.0057648
0.020754
-0.0031647
0.0089539
0.0089539
0.010548
-0.029953
-0.019429
-0.014645
-0.049407
-0.07779
-0.017197
-0.021024
-0.044623
-0.047812
-0.058336
-0.050044
-0.057698
-0.040796
-0.037607
-0.045261
-0.024213
-0.010819
0.008316
0.020435
0.045629
0.027132
0.0079971
0.035104
0.092827
0.091233
0.069547
0.052645
0.060617
0.054239
0.038294
0.02777
0.010548
-0.015283
0.0076782
0.0028946
-0.013051
-0.023894
-0.038564
-0.040158
-0.051001
-0.053871
-0.05419
-0.046855
-0.03378
-0.030591
-0.047493
-0.01911
-0.01624
-0.032186
-0.017516
-0.0044404
0.0035324
0.0079971
-0.00061343
0.0064026
0.012143
-0.0038025
-0.03091
-0.002208
-0.022618
-0.029953
-0.031229
-0.058017
-0.068541
-0.071093
-0.056742
-0.053234
-0.038245
-0.053234
-0.059612
-0.043666
-0.047174
-0.036331
0.028726
0.012143
0.0035324
0.013738
0.023943
0.020435
0.016608
0.034148
0.035104
0.057747
0.045629
0.055515
0.028726
0.060617
0.07146
0.069228
0.07433
0.055515
0.05392
0.033191
0.051369
0.036699
0.028088
0.019159
0.02171
0.0079971
-0.0085862
-0.041115
-0.03665
-0.042072
-0.037288
-0.021343
-0.033142
-0.038245
-0.045261
-0.038883
-0.040796
-0.014645
-0.0034836
0.0016189
-0.024532
-0.011775
0.052963
0.062531
0.059023
0.05679
0.077838
0.090276
0.090276
0.07146
0.058066
0.071141
0.083898
0.050731
0.030959
0.017246
0.0028946
-0.027721
-0.040477
-0.03665
-0.075238
-0.077152
-0.093735
-0.10936
-0.11223
-0.087357
-0.077152
-0.082254
-0.10426
-0.096286
-0.07779
-0.081298
-0.062163
-0.06025
-0.040477
-0.031548
-0.032504
-0.029953
-0.018153
-0.0038025
-0.009224
-0.021024
-0.0089051
-0.0038025
-0.0076295
0.030002
0.022029
0.013738
-0.0098618
-0.0082673
-0.009224
-0.023894
0.0019378
0.028726
0.021391
-0.0079484
-0.035056
0.00098112
0.035104
0.05105
0.05105
0.02171
0.018202
0.040207
0.05679
0.054558
0.043396
0.039569
0.043715
0.084854
0.084217
0.067633
0.081346
0.052645
0.054558
0.070503
0.059661
0.040845
0.043396
0.031915
0.034786
0.012143
-0.0076295
-0.023894
-0.047493
-0.049726
-0.027083
-0.03378
-0.064395
-0.085443
-0.080979
-0.074919
-0.077471
-0.065671
-0.067585
-0.072049
-0.069179
-0.067266
-0.078427
-0.064077
-0.074282
-0.080022
-0.056742
-0.040158
-0.036331
-0.050363
-0.053552
-0.040477
-0.012094
-0.0044404
0.0016189
-0.022618
-0.018791
0.0016189
0.0099106
-0.0050782
0.004808
0.020754
0.019478
0.044991
0.033829
0.040845
0.055515
0.052963
0.042121
0.045629
0.053282
0.049455
0.033829
0.057109
0.072098
0.030959
0.041483
0.035104
0.0131
-0.00061343
0.021391
0.023305
0.01597
0.0099106
0.016927
0.019159
0.036699
0.061893
0.070822
0.03925
0.041164
0.062212
0.034148
0.037656
0.043715
0.03638
0.049137
0.013419
0.043715
0.013738
-0.015921
-0.014327
-0.022937
-0.012094
-0.021024
-0.054509
-0.087676
-0.074601
-0.058017
-0.065671
-0.078746
-0.09246
-0.0864
-0.070774
-0.087357
-0.082573
-0.084487
-0.068222
-0.043985
-0.0044404
0.024899
0.038612
0.039569
0.011505
0.023305
0.058066
0.013419
0.028407
0.062212
0.02458
0.029045
0.025537
0.017246
0.008635
-0.0018891
-0.009224
-0.022299
-0.025807
-0.03091
-0.049088
-0.046855
0.017246
0.0044891
0.012781
-0.021343
-0.011775
0.012143
-0.014645
0.0041702
0.016289
0.010548
0.012462
0.017883
0.0070404
-0.015921
-0.023894
-0.022618
-0.031548
-0.02804
-0.026126
-0.044304
-0.03091
-0.04558
-0.022937
-0.032504
-0.033142
-0.010181
-0.0089051
-0.0034836
0.0079971
0.030959
0.041164
0.031915
0.0051269
0.020435
0.023624
0.02171
0.016289
-0.00029452
-0.0060349
0.010548
0.0003433
-0.029953
-0.0025269
0.0044891
-0.0050782
-0.01624
-0.02198
-0.050044
-0.054509
-0.049088
-0.029953
-0.011456
-0.031229
-0.028996
-0.050682
-0.058336
-0.037607
-0.020067
-0.045899
-0.028678
-0.033142
-0.01337
-0.014645
-0.014327
0.0025757
0.017564
0.015651
0.037337
0.035742
0.046904
0.041802
0.054558
0.077838
0.081665
0.1008
0.080071
0.10112
0.11611
0.089319
0.11037
0.10877
0.080071
0.059661
0.044353
0.025218
0.00098112
0.0089539
-0.01911
-0.039839
-0.040477
-0.079065
-0.088952
-0.085443
-0.093735
-0.10075
-0.11415
-0.082573
-0.086719
-0.10011
-0.11032
-0.098838
-0.095011
-0.073644
-0.073644
-0.076195
-0.084806
-0.081935
-0.056742
-0.058017
-0.04558
-0.015921
-0.011775
0.019797
-0.00093234
-0.009224
-0.0044404
0.0089539
0.013419
0.026175
0.026813
0.02777
0.0095917
-0.0085862
0.017883
0.004808
-0.011137
-0.011456
-0.026764
-0.026126
-0.0095429
-0.0012513
-0.0098618
-0.020067
-0.0105
-0.011456
0.0044891
0.035742
0.03925
0.032234
0.045629
0.084217
0.069547
0.070822
0.080071
0.078476
0.08613
0.10144
0.073055
0.051369
0.067633
0.044991
0.028088
0.026494
0.011505
-0.0069916
0.0038513
-0.023256
-0.034099
-0.026126
-0.017197
0.00098112
0.0035324
0.02458
-0.0066727
-0.00093234
2.4388e-05
0.03351
0.017883
0.0073593
0.0131
-0.0085862
-0.011775
-0.0018891
-0.009224
-0.025807
-0.027402
-0.032186
-0.031867
-0.039839
-0.037288
-0.036969
-0.046536
-0.05132
-0.043347
-0.023575
-0.037607
-0.053552
-0.079065
-0.058336
-0.031548
-0.04845
-0.043347
-0.051958
-0.060569
-0.074601
-0.060569
-0.046218
-0.046536
-0.063439
-0.066947
-0.03091
-0.0066727
-0.012094
-0.031548
-0.04558
0.0064026
0.018202
0.023305
0.019478
0.02458
0.028726
0.053601
0.042121
0.046266
0.054877
0.05105
0.056153
0.048818
0.063806
0.035742
0.031278
0.033191
0.038294
0.064763
0.044672
0.039569
0.075925
0.071141
0.057747
0.045947
0.055196
0.09506
0.070503
0.054239
0.040845
0.04818
0.024262
0.0099106
2.4388e-05
0.010867
0.0038513
-0.009224
-0.027083
-0.037607
-0.069179
-0.053552
-0.033142
-0.050363
-0.074282
-0.071093
-0.08066
-0.070136
-0.058336
-0.074601
-0.06886
-0.052915
-0.066309
-0.03378
-0.030272
-0.01911
-0.044304
-0.055147
-0.027402
-0.036969
-0.021343
-0.0089051
-0.0012513
-0.042391
-0.047174
-0.057379
-0.05419
-0.034737
-0.02804
-0.026445
-0.045899
-0.050682
-0.036969
-0.018791
0.0067215
0.02458
0.035423
0.016608
0.022986
0.03351
0.055515
0.049137
0.0035324
0.004808
0.0025757
0.027132
0.052007
0.019797
0.0067215
0.016289
0.022029
0.023943
0.026175
0.01597
0.028407
0.0067215
0.0073593
0.020116
0.032234
0.012143
-0.01337
0.027451
0.052645
0.0054459
-0.002208
-0.0069916
0.00098112
-0.00061343
0.011505
0.0131
0.034467
0.032234
0.022029
0.023305
0.021072
-0.0012513
0.0131
0.014375
0.015651
0.023943
0.014694
-0.018472
-0.018791
-0.012413
-0.0098618
-0.00093234
-0.029315
-0.042072
-0.039202
-0.041753
-0.049407
-0.049407
-0.043985
-0.065033
-0.055147
-0.066309
-0.072049
-0.08066
-0.057698
-0.044942
-0.043028
-0.061525
-0.029315
-0.025488
-0.020067
-0.015921
-0.012094
0.013419
0.012781
0.021391
0.011824
0.0070404
0.0054459
0.050731
0.056471
0.038294
0.019797
0.017883
0.04818
0.035742
0.0131
-0.013689
0.0019378
-0.010181
-0.013689
-0.0073105
-0.021661
-0.014964
-0.010819
-0.0047593
-0.0034836
-0.0031647
-0.009224
2.4388e-05
-0.0050782
0.023624
0.0089539
0.013419
0.0099106
0.013738
0.025218
-0.010181
-0.019429
-0.018153
-0.0025269
-0.01911
-0.029315
-0.017835
-0.011456
-0.012732
-0.0079484
0.020435
0.016289
-0.0012513
-0.0044404
-0.011775
0.0073593
0.0131
0.018202
0.016927
0.0003433
0.017246
-0.005716
-0.022618
-0.00093234
0.0092728
-0.00061343
0.0019378
0.0025757
0.0022568
0.008635
-0.0105
0.0073593
0.0054459
-0.015283
-0.0015702
-0.022937
-0.045899
-0.037288
-0.035694
-0.037288
-0.042391
-0.026445
-0.06025
-0.053552
-0.023256
-0.026764
-0.030591
-0.05419
-0.045261
-0.015283
-0.002208
-0.00061343
-0.00029452
0.011505
0.017883
0.040207
0.042758
0.032872
0.035423
0.064763
0.091552
0.10495
0.087087
0.097611
0.10495
0.091233
0.074968
0.094103
0.076244
0.039888
0.10112
0.06572
0.028407
0.03925
0.049774
0.0095917
0.023305
0.026813
-0.00029452
-0.0085862
-0.009224
-0.012094
-0.023894
-0.026764
-0.034099
-0.03952
-0.042072
-0.038564
-0.03378
-0.034418
-0.047493
-0.070455
-0.070136
-0.068541
-0.074919
-0.10394
-0.081617
-0.082573
-0.078427
-0.079065
-0.095011
-0.090865
-0.085762
-0.065671
-0.078427
-0.062163
-0.044304
-0.048131
-0.043028
-0.0105
0.008635
0.01023
0.0057648
-0.0047593
-0.014327
-0.00029452
0.039569
0.035742
0.026175
0.0095917
0.023943
0.028407
0.018521
0.0076782
0.017883
0.038612
0.030321
0.020754
0.016289
0.012781
0.028726
0.035104
0.028407
0.02171
0.0038513
-0.012413
-0.016878
0.021391
0.04531
0.023305
0.05392
0.054239
0.038294
0.023624
0.037337
0.028407
0.015332
0.01597
0.038612
0.027132
0.0013
-0.023575
-0.037607
-0.0095429
-0.023894
-0.02198
-0.032186
-0.016559
-0.039202
-0.03952
-0.0073105
0.0003433
-0.01911
-0.021661
0.0032135
0.0095917
-0.0015702
-0.019748
0.020754
-0.0105
-0.0044404
0.012143
-0.0015702
-0.018791
-0.0018891
-0.019429
-0.036969
-0.024213
-0.028996
-0.0018891
0.020435
-0.0089051
-0.015283
-0.010181
-0.00093234
-0.0079484
-0.026126
-0.014645
-0.010181
-0.019748
-0.032823
-0.017516
-0.017516
-0.011456
0.01023
-0.0066727
-0.0073105
-0.040796
-0.043347
-0.030591
-0.033142
-0.016559
-0.014645
0.0032135
0.0019378
0.0064026
-0.00029452
-0.01911
-0.01337
-0.031548
-0.018153
-0.0085862
-0.025807
-0.021343
-0.0095429
-0.0053971
0.042758
0.015013
-0.0053971
-0.024532
0.004808
0.030002
0.035104
0.025856
0.023624
0.035104
0.015651
0.012462
-0.0047593
0.004808
0.011186
-0.014964
-0.035056
-0.048131
-0.047493
-0.064714
-0.044304
-0.037607
-0.045899
-0.051958
-0.020386
-0.015602
-0.017197
-0.017835
0.014694
0.018521
-0.0012513
0.030959
0.058066
0.037337
0.048818
0.067952
0.061893
0.042439
0.067314
0.058704
0.063169
0.052326
0.03638
0.03638
0.044034
0.0089539
-0.00061343
-0.029634
-0.011456
-0.017516
-0.036969
-0.053552
-0.075557
-0.10171
-0.074282
-0.074601
-0.085762
-0.093097
-0.10075
-0.079384
-0.075557
-0.054509
-0.052277
-0.050363
-0.055466
-0.037926
-0.0063538
0.0035324
0.008635
0.0013
0.038294
0.038931
0.05392
0.044034
0.027132
0.034467
0.026494
0.061574
0.044353
0.022986
0.028726
0.03638
0.004808
-0.012732
-0.024532
-0.023894
-0.038245
-0.022618
0.0013
-0.0028458
-0.0063538
0.0003433
-0.005716
-0.020705
-0.018791
-0.015921
-0.0073105
-0.0105
0.0079971
0.0092728
-0.02517
-0.028359
-0.03378
-0.044304
-0.012413
-0.015921
-0.017516
-0.029315
-0.036331
-0.032504
0.0035324
0.00098112
-0.015602
-0.02517
-0.028996
-0.010819
-0.01337
0.0016189
-0.016878
-0.023256
-0.014327
-0.014645
-0.014645
-0.015283
-0.011775
0.00098112
-0.03091
-0.04271
-0.0073105
0.0028946
-0.016559
-0.038245
-0.043347
-0.025488
-0.027721
-0.032823
-0.067585
-0.049726
-0.0095429
-0.0012513
-0.01337
-0.020705
0.0057648
0.0070404
0.014694
0.019797
0.025856
0.0070404
-0.0044404
0.024262
0.024899
0.044991
0.0057648
-0.0060349
0.00098112
0.026175
0.037337
0.050731
0.037018
0.019797
0.053282
0.049137
0.022029
0.035423
0.058704
0.070503
0.049774
0.0095917
0.012462
-0.005716
-0.012413
-0.012094
-0.0038025
-0.01337
0.0028946
0.0064026
0.026175
0.042439
0.028407
0.0079971
-0.00061343
0.03064
0.059342
0.03638
0.017246
0.01597
0.015013
0.0013
0.027132
-0.013689
-0.033142
-0.058336
-0.060569
-0.06599
-0.062482
-0.073325
-0.069498
-0.080979
-0.068541
-0.053234
-0.053552
-0.084487
-0.066628
-0.058336
-0.043985
-0.014964
-0.002208
-0.028678
-0.0098618
0.026494
0.0044891
0.030959
0.026494
0.011505
0.031596
0.059023
0.03351
0.015332
-0.0105
-0.00093234
0.025856
0.023624
0.037018
0.0035324
-0.0060349
-0.0012513
-0.0038025
0.012143
0.021391
-0.00093234
-0.029315
-0.00093234
0.0022568
-0.014645
-0.014645
-0.022937
-0.021024
-0.0098618
0.0089539
0.0019378
-0.031229
-0.034737
-0.02804
-0.0098618
0.027451
0.048499
0.054877
0.038612
0.038294
0.022986
0.047861
0.058704
0.024899
0.02458
0.031278
0.024899
0.024899
0.015332
-0.005716
-0.022299
-0.018791
-0.014964
-0.047174
-0.07779
-0.061844
-0.073006
-0.072368
-0.094692
-0.0864
-0.075557
-0.053234
-0.05419
-0.038245
-0.047493
-0.034418
-0.011775
-0.034418
-0.025807
-0.00029452
2.4388e-05
-0.034418
-0.00093234
0.0054459
2.4388e-05
0.012143
0.0022568
-0.022299
-0.0073105
-0.0069916
-0.012732
-0.0038025
0.0044891
0.020116
0.021391
0.0095917
0.0019378
0.0051269
0.014375
0.011186
0.030321
0.019797
-0.00061343
-0.0018891
-0.017197
-0.029634
-0.022299
-0.011456
0.014056
0.0016189
-0.0089051
-0.0050782
0.029683
-0.0018891
-0.023894
-0.010181
0.013419
0.014694
0.017883
0.01597
-0.00029452
0.027132
0.023305
0.023943
0.059023
0.066358
0.06572
0.047223
0.07752
0.12599
0.10144
0.081028
0.05679
0.088362
0.080709
0.050412
0.067314
0.040845
0.038294
-0.00029452
-0.0034836
-0.01911
-0.03952
-0.045261
-0.063439
-0.072687
-0.11415
-0.10936
-0.087357
-0.085762
-0.10266
-0.12276
-0.10872
-0.11861
-0.13487
-0.1202
-0.08927
-0.090227
-0.10522
-0.069498
-0.052915
-0.056742
-0.053234
-0.054509
-0.07779
-0.038245
-0.02517
-0.010181
-0.0050782
-0.027402
-0.027083
-0.0076295
-0.014645
0.0060837
0.0064026
0.013419
0.044353
0.032234
0.040207
0.021072
0.020116
0.048499
0.081346
0.039888
0.038612
0.041483
0.026494
0.017883
0.020435
0.032234
0.02171
0.023305
0.0095917
-0.0073105
-0.0085862
0.011824
0.02171
0.035742
0.0054459
0.037337
0.069866
-0.014645
0.0070404
0.017564
0.026494
0.020116
0.032872
0.050731
0.035423
0.011824
0.0079971
-0.00093234
0.019159
-0.005716
-0.0050782
0.022986
0.022986
0.0044891
-0.0044404
-0.0085862
-0.027083
0.00098112
0.034148
0.008635
0.0057648
0.010867
0.019478
0.014375
0.010867
-0.0085862
-0.028996
-0.043347
-0.035056
-0.03378
-0.033461
-0.043666
-0.048769
-0.06025
-0.046855
-0.056104
-0.072049
-0.061844
-0.046855
-0.056742
-0.078427
-0.056104
-0.028996
-0.0089051
-0.032504
-0.042391
-0.03378
-0.037607
-0.032823
-0.02517
-0.013689
-0.01337
-0.03091
-0.017516
0.0025757
-0.0060349
-0.014645
-0.020386
0.010867
-0.0076295
-0.031867
-0.031548
-0.0089051
-0.015283
-0.012094
0.010867
0.0003433
0.025537
0.031596
0.039569
0.043077
0.056153
0.061255
0.080709
0.099205
0.078157
0.064444
0.055515
0.06572
0.069547
0.044034
0.019159
0.00098112
-0.011775
-0.020705
-0.0063538
-0.0031647
-0.018153
-0.035694
-0.026764
-0.028359
-0.019429
-0.0060349
-0.01624
-0.012732
-0.012413
-0.038883
-0.043028
-0.060887
-0.045899
-0.040158
-0.044942
-0.043028
-0.066628
-0.061844
-0.04845
-0.05132
-0.039202
-0.034099
-0.050363
-0.065671
-0.05419
-0.019429
-0.011137
-0.02198
-0.037926
-0.044623
-0.020386
0.016289
0.0003433
-0.012413
-0.0025269
0.013419
0.039569
0.044991
0.032553
0.06572
0.054239
0.052326
0.061574
0.080071
0.078795
0.075925
0.055515
0.037018
0.027451
0.0044891
0.039569
0.030959
0.048818
0.011186
-0.016559
-0.0079484
-0.020067
-0.028359
-0.032186
-0.040158
-0.046218
-0.019429
-0.027721
-0.04271
-0.032504
-0.011456
-0.039202
-0.034099
-0.027721
-0.023894
-0.026764
-0.016878
-0.038564
-0.040158
-0.023575
-0.056742
-0.064714
-0.060569
-0.075876
-0.084168
-0.066309
-0.075557
-0.071411
-0.029634
-0.031229
-0.020705
-0.017516
-0.0098618
-0.0041214
0.0032135
0.014694
0.032234
0.030002
0.032234
0.012462
0.014694
0.021072
0.01884
0.029364
0.016608
-0.0018891
-0.0082673
0.013738
0.016927
0.025218
0.0079971
0.046585
0.040207
0.029683
-0.002208
0.0095917
0.025856
0.03638
0.035742
0.0038513
0.01597
0.032234
0.022667
0.041802
0.015332
-0.012094
-0.0069916
0.020754
0.013738
0.029683
0.016608
-0.0098618
-0.02198
-0.013689
-0.030591
-0.031229
-0.017197
-0.0089051
-0.025488
-0.038564
-0.030591
-0.024851
-0.022299
-0.020386
-0.03091
-0.034099
-0.059293
-0.047812
-0.041753
-0.027721
-0.051001
-0.053552
-0.03665
-0.036331
-0.026764
-0.040477
-0.041753
-0.017197
0.023305
0.033191
0.0067215
0.00098112
-0.005716
-0.011456
0.028726
0.029045
0.028088
0.0013
-0.0028458
0.0079971
0.0070404
-0.013051
-0.0076295
-0.011775
-0.00029452
0.0076782
0.00098112
-0.00061343
0.030002
0.048499
0.029045
0.032234
0.033829
0.01597
0.02458
0.030002
0.033829
0.031915
0.044034
0.026813
0.0041702
0.015651
0.034467
0.022667
-0.010819
-0.013689
0.026813
0.02777
-0.038245
-0.04845
-0.041434
-0.023894
-0.0098618
-0.031229
-0.033461
-0.055147
-0.052915
-0.038564
-0.022937
-0.019429
-0.043028
-0.038245
-0.033142
-0.037607
-0.041753
-0.043028
-0.031548
-0.046218
-0.031229
-0.040796
-0.058336
-0.044942
-0.069179
-0.057061
-0.036331
-0.03665
-0.049407
-0.057379
-0.059931
-0.041753
-0.037288
-0.028996
-0.031867
-0.042391
-0.048131
-0.014964
-0.009224
0.0038513
0.035104
0.052326
0.0067215
-0.0095429
0.0013
0.031596
0.040845
0.034786
0.052645
0.024899
0.0079971
0.013419
0.011186
0.024262
0.031596
0.033191
0.030002
0.06572
0.053601
0.04531
0.044034
0.055515
0.053282
0.05679
0.093784
0.08613
0.044991
0.044991
0.0064026
0.0099106
0.036061
0.010867
0.023305
0.012143
-0.015283
-0.019429
-0.005716
-0.0034836
-0.023894
-0.010819
-0.022299
-0.03378
-0.040477
-0.035056
-0.010819
-0.038245
-0.061525
-0.061206
-0.043028
-0.053234
-0.057698
-0.070136
-0.057379
-0.053234
-0.028996
-0.059293
-0.069817
-0.079065
-0.067585
-0.048769
-0.052915
-0.061844
-0.046218
-0.03952
-0.049726
-0.047493
-0.039839
-0.031229
-0.024213
-0.022937
-0.017835
-0.0098618
-0.017197
0.0019378
0.0028946
-0.0085862
0.0022568
-0.016878
-0.025488
-0.017835
0.0092728
0.030002
2.4388e-05
2.4388e-05
0.020116
0.025537
-0.0089051
0.020435
0.022348
0.064444
0.050412
0.029364
0.025537
0.010867
0.018202
0.03638
0.019797
0.011505
-0.021343
0.012143
0.03925
0.059023
0.050731
0.042758
0.061574
0.048818
0.054239
0.069228
0.083579
0.075606
0.096973
0.098568
0.061255
0.058066
0.032872
0.073374
0.055196
0.044353
0.028726
-0.0012513
-0.02804
-0.025807
-0.0047593
-0.056742
-0.072687
-0.051001
-0.065033
-0.083211
-0.084806
-0.08066
-0.070774
-0.076833
-0.08927
-0.080341
-0.069817
-0.073325
-0.063758
-0.053552
-0.058974
-0.049088
-0.054828
-0.049088
-0.043028
-0.04845
-0.039202
-0.035056
-0.06312
-0.03665
-0.043666
-0.032504
-0.028359
-0.029315
-0.031548
-0.014645
-0.00061343
-0.0105
0.0032135
-0.0079484
-0.017835
-0.027083
-0.024532
-0.030591
-0.03091
-0.032504
-0.010819
0.012781
-0.011456
-0.034418
-0.029315
-0.0073105
-0.0034836
0.011824
0.011505
0.028726
0.033191
0.041164
0.048499
0.050731
0.052963
0.040207
0.024899
0.03925
0.077201
0.055196
0.049774
0.066358
0.056153
0.065401
0.048818
0.039888
0.038931
0.019797
0.049774
0.060617
0.043077
0.023943
0.012462
0.033829
0.021391
0.0092728
0.0016189
0.024899
0.035742
0.0057648
0.026813
0.0092728
-0.017835
-0.032504
-0.034418
-0.025488
-0.039839
-0.03091
-0.055785
-0.055466
-0.053234
-0.056104
-0.067903
-0.067903
-0.065033
-0.066628
-0.057698
-0.040158
-0.048769
-0.045899
-0.025807
-0.0025269
-0.0079484
-0.0066727
-0.015283
-0.023894
-0.0028458
0.025856
0.023624
0.028088
0.015651
0.014694
0.0051269
0.020435
-0.0050782
-0.0028458
-0.024213
-0.028996
-0.013689
-0.01624
-0.022299
-0.048131
-0.085125
-0.066947
-0.03952
-0.061844
-0.056104
-0.036331
-0.028678
-0.029315
-0.024532
-0.023256
-0.02804
-0.014327
0.013738
0.020754
0.01884
0.0060837
0.010867
0.027132
0.0089539
-0.0063538
0.0057648
0.032553
0.047861
0.046904
0.020116
0.034786
0.022029
0.018521
0.037018
0.04531
0.019159
0.020754
0.022986
-0.0012513
0.010867
0.022029
0.0054459
0.013419
0.02171
-0.0044404
-0.02198
-0.021343
-0.027721
-0.024532
-0.034099
-0.031548
-0.021661
-0.032186
-0.043028
-0.051958
-0.03952
-0.032823
-0.042072
-0.035056
-0.009224
0.008635
0.011824
0.016289
0.037337
0.032553
0.015332
0.0070404
0.028407
0.0035324
0.0019378
-0.034737
-0.018153
-0.0098618
-0.022299
-0.029953
-0.059293
-0.058655
-0.030591
-0.042072
-0.061525
-0.045261
-0.057698
-0.041434
-0.034418
-0.026126
0.0079971
0.022986
-0.023894
-0.038883
-0.022937
-0.017197
0.0025757
0.013738
0.03351
0.022029
0.025537
0.028726
-0.00093234
0.0067215
0.021072
0.052007
0.053282
0.057747
0.059979
0.046585
0.035104
0.043077
0.052963
0.057109
0.05105
0.047542
0.058066
0.048499
0.044672
0.053601
0.052645
0.034467
0.021072
0.011505
-0.017835
-0.025488
-0.052596
-0.047493
-0.039839
-0.049407
-0.073963
-0.063439
-0.075238
-0.084806
-0.082573
-0.069498
-0.078109
-0.087676
-0.079065
-0.065033
-0.061206
-0.051958
-0.064714
-0.073006
-0.059293
-0.048131
-0.051001
-0.06599
-0.058974
-0.046536
-0.0047593
-0.032504
-0.052277
-0.022618
-0.028359
-0.020386
-0.01337
-0.040796
0.0051269
-0.00093234
-0.0060349
0.0092728
0.017246
0.028407
0.041483
0.029364
0.0079971
0.035423
0.064125
0.037337
0.055834
0.075925
0.07433
0.057109
0.056153
0.041802
0.072736
0.094422
0.071779
0.057109
0.051369
0.066995
0.042439
0.026175
0.016608
0.048499
0.037656
0.019797
-0.0066727
-0.018791
-0.01337
-0.027721
-0.057698
-0.070136
-0.045261
-0.019429
-0.03378
-0.040158
-0.025488
-0.037288
-0.028996
-0.027721
-0.048131
-0.036012
-0.020386
-0.025488
-0.02804
-0.020386
-0.030272
-0.03378
-0.03952
-0.038564
-0.044304
-0.050044
-0.05132
-0.04558
-0.010819
-0.03665
-0.038564
-0.036331
-0.053552
-0.05132
-0.037288
-0.025488
-0.03091
-0.064395
-0.072368
-0.059293
-0.049407
-0.050682
-0.056104
-0.06599
-0.051639
-0.02804
-0.046218
-0.03091
-0.036331
-0.027721
-0.011456
-0.019748
-0.0085862
0.018202
0.028088
0.025218
0.028726
0.056153
0.070822
0.058066
0.049137
0.069228
0.096335
0.10176
0.093146
0.096973
0.081028
0.094741
0.085811
0.071141
0.052007
0.048499
0.044672
0.011505
0.030002
0.038294
0.029045
0.046585
0.011824
0.010867
0.015013
0.0051269
-0.0012513
-0.01911
-0.0079484
-0.0015702
-0.01337
-0.025807
-0.035056
-0.028996
-0.031548
-0.050682
-0.069817
-0.075876
-0.060569
-0.061525
-0.073325
-0.083849
-0.083849
-0.0864
-0.088952
-0.074601
-0.070136
-0.070774
-0.08927
-0.095011
-0.088952
-0.076833
-0.070774
-0.071411
-0.051001
-0.044304
-0.052277
-0.018791
-0.0044404
0.0019378
-0.02198
-0.015921
0.0028946
0.010867
0.013738
0.01884
0.028726
0.037337
0.054239
0.038612
0.030002
0.075925
0.080071
0.066677
0.063169
0.062212
0.050731
0.062212
0.099524
0.06572
0.046904
0.037337
0.028088
0.055515
0.044991
0.038294
0.014375
-0.0028458
-0.022618
-0.011775
-0.01624
-0.023575
-0.0025269
-0.022299
-0.029315
-0.044942
-0.045899
-0.033142
-0.047493
-0.058017
-0.024851
-0.0066727
-0.014008
-0.022299
-0.012732
-0.0034836
0.011824
0.011824
-0.0085862
-0.002208
0.00066221
-0.009224
0.0057648
-0.0066727
-0.035694
-0.051958
-0.0105
-0.036331
-0.024532
-0.021343
-0.029634
-0.02517
-0.0076295
-0.009224
-0.0018891
-0.020067
-0.017197
0.020435
-0.00061343
-0.010819
-0.002208
0.0022568
-0.027083
-0.026445
-0.010181
-0.020705
-0.029634
-0.038245
-0.05419
-0.060569
-0.043028
-0.040477
-0.032504
-0.034418
-0.023256
-0.019429
-0.014327
-0.014964
-0.022618
-0.018791
0.0022568
0.028088
0.029683
0.012462
0.023943
0.010867
0.023305
0.029683
0.020435
0.024899
0.0073593
0.0070404
0.017564
0.0099106
0.0022568
-0.0038025
0.029683
0.040526
0.055834
0.063169
0.067952
0.081665
0.051688
0.057747
0.063169
0.037975
0.038612
0.073055
0.066358
0.040207
-0.00061343
-0.0089051
-0.024851
-0.025807
-0.024851
-0.031229
-0.052277
-0.050044
-0.056742
-0.036012
-0.021024
-0.050682
-0.056742
-0.055785
-0.061206
-0.059293
-0.054828
-0.056423
-0.078109
-0.084806
-0.056423
-0.042072
-0.05132
-0.059293
-0.066628
-0.067266
-0.055466
-0.034418
-0.035056
-0.038564
-0.02804
0.012462
0.004808
-0.017197
-0.012413
-0.023894
0.0025757
0.01597
0.027451
0.0070404
0.01597
0.013419
0.01597
0.016927
0.037656
0.032872
0.01023
0.020116
0.042758
0.010867
0.018521
0.011505
-0.0041214
0.017246
0.018521
0.0076782
0.0089539
0.033829
0.046585
0.044672
0.041802
0.0013
0.022029
0.035423
0.036699
0.042121
0.030002
0.022029
0.026494
0.019159
0.01597
0.014056
0.017246
0.05679
0.053282
0.013738
0.023943
0.047542
0.028726
0.033829
0.031596
0.022029
-0.014008
-0.022299
-0.0025269
-0.02198
-0.02804
-0.019748
-0.017516
-0.051001
-0.056742
-0.041434
-0.042391
-0.052915
-0.073963
-0.06599
-0.06312
-0.047812
-0.027402
-0.01624
-0.036331
-0.057379
-0.084168
-0.071093
-0.048131
-0.029634
-0.053234
-0.037607
-0.022937
-0.024532
-0.010181
-0.032186
-0.035694
-0.025488
-0.024851
-0.029634
-0.049088
-0.0105
-0.014327
-0.035694
-0.024851
0.0028946
-0.013051
-0.033142
-0.033142
-0.032823
0.022029
0.031278
-0.011456
-0.0098618
-0.0066727
-0.0044404
0.0016189
-0.0018891
-0.002208
-0.029953
-0.034099
-0.027721
-0.0031647
-0.024851
-0.005716
0.042758
0.0089539
0.0095917
0.029045
0.010548
0.018202
0.051369
0.044991
0.041164
0.042121
0.028407
0.011505
0.019478
0.017564
-0.0015702
-0.009224
0.00098112
-0.0098618
-0.0041214
-0.0041214
-0.01911
-0.015921
-0.013689
-0.024851
-0.034737
-0.026445
-0.028678
-0.039202
-0.01911
-0.0082673
-0.010819
-0.0082673
0.0019378
-0.016878
-0.00029452
-0.012413
-0.0015702
0.014694
0.03064
0.043077
0.022986
0.019478
0.0028946
0.024899
0.048818
0.067952
0.042758
0.042121
0.022667
0.024262
0.037975
0.02777
0.040845
0.010867
0.017883
0.032234
0.012781
0.011824
-0.034418
-0.054828
-0.066947
-0.074919
-0.048131
-0.03952
-0.049407
-0.067903
-0.082254
-0.081298
-0.072368
-0.063758
-0.063758
-0.067266
-0.071093
-0.070774
-0.047174
-0.036012
-0.035694
-0.044942
-0.051958
-0.048769
-0.014008
-0.030272
-0.025488
-0.018791
-0.01911
-0.015283
-0.0079484
-0.0018891
-0.023575
-0.030591
-0.017516
0.0099106
0.022029
-0.011456
-0.019748
-0.0085862
-0.0038025
0.013419
0.018521
0.020754
0.03064
0.042121
0.037018
0.044672
0.036699
0.028726
0.032553
0.016289
0.035742
0.072417
0.040207
0.00066221
0.013738
0.042121
0.03064
0.021072
0.0092728
0.016927
0.023943
0.017564
-0.013689
-0.012732
-0.014645
0.010867
0.01597
-0.017516
-0.038245
-0.029953
-0.01337
-0.015602
0.015332
0.030002
0.052326
0.057747
0.060617
0.044353
0.059979
0.045629
0.037975
0.02777
0.017246
0.0099106
0.0070404
-0.0044404
-0.0044404
-0.021024
-0.043985
-0.034418
-0.037926
-0.022937
-0.012094
-0.002208
0.0067215
-0.0034836
0.013419
0.01023
0.027132
0.035104
0.015013
-0.0028458
0.012781
-0.040158
-0.041115
-0.032823
-0.053234
-0.065671
-0.058974
-0.073006
-0.096286
-0.071411
-0.070774
-0.055147
-0.073963
-0.081617
-0.064077
-0.059293
-0.066947
-0.058974
-0.037288
-0.034737
-0.034099
-0.042391
-0.038883
-0.037607
-0.03378
-0.014964
-0.010819
-0.023256
-0.017835
-0.017197
-0.023894
-0.034418
-0.041434
-0.017516
0.0070404
-0.00093234
-0.01624
-0.0063538
-0.023256
-0.025488
-0.014964
-0.011137
0.01023
0.0079971
0.016608
0.0079971
-0.018153
-0.021024
0.015013
0.023305
-0.0041214
-0.022618
0.0073593
0.022348
0.0025757
0.02171
0.023305
0.01023
0.036699
0.089319
0.093465
0.079114
0.09187
0.098886
0.11037
0.099843
0.084854
0.069547
0.089319
0.095378
0.09506
0.082622
0.085492
0.041164
0.0099106
0.031278
0.030002
-0.009224
-0.035375
-0.023256
-0.019429
-0.035375
-0.063758
-0.053234
-0.054509
-0.058655
-0.064395
-0.056423
-0.067585
-0.059931
-0.051001
-0.037288
-0.034099
-0.037926
-0.055785
-0.059612
-0.062801
-0.057061
-0.035375
-0.041115
-0.067903
-0.071093
-0.049088
-0.038564
-0.069179
-0.059293
-0.049726
-0.048769
-0.04558
-0.02804
-0.043028
-0.034418
-0.030272
-0.030272
-0.029953
-0.032823
-0.016559
-0.028996
-0.032504
-0.01624
-0.029634
-0.015283
-0.014645
0.0079971
-0.0038025
-0.0095429
-0.0076295
-0.0069916
-0.009224
0.011505
0.011505
-0.0069916
-0.0098618
-0.013051
-0.011775
-0.0066727
-0.012732
0.0067215
-0.0018891
-0.01911
-0.0025269
0.013738
0.022986
0.0032135
0.016608
0.012143
0.018521
0.01597
0.028726
0.019159
0.0019378
0.018202
0.058704
0.092189
0.074649
0.086449
0.09506
0.076882
0.092508
0.084536
0.076563
0.10208
0.11132
0.072098
0.079752
0.080071
0.037018
0.022348
0.037337
0.0041702
0.00098112
-0.0044404
-0.030272
-0.036969
-0.022299
-0.01337
-0.0082673
-0.023256
-0.017835
-0.014645
-0.037607
-0.056104
-0.034418
-0.049088
-0.064395
-0.057698
-0.046855
-0.073963
-0.07173
-0.065671
-0.057379
-0.052915
-0.050044
-0.066628
-0.046536
-0.051958
-0.051639
-0.054828
-0.044623
-0.051639
-0.03952
-0.033142
-0.022618
-0.026126
-0.053871
-0.04558
-0.025488
-0.011456
-0.0095429
-0.0073105
-0.02804
-0.040477
-0.041434
-0.014964
-0.011456
-0.0079484
-0.018153
-0.0034836
0.0070404
-0.0105
-0.011137
-0.0031647
0.0051269
-0.0066727
0.021072
-0.0060349
-0.010819
0.0028946
0.008635
0.0095917
-0.0069916
0.0073593
0.0089539
0.0019378
-0.010819
0.012143
0.008635
0.030002
0.049774
0.063806
0.06572
0.060298
0.09793
0.088362
0.08613
0.058066
0.047542
0.061574
0.055834
0.045947
0.028407
0.044672
0.045947
-0.0012513
-0.030272
-0.050682
-0.018791
-0.027402
-0.056742
-0.057379
-0.051958
-0.046218
-0.070136
-0.071411
-0.074601
-0.050363
-0.058336
-0.065033
-0.065671
-0.047812
-0.051639
-0.058336
-0.041434
-0.026445
-0.032186
-0.017516
-0.02804
-0.042391
-0.034737
-0.035694
-0.03091
-0.035375
-0.050044
-0.062482
-0.062482
-0.031548
0.0032135
-0.018153
-0.028359
-0.02804
-0.0105
0.00098112
0.011186
-0.0044404
0.01884
0.027451
0.020116
0.017246
0.026494
0.023943
0.0067215
0.0076782
0.014694
0.023624
0.018521
0.024899
0.042121
0.031278
0.031278
0.03638
-0.0044404
-0.018791
-0.019748
-0.023256
-0.012413
-0.0082673
-0.026764
-0.044942
-0.045261
-0.046218
-0.03665
-0.043028
-0.034737
-0.024851
-0.025807
-0.024213
-0.011456
0.0051269
-0.002208
0.011824
0.022986
0.028407
0.020754
0.00098112
-0.0069916
0.022348
0.032872
0.030002
0.026813
0.026175
0.036699
0.012781
0.010548
0.01597
-0.0038025
0.0057648
-0.0066727
-0.00029452
0.0073593
0.013419
0.0028946
0.011824
0.054558
0.045947
0.030002
0.025537
0.054558
0.043396
0.047542
0.069547
0.02777
0.036699
0.072098
0.053601
0.019478
0.016289
0.02458
0.01597
0.015013
0.0019378
0.0064026
-0.00093234
0.015013
0.0025757
-0.041115
0.0035324
0.00066221
-0.002208
-0.022299
-0.031548
-0.038883
-0.058655
-0.065033
-0.075876
-0.10043
-0.080979
-0.047174
-0.048769
-0.062801
-0.047812
-0.048131
-0.033142
-0.028359
-0.028359
-0.050044
-0.045899
-0.028678
-0.028996
-0.01911
-0.058655
-0.076195
-0.046536
-0.055466
-0.062801
-0.066628
-0.046855
-0.035056
-0.04558
-0.037288
-0.019748
-0.026764
-0.030272
-0.0098618
0.0003433
0.011824
0.021072
0.028407
0.023943
0.050731
0.015013
0.0057648
0.00098112
0.01597
0.019797
0.022029
0.029364
0.016927
0.0028946
-0.021024
-0.030591
-0.021661
-0.026445
-0.039202
-0.011775
-0.01911
-0.013051
-0.0089051
-0.021343
-0.030591
-0.021661
0.0057648
0.02458
0.028407
0.0095917
0.022029
0.021072
0.030321
0.0070404
0.0095917
-0.0018891
0.004808
-0.011456
0.0028946
0.0057648
-0.034737
-0.0060349
-0.005716
-0.002208
-0.032823
-0.032504
-0.03378
-0.043666
-0.030591
-0.03091
-0.043028
-0.03665
-0.03091
-0.016559
-0.027721
-0.040477
-0.01911
-0.020067
-0.018153
0.0028946
0.015651
0.032234
0.022986
0.013419
0.023624
0.044991
0.027451
0.027451
0.060936
0.042439
0.046904
0.058066
0.046585
0.040845
0.036061
0.042758
0.046266
0.041483
0.059979
0.063806
0.049137
0.043396
0.020435
-0.00061343
-0.014964
-0.027083
-0.041115
-0.0082673
-0.013689
-0.043028
-0.069179
-0.086719
-0.067903
-0.063439
-0.067585
-0.06599
-0.073006
-0.063758
-0.067266
-0.057698
-0.052915
-0.053871
-0.056104
-0.043347
-0.0098618
-0.01911
-0.032823
-0.049088
-0.030591
-0.019429
-0.0082673
-0.0031647
0.012143
0.02458
-0.002208
0.0092728
-0.018791
0.025537
0.024262
0.0067215
0.00066221
0.028088
0.016608
0.020435
0.03638
0.031915
0.013738
-0.010819
0.027451
-0.015921
-0.037607
-0.013689
-0.00093234
-0.014645
-0.039839
-0.04271
-0.036331
-0.017835
-0.023894
-0.0053971
-0.020705
-0.0031647
0.035104
0.043715
0.042758
0.052963
0.029045
0.041164
0.055196
0.058704
0.052007
0.056153
0.052963
0.033829
0.039888
0.010867
0.013738
0.016289
0.0067215
0.015013
0.0032135
0.008316
0.0099106
0.0032135
0.008316
0.017246
0.018202
2.4388e-05
-0.011137
-0.020705
-0.011775
-0.0098618
-0.013689
-0.0079484
-0.0085862
-0.036969
-0.036012
-0.016878
-0.016559
-0.046218
-0.052596
-0.041434
-0.036331
-0.034737
-0.061844
-0.062801
-0.074601
-0.045899
-0.03665
-0.038564
-0.067585
-0.049726
-0.028359
-0.034418
-0.033461
-0.029634
-0.030591
-0.040158
-0.033142
-0.02517
-0.018791
-0.022299
-0.030591
-0.033461
-0.014327
-0.010181
0.00066221
0.014375
0.017883
0.0073593
0.016608
0.036061
0.02171
0.035742
0.021391
0.022986
0.02171
0.012143
0.0032135
-0.0034836
2.4388e-05
-0.0015702
0.022986
-0.0018891
-0.0044404
-0.0018891
-0.018472
0.0013
0.03064
0.022348
0.01023
0.0076782
0.012462
0.01884
0.020435
0.022029
0.0131
0.010867
-0.016559
-0.0028458
0.01597
0.028726
0.046266
0.039569
0.048818
0.050731
0.026175
0.023305
0.052326
0.042439
0.026813
0.00066221
0.020754
0.015651
-0.0031647
0.0070404
-0.0069916
-0.021343
-0.0050782
-0.021024
-0.050363
-0.035375
-0.014964
-0.024851
-0.031229
-0.040477
-0.041115
-0.048769
-0.039839
-0.053234
-0.056742
-0.066628
-0.054509
-0.067903
-0.059293
-0.051958
-0.066947
-0.050044
-0.023256
-0.044623
-0.057698
-0.04845
-0.03952
-0.028678
-0.043347
-0.019429
-0.011137
0.018202
0.02777
0.02171
0.01023
0.015332
0.023943
0.026813
0.016289
0.015651
0.049137
0.046585
0.031596
0.013419
0.0044891
-0.0038025
-0.0066727
-0.0069916
-0.0098618
-0.0082673
-0.032186
-0.026126
-0.002208
-0.01624
-0.0089051
-0.0098618
-0.012413
-0.0034836
-0.00029452
-0.015921
-0.02804
-0.021661
-0.02517
-0.030272
-0.026764
2.4388e-05
0.018202
0.00066221
-0.01624
-0.0038025
-0.00093234
0.0032135
0.034148
0.024899
0.023305
0.014056
-0.012094
0.017564
0.028088
0.044353
0.013738
0.021391
0.0019378
0.0019378
-0.0038025
-0.0018891
-0.0041214
-0.010181
0.0019378
-0.0060349
0.0035324
-0.0066727
-0.0095429
-0.024851
-0.023575
-0.017197
-0.022299
-0.023894
-0.035056
-0.037926
-0.005716
0.004808
-0.0095429
-0.012413
-0.026445
-0.032823
-0.037607
-0.017197
-0.0053971
-0.013689
-0.041115
-0.053234
-0.013689
-0.039202
-0.037607
-0.0018891
-0.015283
-0.030272
-0.0076295
-0.0018891
-0.002208
0.017883
0.025856
0.019478
0.0022568
0.0051269
0.031278
0.036699
0.039569
0.021072
0.016927
0.024899
0.04531
0.044353
0.01597
0.0025757
0.015332
0.020754
0.022986
0.028726
0.01597
-0.0050782
-0.0095429
-0.0085862
-0.017516
-0.0085862
-0.014645
-0.021024
0.0070404
0.012143
0.0038513
0.017246
0.037656
0.028726
0.032234
0.040845
0.058385
0.031278
0.034467
0.023624
0.026813
0.0079971
0.0089539
-0.021661
-0.02517
-0.0105
-0.002208
-0.031867
-0.048131
-0.043347
-0.0063538
0.0038513
-0.0089051
-0.033461
-0.029953
-0.035694
-0.023575
-0.028359
-0.038245
-0.028678
-0.062163
-0.047174
-0.021661
-0.065033
-0.10107
-0.086081
-0.069498
-0.069498
-0.047174
-0.040477
-0.050363
-0.048769
-0.034737
-0.026126
-0.027721
-0.025807
-0.030272
-0.022618
-0.0012513
0.014694
0.0016189
0.0035324
0.008635
0.011505
0.027451
0.014056
0.0019378
0.0099106
0.015013
0.02458
-0.0018891
0.0131
-0.0095429
0.0092728
0.025218
0.022986
0.045947
0.012462
-0.0095429
0.0095917
0.032872
0.050412
0.043396
0.021391
0.028088
0.053282
0.027132
-0.00093234
0.021072
0.020435
0.0044891
0.029045
0.025856
0.027132
0.024262
-0.010181
-0.026764
0.0073593
0.028407
0.0079971
0.00066221
-0.021343
-0.033461
-0.0050782
-0.0076295
-0.019748
-0.028678
-0.021343
-0.015283
-0.018153
-0.015283
-0.00093234
-0.011775
-0.026445
0.0095917
0.008316
0.0019378
-0.025488
-0.023894
-0.022299
-0.023256
-0.038245
-0.068541
-0.088952
-0.056104
-0.055147
-0.05419
-0.063758
-0.071093
-0.079065
-0.060887
-0.056104
-0.046218
-0.054828
-0.065033
-0.041434
-0.026126
-0.024532
-0.014327
-0.028359
-0.039839
-0.019748
-0.0031647
-0.0085862
0.011505
0.030959
0.023624
0.023305
0.033191
0.033191
0.043077
0.017883
0.010548
0.016608
0.025856
0.020754
0.018202
0.0064026
0.015332
0.019797
0.010548
0.0067215
0.0054459
0.0073593
0.024262
0.047861
0.024899
0.032872
0.039888
0.037018
0.031915
0.01884
0.014056
-0.0050782
0.030321
0.022029
-0.011137
-0.0050782
0.0057648
-0.01337
-0.0076295
-0.015602
-0.02198
-0.034737
-0.036331
-0.016878
-0.015921
-0.026126
-0.01911
-0.03665
-0.038245
-0.027721
-0.0063538
0.032872
0.01597
0.011186
-0.0073105
-0.005716
0.030321
0.016289
0.019159
0.01884
0.025856
0.043715
0.0003433
-0.018791
-0.014645
-0.00029452
0.0092728
-0.0025269
0.010867
0.017883
0.0025757
-0.020386
-0.011137
0.0038513
-0.0025269
0.022348
0.027132
-0.026764
-0.027721
-0.023894
-0.032823
-0.036331
-0.017516
-0.040158
-0.015283
-0.012413
-0.021024
-0.046218
-0.042072
-0.035375
-0.017516
-0.0079484
-0.018791
-0.020067
-0.038564
-0.03378
-0.033461
-0.048769
-0.040158
-0.00061343
-0.005716
-0.016559
0.0044891
-0.012094
-0.018153
0.0019378
0.025537
0.025218
0.017246
0.018521
0.0035324
0.019159
0.0051269
-0.0050782
-0.020386
-0.00029452
-0.030591
-0.025488
-0.020705
-0.024851
-0.030272
-0.034418
-0.027721
-0.023575
-0.031548
-0.026126
0.00066221
0.035742
0.044034
0.012462
-0.0041214
-0.015921
0.011824
0.041802
0.031915
0.047542
0.050731
0.043715
0.011505
0.0051269
0.020435
0.037656
0.0079971
-0.0085862
-0.022299
0.0022568
-0.0050782
-0.032823
-0.045899
-0.01624
-0.030591
-0.031867
-0.027721
-0.04845
-0.02517
-0.005716
0.0051269
-0.021661
-0.034737
-0.036012
-0.034099
-0.028996
-0.013689
-0.0105
-0.011775
-0.0079484
-0.011456
0.0099106
-0.0098618
-0.016559
-0.00061343
0.015332
0.032872
0.029045
0.017883
0.017564
0.022667
0.026175
0.029045
0.020116
0.0032135
-0.020386
0.0073593
0.0079971
-0.0079484
-0.023256
-0.024213
-0.017835
-0.021661
-0.002208
0.027132
0.020754
0.0131
0.008635
0.0060837
0.015332
0.026813
0.025537
0.0060837
0.017564
0.040207
0.031915
0.011505
-0.029634
0.0051269
0.0099106
0.011186
-0.033142
-0.066947
-0.071093
-0.078109
-0.073644
-0.073963
-0.072687
-0.078746
-0.057061
-0.050044
-0.059612
-0.076195
-0.078109
-0.040477
-0.023575
0.0003433
0.0041702
-0.0089051
0.0076782
2.4388e-05
-0.017516
-0.0041214
0.028726
0.017883
0.022348
0.028407
0.042758
0.041164
0.014694
0.0092728
0.048818
0.066995
0.083898
0.075287
0.059342
0.044672
0.05679
0.052326
0.052326
0.052007
0.016927
0.0092728
0.0064026
0.0092728
0.0025757
-0.010819
-0.014964
-0.032186
-0.029634
-0.024213
-0.032186
-0.026126
-0.01337
-0.005716
0.004808
-0.015921
-0.047174
-0.048131
0.0022568
0.014056
-0.0066727
-0.0053971
-0.00061343
0.0019378
-0.03091
-0.0073105
0.024899
-0.0066727
-0.034737
-0.030272
-0.02517
-0.0050782
0.0057648
-0.024532
-0.041434
0.0019378
-0.0018891
-0.033461
-0.018153
0.0041702
0.016927
-0.022937
-0.012094
-0.019429
-0.027721
-0.040796
-0.026126
-0.02198
-0.032504
-0.04845
-0.070774
-0.074601
-0.050363
-0.035694
-0.040477
-0.043028
-0.01911
-0.010181
-0.00093234
0.01597
0.019797
0.017246
-0.00093234
-0.015921
-0.016878
-0.025488
0.008316
0.0073593
0.044672
-0.0038025
-0.02804
-0.029315
-0.0073105
0.013738
0.017246
0.021072
0.041483
0.028088
0.045947
0.043715
0.046904
0.042121
0.044991
0.058704
0.041483
0.037337
0.049455
0.037337
0.044991
0.03638
0.01597
0.0064026
0.028088
0.022348
0.016608
0.0054459
-0.0047593
-0.00029452
-0.015283
-0.031548
-0.034099
-0.032823
-0.015283
-0.015283
-0.037607
-0.06312
-0.037607
-0.017516
-0.022299
-0.01624
-0.050363
-0.050363
-0.013051
-0.0015702
-0.028359
-0.055147
-0.055147
-0.071093
-0.059612
-0.049407
-0.060887
-0.059612
-0.029953
-0.047174
-0.073325
-0.058017
-0.054828
-0.056423
-0.050682
-0.033142
-0.023256
-0.023256
-0.016559
-0.010181
-0.021661
-0.00061343
0.00098112
0.0057648
0.020435
0.034148
0.03638
0.022348
0.032553
0.022348
0.056471
0.057109
0.060617
0.075606
0.10845
0.08326
0.070822
0.083579
0.077838
0.078476
0.066677
0.089957
0.079433
0.063169
0.05679
0.074649
0.055515
0.028407
-0.0076295
-0.01337
-0.013051
-0.019748
-0.03665
-0.043666
-0.033142
-0.041434
-0.078427
-0.067585
-0.047812
-0.041434
-0.042391
-0.03378
-0.060887
-0.068222
-0.049407
-0.036331
-0.044623
-0.059931
-0.070455
-0.077471
-0.069817
-0.046536
-0.037607
-0.044942
-0.046536
-0.062482
-0.058336
-0.075876
-0.06599
-0.04845
-0.023894
-0.021343
-0.027083
-0.036969
-0.062482
-0.041434
-0.047493
-0.040477
-0.027083
-0.019429
-0.017835
-0.015921
-0.017516
-0.01624
-0.0025269
0.004808
-0.0047593
0.023624
0.037337
0.028726
0.017564
0.0079971
0.029683
0.04531
0.051688
0.057747
0.043396
0.030002
0.041164
0.042758
0.054239
0.04818
0.062212
0.066677
0.045947
0.016608
0.027132
0.058385
0.047542
0.027132
0.016289
0.028407
0.021391
0.037337
0.021072
0.024262
0.0073593
0.011505
0.0057648
0.018521
-0.0028458
0.0095917
0.0038513
-0.010819
-0.02198
-0.023256
-0.029315
-0.012094
-0.010819
-0.0050782
-0.017197
-0.035375
-0.0089051
0.0051269
0.022986
0.038294
0.011505
-0.0012513
-0.022937
-0.024213
0.008635
0.0044891
-0.013051
-0.063439
-0.036012
-0.016878
-0.041753
-0.069179
-0.075557
-0.071093
-0.069498
-0.041115
-0.063758
-0.066947
-0.039202
-0.01624
-0.013689
-0.013051
-0.0098618
-0.024851
-0.038564
0.0028946
0.02777
0.017883
0.0032135
0.022667
-0.0015702
-0.01624
0.010867
0.0054459
0.0025757
-0.023575
-0.035056
-0.019429
-0.029953
-0.030591
-0.045899
-0.028678
-0.014645
-0.0041214
-0.0076295
-0.011137
0.0032135
-0.0079484
-0.0038025
0.016927
0.018202
-0.00093234
-0.0069916
0.011824
0.017564
0.013738
0.0099106
-0.011775
0.0070404
0.004808
0.030002
0.02777
0.017564
0.019478
0.018202
0.03064
0.020116
0.01884
0.023624
0.019159
0.043715
-0.011775
-0.029953
-0.018153
-0.022618
-0.026445
-0.027721
-0.029634
-0.038883
-0.049726
-0.057379
-0.058974
-0.050044
-0.057698
-0.084168
-0.091822
-0.081617
-0.055785
-0.069817
-0.049088
-0.051958
-0.059293
-0.060569
-0.046536
-0.041753
-0.030591
-0.0028458
-0.0031647
0.017246
0.036699
0.037975
0.041483
0.05392
0.052645
0.04818
0.046266
0.037656
0.017883
0.050412
0.079752
0.088681
0.05392
0.026494
0.038612
0.058066
0.059342
0.029683
0.028726
0.046266
0.05679
0.032234
0.038612
0.028407
0.01597
0.0057648
0.017564
0.025856
0.023305
0.025218
0.022029
0.0131
0.0016189
-0.0028458
0.013419
-0.0028458
-0.014645
-0.014008
-0.028678
-0.04558
-0.04558
-0.038245
-0.015921
-0.027402
-0.042072
-0.071093
-0.059293
-0.046536
-0.041753
-0.022618
-0.019429
-0.060569
-0.074282
-0.044304
-0.054509
-0.079703
-0.075557
-0.061206
-0.069817
-0.047493
-0.052596
-0.073006
-0.061844
-0.040477
-0.032186
-0.035056
-0.017197
-0.0012513
0.020435
0.0067215
0.0092728
-0.0034836
0.029364
0.03638
0.0025757
0.0070404
0.042439
0.059661
0.063487
0.044991
0.044353
0.030321
0.05105
0.064444
0.050731
0.043715
0.057747
0.048499
0.037656
0.050093
0.044353
0.022029
0.011824
-0.0012513
-0.0041214
-0.0082673
-0.017197
-0.023575
-0.014645
-0.0089051
-0.035694
-0.023894
-0.030272
-0.023894
-0.025807
-0.022618
-0.026764
-0.027083
-0.043985
-0.040477
-0.038564
-0.014327
-0.01624
-0.023256
-0.027402
-0.018153
0.0025757
-0.02517
-0.015921
-0.021024
-0.015921
-0.0015702
-0.0098618
-0.012094
-0.0105
-0.017835
0.0003433
0.0092728
-0.00029452
-0.0060349
0.0060837
-0.0073105
-0.01337
-0.019748
-0.022937
-0.036331
-0.0105
-0.023575
-0.042391
-0.053552
-0.047493
-0.056742
-0.041115
-0.047493
-0.064395
-0.047174
-0.012732
-0.012094
-0.0069916
0.011824
0.01023
-0.015602
-0.0041214
0.012143
0.02458
0.036699
0.023624
0.027451
0.0016189
0.033191
0.018521
0.014694
0.021072
0.021391
0.028088
0.022029
0.035423
0.032872
0.037337
0.027132
0.037975
0.050093
0.044991
0.029683
0.01597
0.021391
0.025537
0.01884
0.012781
0.024899
-0.0018891
0.0044891
0.0073593
0.0044891
-0.02804
-0.014645
-0.0044404
-0.028359
-0.041434
-0.024851
-0.024851
-0.042072
-0.015921
-0.010819
0.0022568
-0.0095429
-0.0063538
-0.00029452
0.0035324
-0.0085862
-0.0089051
-0.0038025
-0.021343
-0.012732
-0.023894
-0.022937
-0.029953
-0.044623
-0.056742
-0.050044
-0.047812
-0.029634
-0.050363
-0.051639
-0.034099
-0.053234
-0.037288
-0.020386
-0.0082673
-0.0038025
-0.020067
-0.002208
-0.012094
-0.012732
-0.0105
-0.0079484
-0.01337
-0.0053971
-0.0085862
-0.010181
-0.02804
-0.0047593
0.035104
0.03638
0.0079971
-0.021343
-0.018472
0.0044891
0.020754
0.020754
0.0032135
0.0076782
0.020754
0.0131
0.020754
0.0041702
-0.010181
0.00066221
2.4388e-05
-0.00061343
-0.005716
-0.0041214
-0.018791
-0.02517
-0.017197
-0.019748
-0.036969
-0.036331
-0.039839
-0.020067
2.4388e-05
-0.010181
0.0016189
-0.005716
0.0095917
0.0060837
-0.0076295
-0.013051
0.0035324
0.022986
0.008316
0.029045
0.022986
0.019797
-0.0063538
0.0044891
0.022348
0.013738
-0.0079484
-0.014008
0.016289
0.0131
0.0044891
0.017564
-0.0031647
-0.032823
-0.029315
-0.029634
-0.044304
-0.052277
-0.063439
-0.065352
-0.057698
-0.060569
-0.046536
-0.031867
-0.028678
-0.014008
-0.017516
-0.01337
-0.0069916
0.0089539
0.0013
-0.0063538
-0.0031647
0.011505
0.067952
0.024899
0.0054459
0.016608
-0.011456
0.0041702
0.024899
0.020754
0.022348
0.022348
0.028726
2.4388e-05
0.0051269
0.0038513
0.035423
0.024899
0.020435
0.011186
-0.014327
-0.011137
-0.00029452
0.014375
-0.005716
0.008635
0.012143
-0.012732
0.02171
0.058385
0.0041702
-0.015921
-0.017197
-0.014008
0.0099106
0.020116
0.026494
0.019797
-0.0069916
0.0041702
0.019159
0.01023
0.0089539
0.0079971
0.0028946
-0.018472
-0.0044404
0.0044891
-0.015283
-0.032186
-0.037607
-0.020386
-0.018153
-0.041434
-0.069179
-0.036331
-0.038245
-0.043347
-0.029953
-0.023894
-0.021343
-0.038883
-0.0060349
-0.015602
-0.024213
-0.025488
-0.016559
-0.03091
-0.038883
-0.025488
-0.037288
-0.023894
-0.046218
-0.023894
-0.020386
-0.028678
-0.026764
-0.02804
-0.030272
-0.0105
-0.005716
0.004808
-0.014008
-0.022299
-0.010181
-0.020386
-0.036331
-0.017516
-0.012094
-0.012094
0.0131
-0.0034836
-0.0073105
0.022986
0.026494
0.038931
0.048818
0.035104
0.01884
0.045629
0.037656
0.026813
0.03638
0.020754
0.013419
0.023305
0.025218
0.034786
0.035104
0.0028946
-0.0079484
0.0028946
0.03351
-0.0105
-0.023575
0.0064026
0.010548
0.0095917
-0.01911
-0.019748
-0.027721
-0.022618
-0.033461
-0.039202
-0.012732
-0.009224
0.0079971
-0.009224
-0.0012513
-0.0085862
-0.020386
-0.021661
0.017246
0.022986
-0.0018891
-0.028678
-0.038883
-0.022299
-0.0073105
-0.03091
-0.023575
-0.051639
-0.053234
-0.038883
-0.053234
-0.037607
-0.056742
-0.052915
-0.034099
-0.024213
-0.055785
-0.062482
-0.031867
-0.028678
-0.039202
-0.028678
-0.017516
-0.014645
-0.020067
-0.025807
-0.015283
0.0028946
0.023943
0.0092728
-0.012413
-0.0066727
0.010548
0.016927
0.0079971
0.020435
0.019159
0.029364
0.042758
0.059023
0.052645
0.044034
0.052963
0.050731
0.06285
0.091233
0.072098
0.057109
0.060298
0.043715
0.04531
0.027132
-0.012094
-0.029634
0.0051269
-0.0105
-0.029634
-0.014008
-0.016559
-0.041434
-0.029634
-0.017835
-0.031548
-0.01624
-0.021024
-0.0079484
-0.0066727
-0.018153
-0.034418
-0.04845
-0.037607
-0.005716
-0.023575
-0.044623
-0.013051
-0.028359
-0.046536
-0.034737
-0.031229
-0.043985
-0.053234
-0.035694
-0.026764
-0.047493
-0.026126
-0.034737
-0.025807
-0.023894
-0.010819
-0.0025269
-0.0105
-0.005716
0.013419
0.032234
0.031596
0.029683
0.021072
0.030959
0.025856
0.02171
0.011186
0.022348
0.0095917
-0.012732
-0.0047593
-0.00093234
0.010867
-0.002208
-0.018791
-0.014008
-0.015283
-0.0028458
-0.0012513
-0.00093234
-0.0034836
-0.005716
-0.026445
0.00066221
-0.0073105
-0.027721
-0.014327
-0.022937
-0.0031647
0.0051269
0.0099106
0.03351
0.022029
0.019159
0.036699
0.0092728
-0.0069916
0.00098112
0.010867
0.043077
0.029364
-0.023256
-0.017835
-0.012413
-0.013689
-0.018791
-0.041753
-0.022618
-0.0079484
-0.0018891
0.010867
0.0067215
-0.0073105
-0.0028458
0.0041702
0.0016189
-0.0089051
-0.010181
-0.031548
-0.034099
-0.016878
-0.018153
-0.034099
-0.040477
-0.05132
-0.058974
-0.045261
-0.028678
-0.038564
-0.031867
-0.035694
-0.034737
-0.026445
-0.053234
-0.040477
-0.050363
-0.05419
-0.050363
-0.024851
-0.029634
-0.014964
-0.023575
-0.011137
-0.026126
-0.014645
-0.026126
-0.012413
0.010867
0.03351
0.066358
0.047542
0.042758
0.056153
0.06572
0.081028
0.089638
0.082941
0.072098
0.059023
0.06859
0.075606
0.038294
0.035104
0.015651
0.0035324
0.024899
0.00098112
-0.017835
-0.041115
-0.070455
-0.040477
-0.024532
-0.029634
-0.023256
-0.033461
-0.032186
-0.017516
-0.012732
-0.0031647
0.0035324
0.00098112
-0.00061343
0.0060837
-0.0063538
-0.0015702
0.015013
0.011505
0.02171
0.015651
0.0025757
0.0060837
0.015013
0.020116
0.023305
0.032553
0.0025757
-0.018153
-0.0082673
0.0035324
0.0064026
-0.020067
-0.04558
-0.076195
-0.053871
-0.038564
-0.036969
-0.041753
-0.062482
-0.058017
-0.040158
-0.032823
-0.050363
-0.064395
-0.063439
-0.053552
-0.040477
-0.043347
-0.036969
-0.03952
-0.057698
-0.01337
0.012781
0.0041702
0.00066221
0.0076782
0.020435
0.008316
0.020435
0.021072
0.050412
0.039569
0.055515
0.059023
0.028407
0.025856
0.018202
0.021391
0.028088
0.037975
0.040845
0.036699
0.041164
0.019478
0.0054459
-0.0082673
0.0028946
0.018521
0.042121
0.054239
0.037018
0.037018
-0.0069916
-0.053552
-0.0015702
0.044353
0.030002
0.040845
0.02777
0.038294
0.035104
0.028407
0.0095917
-0.023256
-0.012094
-0.014008
-0.017516
-0.030591
-0.055147
-0.044304
-0.050682
-0.060887
-0.066947
-0.070774
-0.079065
-0.073325
-0.049407
-0.045899
-0.035375
-0.036969
-0.041115
-0.050682
-0.03952
-0.026126
-0.0098618
0.022986
0.010548
0.013738
0.019797
0.020116
0.019797
0.038612
0.063169
0.053601
0.051369
0.058385
0.022986
0.023624
0.052326
0.010867
-0.0015702
0.022029
-0.016878
-0.036012
-0.041753
-0.033142
-0.019748
-0.027402
-0.014964
-0.02517
-0.046536
-0.020386
-0.025488
-0.053552
-0.055466
-0.045261
-0.01911
-0.03091
-0.046855
-0.048131
-0.039839
-0.04558
-0.054509
-0.053871
-0.053234
-0.043028
-0.029953
-0.014964
-0.011775
-0.02198
-0.021343
-0.030272
-0.035056
-0.030591
-0.019429
-0.029634
-0.040477
-0.027721
-0.033142
-0.018153
-0.013689
-0.0060349
-0.0060349
0.0131
0.022348
0.0079971
0.016289
0.037018
0.031596
0.03925
0.049137
0.017564
0.01597
0.021072
0.040526
0.05679
0.03638
0.0038513
0.01023
0.053282
0.066995
0.05679
0.036699
0.026813
0.025856
0.044991
0.03351
0.012143
0.0028946
0.023305
0.018202
-0.028678
-0.04558
-0.041753
-0.042072
-0.061844
-0.058336
-0.047493
-0.02198
-0.040158
-0.059612
-0.065033
-0.055466
-0.044623
-0.035694
-0.02198
-0.029315
-0.037607
-0.01911
-0.0047593
-0.019748
-0.022618
-0.01624
-0.00061343
0.019797
0.015013
-0.0050782
-0.026126
-0.014327
0.0054459
0.0016189
-0.012413
-0.0085862
-0.022299
-0.012094
0.011505
-0.015921
-0.016878
-0.0082673
0.0131
0.008635
0.0025757
-0.012413
0.031278
0.044672
0.014375
-0.01337
0.027451
0.042439
0.026175
0.0089539
0.042121
0.058385
0.017564
0.0067215
0.039569
0.041802
0.049774
0.059979
0.050731
0.037018
0.040526
0.034786
0.052007
0.038294
0.02777
0.0060837
0.027451
0.0073593
-0.013051
-0.024851
-0.0047593
0.024899
-0.020386
-0.044942
-0.051958
-0.063758
-0.057379
-0.052277
-0.073006
-0.0864
-0.0864
-0.073963
-0.090546
-0.060569
-0.047174
-0.058974
-0.04558
-0.053552
-0.057379
-0.025488
-0.0031647
-0.021661
-0.015283
-0.0063538
-0.014645
-0.0038025
0.0092728
-0.0047593
-0.0044404
-0.0044404
0.0070404
0.0038513
0.0044891
0.02458
0.0057648
0.0067215
0.0131
0.050412
0.0067215
0.0057648
0.0013
0.03064
0.040845
0.019478
0.0013
0.0067215
0.026813
0.023943
0.016927
-0.01911
-0.0073105
-0.010181
-0.020386
0.0095917
0.023305
0.015332
-0.018472
-0.027083
-0.045899
-0.046218
-0.036331
-0.035694
-0.039202
-0.022299
-0.014008
-0.014645
-0.0018891
0.0038513
-0.011775
0.02777
0.052007
0.030321
0.030002
0.024899
0.038931
0.016927
0.012462
0.0089539
0.0022568
0.043396
0.044991
0.012781
-0.020067
-0.020386
-0.022299
-0.010181
0.008635
-0.0063538
-0.029315
-0.046536
-0.048131
-0.046536
-0.058336
-0.06599
-0.04558
-0.032504
-0.027721
-0.045261
-0.039202
-0.044623
-0.0089051
0.02777
0.01884
0.020116
0.039888
0.034786
0.043715
0.070503
0.050412
0.027451
0.023624
0.019159
0.01884
0.035742
0.027451
-0.0047593
-0.0095429
-0.014327
-0.011456
-0.018153
-0.026126
-0.031229
-0.026445
-0.034737
-0.033142
-0.042072
-0.052915
-0.028996
-0.037607
-0.06599
-0.054509
-0.038245
-0.049088
-0.051001
-0.026764
-0.035375
-0.023894
-0.038883
-0.033461
-0.022299
-0.0063538
-0.0060349
-0.017197
-0.0098618
0.0079971
-0.013051
-0.00029452
0.0095917
0.030959
0.023624
0.023624
0.024262
0.029683
0.059342
0.037337
0.061255
0.045629
0.044991
0.06285
0.049774
0.03638
0.052963
0.050093
0.071141
0.062531
0.037975
0.061574
0.037337
-0.0089051
0.021072
0.04531
0.027132
-0.0079484
-0.010819
-0.02804
-0.044942
-0.052915
-0.059931
-0.058974
-0.06312
-0.074601
-0.06599
-0.061206
-0.059293
-0.044623
-0.042072
-0.037607
-0.0098618
-0.021024
-0.017516
-0.0041214
0.0003433
0.00098112
-0.0044404
-0.0041214
0.0060837
0.011186
-0.0085862
-0.002208
-0.023894
-0.022937
-0.017197
-0.010181
-0.010181
0.0016189
-0.0031647
-0.025488
-0.018791
-0.0079484
-0.017835
-0.028678
-0.032504
-0.023894
0.0044891
0.020116
0.00066221
0.0060837
0.0051269
0.0095917
0.015332
0.015332
0.013738
0.015332
0.0035324
-0.002208
0.025537
0.011505
0.023624
0.0131
0.0035324
0.008316
0.031278
-0.026445
-0.032823
-0.002208
-0.0034836
-0.017835
-0.0079484
-0.013689
-0.0082673
0.0060837
-0.019429
-0.031548
-0.037926
-0.058017
-0.035375
-0.031229
-0.051958
-0.045899
-0.017197
-0.017835
-0.022299
-0.029315
-0.0095429
-0.010181
-0.0073105
-0.037607
-0.0069916
-0.00061343
0.0032135
0.0022568
-0.012094
-0.013051
-0.0015702
-0.0031647
-0.029315
-0.011137
-0.0069916
0.0054459
0.023305
-0.00061343
-0.016559
0.0013
-0.00029452
0.0019378
-0.0063538
-0.0044404
-0.011775
-0.023256
-0.026126
-0.02198
-0.024532
-0.036012
-0.036969
-0.023575
-0.026445
-0.020705
-0.032504
-0.033142
-0.029953
-0.022937
-0.020705
-0.026126
-0.016878
-0.0076295
-0.012094
0.0057648
0.018202
0.010867
0.0016189
0.0044891
-0.011456
0.0054459
0.046904
0.037656
0.025218
0.016289
0.017883
0.019159
0.019159
0.022986
0.026494
0.018202
0.01597
0.025856
0.021391
0.027132
0.022029
0.023624
0.019797
0.01023
0.0022568
0.010867
-0.00029452
0.020435
0.025537
0.0041702
-0.018791
-0.025488
0.0028946
-0.0095429
-0.023256
-0.040158
-0.028359
-0.038883
-0.031229
-0.010819
-0.023256
-0.042072
-0.056104
-0.044304
-0.029953
-0.029315
-0.035694
-0.029953
-0.031229
-0.0015702
0.0041702
0.0044891
0.008316
0.024899
0.022667
0.025856
0.033191
0.037018
0.032553
0.021072
0.034786
0.027132
0.025537
0.024262
0.010867
0.011505
0.038931
0.037975
0.082941
0.092189
0.064444
0.053601
0.068271
0.10335
0.078795
0.072417
0.084536
0.098886
0.050412
0.022029
-0.0025269
-0.0098618
0.014694
-0.009224
-0.018472
-0.04558
-0.066947
-0.055466
-0.079065
-0.066309
-0.045261
-0.074601
-0.096286
-0.049407
-0.043666
-0.070774
-0.0864
-0.091503
-0.075876
-0.056423
-0.037607
-0.039839
-0.052277
-0.064077
-0.059612
-0.039202
-0.010181
-0.03091
-0.029953
-0.011775
-0.0041214
0.004808
0.0028946
0.0079971
-0.0034836
0.0016189
0.017883
0.02777
0.023624
-0.0028458
-0.0079484
-0.00029452
0.019159
0.035104
-0.0066727
-0.020067
0.011186
-0.015283
-0.031229
-0.038245
-0.042391
-0.034099
-0.01624
-0.02198
-0.012094
-0.015283
-0.019429
-0.042072
-0.030591
-0.0079484
0.010548
0.0025757
-0.021024
-0.0041214
-0.01337
-0.017516
-0.02198
-0.019748
-0.03665
-0.0047593
0.0060837
-0.014008
-0.01624
-0.014008
-0.0050782
0.0044891
-0.011456
-0.02198
-0.0095429
-0.0050782
-0.025488
-0.023256
-0.051001
-0.043347
-0.046536
-0.042072
-0.043028
-0.038245
-0.049407
-0.040158
-0.032186
-0.031548
-0.022299
0.0089539
-0.0095429
-0.0012513
-0.0076295
0.0060837
0.016608
0.0099106
0.020116
0.004808
0.01597
0.022986
0.010548
0.019478
0.021072
0.028726
0.037656
0.029045
0.028407
0.042121
0.044991
0.059342
0.046266
0.039888
0.054877
0.041164
0.052326
0.060617
0.057109
0.049455
0.047223
0.065401
0.066358
0.050412
0.029364
0.044672
0.042758
0.028726
0.012781
0.0035324
0.019478
-0.0018891
-0.013689
-0.021024
-0.029953
-0.038883
-0.040158
-0.034418
-0.042391
-0.037288
-0.053552
-0.051001
-0.072368
-0.070455
-0.046855
-0.057061
-0.08353
-0.073325
-0.063758
-0.071093
-0.055147
-0.043985
-0.041434
-0.049407
-0.027402
-0.015921
0.00098112
0.0044891
-0.025488
-0.0041214
0.011505
0.010867
0.029045
0.017883
-0.020067
-0.021661
-0.015921
-0.013689
-0.0069916
-0.012094
-0.030591
-0.023575
-0.012094
-0.023575
0.0079971
0.00098112
-0.0047593
0.0057648
-0.0041214
-0.012094
0.0073593
0.01884
-0.0089051
-0.014327
-0.011775
0.0076782
0.0073593
0.0041702
-0.0028458
-0.0060349
0.019159
0.020116
0.0131
0.016608
0.0073593
0.019797
0.043077
0.060936
0.066995
0.053282
0.052007
0.052963
0.054558
0.041802
0.023624
0.039888
0.05392
0.037018
0.017246
-0.005716
-0.020705
-0.0031647
-0.015283
-0.032823
-0.035694
-0.03665
-0.044623
-0.031867
-0.029953
-0.076833
-0.040477
-0.00029452
-0.0066727
0.0070404
-0.0012513
-0.033142
-0.061206
-0.034418
-0.022937
-0.035375
-0.046855
-0.034737
-0.033142
-0.026764
-0.045261
-0.037926
-0.044304
-0.042072
-0.037926
-0.024213
-0.020386
-0.0095429
-0.0050782
-0.005716
-0.0038025
-0.0047593
2.4388e-05
-0.002208
-0.0079484
-0.01337
0.019159
0.027451
0.027132
0.011824
0.0089539
0.017246
0.030002
0.045629
0.042439
0.037975
0.029045
0.010867
0.039569
0.039569
0.024899
-0.00061343
-0.00061343
-0.0060349
-0.0041214
-0.0105
-0.0095429
0.015013
0.014375
-0.017516
-0.021661
-0.014327
0.0028946
0.0038513
-0.010181
-0.034099
-0.042072
-0.035694
-0.040158
-0.012732
0.00098112
0.017883
-0.0082673
0.00098112
-0.032504
-0.015921
0.026175
0.038294
0.0054459
0.0099106
0.047861
0.039888
0.035742
0.023943
0.011186
-0.00093234
-0.0028458
0.013738
0.020116
-0.016559
-0.037926
-0.038245
-0.039839
-0.054509
-0.081617
-0.065671
-0.053234
-0.055466
-0.067266
-0.080022
-0.065671
-0.080022
-0.077471
-0.04845
-0.02517
-0.02804
-0.02198
-0.014964
0.0041702
0.018202
0.024899
0.0076782
0.012462
0.023624
0.028407
0.028726
0.023624
0.017246
-0.0028458
0.0019378
0.017883
0.022667
0.0076782
0.0095917
0.012781
0.015651
0.022348
0.029045
0.023305
0.0089539
0.01023
0.017883
0.026494
0.0076782
-0.0053971
-0.011137
0.0095917
0.0032135
-0.0066727
-0.015602
0.011186
0.0092728
-0.015921
-0.01911
-0.011137
0.0041702
0.0070404
-0.0085862
-0.016878
-0.035375
-0.038245
-0.03952
-0.022937
-0.019429
-0.020705
-0.023575
-0.024213
-0.026764
-0.039839
-0.031229
-0.010819
-0.016878
-0.027721
0.00098112
-0.015602
-0.0047593
0.0131
0.026494
0.017564
0.037337
0.05392
0.060936
0.061574
0.057109
0.067314
0.072098
0.11132
0.10558
0.089638
0.068909
0.067952
0.081665
0.091233
0.045629
0.042121
0.020754
0.0028946
-0.009224
-0.0082673
-0.0098618
-0.044304
-0.036331
-0.027721
-0.03665
-0.064077
-0.084806
-0.074282
-0.064714
-0.087038
-0.097881
-0.08066
-0.086719
-0.10107
-0.093735
-0.073644
-0.082892
-0.078746
-0.070774
-0.06025
-0.040477
-0.032504
-0.048769
-0.019429
-0.033461
-0.035375
-0.014645
-0.0044404
0.00098112
-0.0098618
0.0041702
0.0073593
0.011186
-0.0025269
-0.0047593
0.0035324
0.0079971
0.0054459
0.013738
0.02458
-0.0028458
0.0067215
0.0044891
0.0003433
-0.0095429
-0.017197
-0.0105
-0.0025269
0.0025757
-0.014008
-0.011456
0.0057648
0.0067215
0.0051269
0.0131
0.0025757
0.025218
0.034786
0.026494
0.026175
0.024262
0.028088
0.023943
0.057428
0.071779
0.064444
0.079752
0.084854
0.082622
0.080709
0.086449
0.09187
0.070503
0.077838
0.052326
0.043715
0.065401
0.029045
-0.020067
-0.010819
-0.0050782
-0.03378
-0.034737
-0.06025
-0.068222
-0.058017
-0.060569
-0.061206
-0.062163
-0.068541
-0.07173
-0.068222
-0.074282
-0.056423
-0.061525
-0.070136
-0.087676
-0.06312
-0.038564
-0.025807
-0.019429
-0.034099
-0.046855
-0.019429
0.020116
0.0044891
-0.0050782
-0.0041214
0.012462
0.0038513
0.004808
0.0032135
2.4388e-05
-0.0105
-0.012732
-0.0105
-0.02198
-0.030591
-0.021661
-0.021343
-0.012094
0.013738
0.016608
0.0079971
-0.0025269
0.0064026
0.023624
0.020754
0.0076782
0.0057648
0.023624
0.040207
0.049774
0.046585
0.01884
0.044034
0.022029
0.03351
0.042121
0.049137
0.024262
0.034786
0.032553
0.017246
0.0019378
-0.0025269
0.0070404
0.0131
-0.029634
-0.01337
-0.014008
-0.032823
-0.032504
-0.021661
-0.01624
-0.031548
-0.048769
-0.044304
-0.045261
-0.04271
-0.051001
-0.051001
-0.063439
-0.020705
-0.03091
-0.022937
-0.04558
-0.047174
-0.042072
-0.055785
-0.062163
-0.042391
-0.050044
-0.06025
-0.04845
-0.036969
-0.034737
-0.037288
-0.058336
-0.072687
-0.040158
-0.02804
-0.015921
-0.005716
-0.012732
0.0022568
-0.0034836
0.018202
-0.0050782
-0.00093234
0.0089539
0.022029
0.037018
0.0038513
-0.0085862
0.0022568
0.014056
0.043077
0.050731
0.064444
0.059023
0.06859
0.057747
0.065082
0.082303
0.071779
0.046904
0.061255
0.06572
0.087087
0.052645
0.016608
0.0016189
0.022029
0.0099106
0.013419
0.01023
0.01597
0.016289
-0.014645
0.017246
0.019478
0.03925
0.0054459
0.036061
0.026494
0.017246
0.0016189
0.0003433
0.0051269
0.0095917
-0.0073105
-0.010181
-0.041115
-0.059612
-0.051639
-0.029953
-0.020705
-0.046855
-0.07779
-0.091503
-0.076833
-0.092778
-0.10043
-0.090227
-0.10394
-0.073963
-0.069817
-0.067585
-0.071411
-0.075876
-0.063439
-0.043985
-0.026445
-0.021024
-0.031229
-0.034099
-0.041434
-0.020067
-0.01337
-0.0073105
-0.011137
-0.0018891
0.016608
0.0092728
0.0092728
0.028407
0.03064
0.030959
0.05105
0.075287
0.085811
0.087406
0.071141
0.088681
0.080071
0.056153
0.050412
0.044672
0.052645
0.036061
0.025856
0.014694
0.0051269
-0.002208
-0.019748
-0.030591
-0.026126
-0.046218
-0.051001
-0.029315
-0.044623
-0.058017
-0.065352
-0.058017
-0.070774
-0.075876
-0.051639
-0.014327
-0.0089051
-0.032186
-0.027083
-0.024532
-0.0050782
0.017564
0.01023
0.0038513
0.012143
0.015013
0.031915
0.031278
0.027132
-0.00061343
-0.028678
-0.020705
0.00098112
0.018202
0.01023
-0.00093234
-0.011775
-0.0050782
-0.0082673
-0.015921
-0.041434
-0.014327
-0.002208
-0.012094
-0.037288
-0.042072
-0.041434
-0.0098618
0.0028946
-0.017516
0.00098112
-0.0012513
-0.0044404
0.0019378
0.032234
0.016608
0.020116
0.030002
0.042121
0.032553
0.036061
0.052326
0.035742
0.03351
0.048818
0.014694
2.4388e-05
-0.0018891
0.024262
0.042121
0.017564
0.014694
-0.01624
-0.01624
-0.024213
-0.018472
-0.012094
-0.026764
-0.036012
-0.044942
-0.039202
-0.028359
0.0032135
-0.013051
-0.039839
-0.005716
-0.015921
-0.014008
-0.014645
0.0054459
0.010548
-0.0015702
-0.031229
-0.035694
-0.036331
-0.03378
-0.046218
-0.021661
-0.026445
-0.029634
-0.036969
-0.033461
-0.033461
-0.028996
-0.015921
-0.022937
-0.0028458
-0.0085862
-0.0012513
0.0067215
0.008316
0.011505
-0.002208
0.016927
0.028407
0.021072
0.0041702
0.013419
0.010548
0.044353
0.066677
0.049137
0.011186
0.0089539
0.033191
0.042439
0.059023
0.047861
0.019797
-0.0015702
0.015332
0.020435
0.027132
-0.0028458
-0.035694
-0.002208
0.023943
-0.00061343
-0.01911
-0.018791
-0.055466
-0.067266
-0.058336
-0.058017
-0.067266
-0.072687
-0.048769
-0.027721
-0.020067
-0.034099
-0.066947
-0.052596
-0.035375
-0.016559
2.4388e-05
0.0051269
0.0095917
-0.014645
-0.010819
-0.005716
0.0089539
-0.0015702
-0.025488
-0.0079484
-0.0031647
-0.01624
-0.019429
-0.011775
-0.012094
-0.011456
0.00098112
0.023943
0.022348
-0.0047593
-0.0015702
-0.0066727
0.00098112
0.0041702
-0.011775
0.0003433
0.0028946
-0.022618
-0.0025269
0.020435
-0.013689
-0.026126
-0.0063538
0.016608
0.0038513
-0.0105
0.0025757
-0.0044404
-0.022937
-0.014964
-0.02198
-0.032504
-0.024851
-0.0034836
-0.002208
-0.012094
-0.015921
-0.0076295
-0.0060349
0.0028946
0.015332
0.017564
0.022348
0.027132
0.029045
0.037337
0.026175
0.024262
0.017883
0.026175
0.031278
0.063169
0.053282
0.054877
0.046904
0.044034
0.05392
0.077838
0.069547
0.07433
0.070503
0.072417
0.052007
0.04531
0.030321
0.0051269
0.0019378
-0.02198
-0.031548
-0.052596
-0.06312
-0.058655
-0.038564
-0.031867
-0.078746
-0.0864
-0.097243
-0.061844
-0.060887
-0.055466
-0.057698
-0.059293
-0.066628
-0.046855
-0.032823
-0.032504
-0.035375
-0.044304
-0.020067
-0.018791
-0.0041214
-0.043028
-0.054509
-0.016559
0.0035324
0.0038513
-0.0085862
-0.005716
-0.0038025
0.00066221
0.0035324
0.028726
0.032234
0.02777
0.022986
0.036699
0.044353
0.066995
0.034467
-0.014327
0.0095917
0.03638
0.02777
0.004808
0.0044891
-0.010181
-0.0063538
-0.0018891
0.010867
0.0022568
0.0092728
0.014056
0.0051269
0.017246
0.01597
0.0079971
-0.0098618
0.015013
0.016289
-0.002208
-0.014327
-0.019748
-0.039839
-0.030591
-0.01624
-0.032504
-0.039202
-0.019748
-0.014008
-0.00061343
0.017883
0.0054459
-0.0063538
0.0035324
0.019797
0.016927
0.0013
0.0051269
-0.0095429
0.022348
-0.0060349
-0.010181
-0.022299
-0.04558
-0.05419
-0.045261
-0.028678
-0.026764
-0.041115
-0.044623
-0.058974
-0.050044
-0.019748
-0.011775
-0.022937
-0.02804
0.012143
0.010867
0.0073593
-0.0012513
0.0099106
0.037975
0.012143
-0.0069916
0.0044891
0.023305
0.011824
0.043396
-0.00061343
-0.037607
-0.024532
-0.0098618
-0.01624
-0.01624
0.029364
0.028726
-0.0076295
0.010548
0.033829
0.046585
0.071779
0.053601
0.036699
0.041483
0.052326
0.051369
0.059979
0.048818
0.032872
0.049455
0.030321
0.028088
0.03351
0.015013
0.01884
0.013419
0.0028946
-0.014645
-0.019429
-0.01337
-0.0044404
-0.021343
-0.037607
-0.03378
-0.053552
-0.071093
-0.051639
-0.045261
-0.047493
-0.064714
-0.062482
-0.056742
-0.057698
-0.050363
-0.056104
-0.050682
-0.051958
-0.05419
-0.059931
-0.035694
-0.029634
-0.04558
-0.035056
-0.035694
-0.027402
-0.017197
-0.014645
-0.010819
0.0067215
0.025537
0.0076782
0.0025757
-0.016559
0.0095917
-0.010181
-0.0079484
0.0051269
0.0092728
-0.028359
-0.010819
-0.00093234
-0.013051
-0.014645
0.0067215
0.012143
0.020435
0.008635
-0.0085862
0.00098112
0.023624
0.021072
0.022986
0.030959
0.032872
0.013419
0.016927
0.049137
0.063806
0.064444
0.056471
0.018521
0.020435
0.071141
0.094103
0.064763
0.047223
0.021072
0.038931
0.032553
-0.029953
-0.015921
-0.0034836
-0.002208
-0.0105
-0.01337
-0.017835
-0.020067
-0.024213
-0.022937
-0.01624
0.0079971
-0.0098618
-0.028359
-0.022937
-0.01911
-0.031229
-0.038883
-0.043985
-0.061844
-0.070136
-0.065352
-0.053552
-0.043028
-0.051639
-0.051958
-0.056423
-0.032823
-0.037288
-0.033142
-0.016878
0.0016189
0.0019378
-0.0095429
0.024899
0.025218
0.012462
0.028407
0.04531
0.031915
0.033191
0.028407
0.052007
0.020754
0.045629
0.075925
0.04531
0.010548
0.015332
0.008316
0.0032135
-0.00029452
-0.01624
-0.025807
-0.027083
-0.010819
-0.019429
-0.037288
-0.022618
-0.038245
0.0022568
0.0070404
-0.025807
-0.044304
0.022667
0.031915
0.0038513
0.01023
0.015013
0.010548
0.038612
-0.0038025
0.0038513
0.035423
0.032234
-0.011137
-0.0105
0.008316
-0.0066727
0.0016189
0.0060837
-0.012413
-0.043028
-0.044304
-0.067266
-0.072687
-0.067266
-0.053552
-0.051639
-0.051001
-0.073644
-0.074282
-0.072368
-0.051639
-0.051639
-0.058974
-0.029953
-0.023256
-0.014645
-0.0085862
-0.020705
-0.020705
-0.021024
0.0076782
0.0092728
0.0064026
-0.0031647
-0.011137
-0.023894
-0.0095429
-0.01624
-0.0034836
-0.016878
-0.017835
-0.002208
-0.036331
-0.047174
-0.036012
-0.048769
-0.046855
-0.0098618
0.0089539
-0.00061343
0.0089539
0.013738
0.015332
-0.0018891
0.0095917
0.017883
0.026175
0.066995
0.067633
0.058066
0.052645
0.036699
0.017564
0.011824
0.027451
0.031596
0.027451
0.017883
0.01884
0.041483
0.05679
0.090595
0.039888
0.024262
0.01597
0.017883
0.025218
0.01597
0.020435
0.029364
0.05679
0.0099106
0.0073593
-0.0089051
-0.015921
-0.023894
-0.012094
-0.010181
-0.0098618
-0.027083
-0.049407
-0.039839
-0.041753
-0.051639
-0.021343
-0.02517
-0.058336
-0.044304
-0.035694
-0.032823
-0.021343
-0.016559
-0.019429
-0.021024
-0.014327
-0.029953
-0.011456
-0.00029452
0.0070404
-0.0015702
-0.005716
-0.0073105
-0.0076295
-0.012413
-0.0025269
0.0131
0.008316
0.021072
0.028407
0.020116
0.031596
0.042121
0.015013
-0.0028458
0.010548
0.025856
0.0092728
-0.014645
-0.027083
-0.04845
-0.044623
-0.036012
-0.029953
-0.045261
-0.039202
-0.039839
-0.040158
-0.025488
-0.014964
-0.01911
-0.015921
0.0032135
-0.00029452
0.0041702
0.018521
0.012462
0.0019378
0.024262
0.036699
0.027451
0.024262
0.042121
0.049455
0.052007
0.05679
0.035104
0.023305
0.041483
0.028407
0.023943
0.059979
0.065401
0.055515
0.038294
0.036699
0.044991
0.042439
0.038294
0.034148
0.041802
0.03638
0.029364
0.004808
0.01023
0.010548
-0.020386
-0.05419
-0.076833
-0.078427
-0.075557
-0.066947
-0.069817
-0.090546
-0.10936
-0.10617
-0.10553
-0.082573
-0.064395
-0.037607
-0.053552
-0.062801
-0.048769
-0.055147
-0.050363
-0.052915
-0.040477
-0.037607
-0.020067
-0.018791
-0.032504
-0.027083
-0.018153
-0.017516
-0.012732
-0.016878
-0.0069916
0.01597
0.017883
0.029683
0.020116
0.016289
0.01597
-0.0063538
0.0051269
0.028088
0.063806
0.044353
0.034148
0.034786
0.034148
0.023624
0.044672
0.035423
0.03925
0.065082
0.053601
0.043396
0.047542
0.020754
0.017246
0.055196
0.047223
0.059023
0.064763
0.049137
0.038294
0.035104
0.029683
0.047542
0.036699
0.0076782
0.0067215
0.018202
0.010548
-0.0015702
-0.023256
-0.029634
-0.032504
-0.044304
-0.070774
-0.050044
-0.051001
-0.039839
-0.044942
-0.034737
-0.028678
-0.054509
-0.042072
-0.036331
-0.046536
-0.065352
-0.059612
-0.055785
-0.022299
-0.018153
-0.066309
-0.050044
-0.067903
-0.073325
-0.077471
-0.058974
-0.032504
-0.050044
-0.050363
-0.037926
-0.04845
-0.05132
-0.023575
-0.013051
-0.027721
-0.0053971
0.011186
0.0073593
0.008635
0.029045
0.044034
0.048818
0.050412
0.041802
0.051369
0.049137
0.055196
0.044991
0.054558
0.066039
0.068909
0.049137
0.058066
0.081984
0.082303
0.060617
0.066677
0.06285
0.074968
0.053282
0.035742
0.046904
0.028088
0.034786
0.0067215
-0.0047593
-0.030591
-0.041753
-0.040796
-0.031229
-0.0095429
-0.01624
-0.044304
-0.055785
-0.04845
-0.043028
-0.015921
-0.018791
-0.03952
-0.034099
-0.030272
-0.031867
-0.036331
-0.042072
-0.055147
-0.045899
-0.050363
-0.050363
-0.067903
-0.07173
-0.05132
-0.030591
-0.017197
-0.036331
-0.039202
-0.058974
-0.045261
-0.0066727
0.012781
0.0041702
