-0.015602
-0.0060349
0.0032135
-0.0034836
-0.0050782
-0.0038025
-0.0066727
-0.0038025
0.015013
0.0028946
-0.0028458
0.00098112
0.0051269
0.0054459
0.0051269
0.0028946
-0.0066727
0.0028946
0.0019378
0.0044891
0.0003433
-0.0018891
0.00098112
-0.00029452
0.0057648
0.014375
0.0054459
-0.0047593
0.0057648
0.0028946
0.0035324
0.0057648
-0.00093234
-0.014008
-0.0015702
0.0019378
-0.00093234
-0.0034836
-0.0079484
-0.0025269
-0.0044404
0.0044891
0.0013
0.0003433
-0.0066727
0.00098112
0.0019378
-0.00061343
0.0019378
-0.0098618
-0.014327
-0.0063538
0.0038513
-0.0018891
-0.0018891
-0.0053971
-0.0073105
-0.0034836
0.0131
2.4388e-05
-0.0031647
0.0041702
0.0022568
0.0019378
0.0028946
0.0019378
-0.009224
0.0003433
0.0016189
0.0060837
-0.0012513
-0.0041214
-0.0034836
-0.0038025
0.0032135
0.017883
0.0060837
-0.005716
0.0022568
0.0032135
0.0032135
0.0035324
-0.00093234
-0.012732
-0.00093234
2.4388e-05
0.0019378
-0.0028458
-0.0066727
-0.0012513
-0.0018891
0.0070404
0.0003433
0.0019378
-0.002208
0.0016189
0.0028946
-0.0012513
0.00066221
-0.005716
-0.014327
-0.0063538
0.0032135
-0.0015702
-0.0047593
-0.0047593
-0.0050782
-0.0028458
0.012143
0.0035324
-0.0041214
-0.00061343
0.0028946
0.0032135
0.0003433
0.0003433
-0.0095429
-0.002208
0.0003433
0.0054459
-0.0034836
-0.0066727
-0.0038025
-0.0031647
0.0025757
0.014694
0.0067215
-0.0053971
0.0013
0.0044891
0.0032135
0.0025757
0.00098112
-0.013689
0.0003433
0.0019378
0.0019378
-0.002208
-0.0038025
-0.0015702
-0.002208
0.0070404
0.00098112
0.0016189
-0.00061343
0.0041702
0.0057648
0.0022568
0.0038513
-0.0066727
-0.012732
-0.0041214
0.0057648
0.0013
-0.005716
-0.005716
-0.0041214
-0.0012513
0.0131
0.0016189
-0.0018891
-0.0038025
-0.0015702
0.0054459
-0.00061343
0.0019378
-0.010181
-0.0028458
-0.0047593
0.0028946
-0.005716
-0.0095429
-0.0015702
-0.0041214
-0.00029452
0.0099106
0.0019378
-0.005716
-0.00029452
-0.00029452
0.0013
2.4388e-05
-0.0012513
-0.01624
-0.00029452
-0.0018891
-0.00093234
-0.0047593
-0.0069916
-0.0044404
-0.0038025
0.0025757
0.00098112
-0.00061343
-0.005716
0.0016189
-0.00029452
-0.00029452
2.4388e-05
-0.011456
-0.018791
-0.009224
0.0013
-0.0018891
-0.0044404
-0.0079484
-0.0098618
-0.0066727
0.008316
-0.0041214
-0.0053971
-0.00093234
-0.0031647
0.00098112
0.00098112
-0.00093234
-0.012094
-0.0050782
-0.0041214
0.0019378
-0.005716
-0.0076295
-0.0047593
-0.0047593
-0.00093234
0.014056
0.0032135
-0.0076295
-0.00029452
-0.00029452
0.0013
0.0013
-0.0018891
-0.014008
-0.0015702
-0.00061343
-0.0012513
-0.0076295
-0.005716
-0.0031647
-0.0038025
0.0035324
0.0016189
-0.0025269
-0.0047593
0.0003433
0.00098112
0.0016189
0.0035324
-0.0089051
-0.017197
-0.0073105
0.00066221
-0.00061343
-0.0015702
-0.0050782
-0.0082673
-0.0053971
0.0099106
0.00066221
-0.0015702
-0.00029452
0.0032135
0.0025757
0.0003433
0.0013
-0.010181
-0.002208
-0.00061343
0.0051269
-0.0018891
-0.0050782
-0.0025269
-0.0050782
0.0032135
0.013738
0.0064026
-0.0031647
0.0032135
0.0032135
0.0025757
0.0044891
0.0013
-0.014645
0.0025757
0.0028946
0.0035324
-0.0047593
-0.0063538
-0.0041214
-0.0044404
0.0060837
0.0016189
0.0016189
-0.0047593
2.4388e-05
0.0028946
0.0038513
0.0019378
-0.0085862
-0.015921
-0.0038025
0.0041702
2.4388e-05
-0.0028458
-0.0044404
-0.0050782
-0.0025269
0.011505
-0.00061343
0.0003433
0.0016189
0.0025757
0.0054459
0.00066221
0.0032135
-0.0066727
-0.0025269
-0.0015702
0.0051269
-0.0018891
-0.0031647
-0.0050782
-0.005716
0.0035324
0.016289
0.0041702
-0.0047593
0.00098112
0.0013
0.0028946
0.0035324
0.0003433
-0.013051
0.0003433
0.0016189
0.0013
-0.002208
-0.0041214
-0.0012513
-0.0025269
0.0051269
0.0028946
0.0016189
-0.0038025
0.0057648
0.0032135
0.00066221
0.00066221
-0.0069916
-0.01624
-0.0060349
0.0038513
2.4388e-05
-0.0044404
-0.005716
-0.0073105
-0.0041214
0.010548
-0.0012513
-0.0012513
-0.00061343
0.0035324
-0.0018891
-0.00093234
0.0038513
-0.0085862
-0.005716
-0.00093234
0.0022568
-0.0038025
-0.0047593
-0.0034836
-0.0044404
0.0041702
0.018202
0.0057648
-0.0034836
0.0028946
0.0041702
0.0044891
0.0060837
0.0038513
-0.011775
0.00098112
0.00066221
0.0022568
-0.0038025
-0.0073105
-0.00093234
-0.0060349
0.0076782
0.0060837
-0.00061343
-0.0047593
0.0019378
0.00098112
2.4388e-05
0.0032135
-0.0079484
-0.017516
-0.0034836
0.0022568
-0.0028458
-0.0041214
-0.0073105
-0.0069916
-0.0050782
0.008635
-0.00029452
-0.00029452
-0.0031647
0.0019378
0.0044891
2.4388e-05
0.00098112
-0.0069916
-0.0041214
-0.0028458
0.0051269
-0.0025269
-0.0034836
-0.0025269
-0.005716
-0.0012513
0.017246
0.0051269
-0.005716
-0.0012513
0.0025757
0.0035324
0.0028946
0.00098112
-0.013689
0.0016189
0.0013
2.4388e-05
-0.0038025
-0.0066727
-0.002208
-0.005716
0.0051269
0.0057648
0.0022568
-0.0041214
0.0019378
0.0025757
0.0019378
0.0022568
-0.0041214
-0.015283
-0.0028458
0.0028946
2.4388e-05
-0.0050782
-0.0034836
-0.0012513
-0.005716
0.0089539
0.0013
0.0013
-0.00029452
0.0019378
0.0025757
0.0019378
0.0022568
-0.009224
-0.0044404
-0.0044404
0.0038513
0.0025757
-0.0038025
-0.0050782
-0.0069916
0.00098112
0.016608
0.0035324
-0.0041214
0.0022568
0.0019378
0.0016189
0.0022568
-0.00029452
-0.01337
0.00066221
-0.00029452
0.00066221
-0.0050782
-0.0069916
-0.0025269
-0.0053971
0.0016189
0.0044891
0.0025757
-0.0060349
-0.0015702
2.4388e-05
0.00098112
0.0028946
-0.0073105
-0.020386
-0.0063538
0.0035324
-0.0012513
-0.0050782
-0.0060349
-0.0063538
-0.0063538
0.008635
-0.0015702
-0.0015702
-0.0015702
-0.00029452
0.0013
2.4388e-05
2.4388e-05
-0.0085862
-0.0082673
-0.0031647
0.0028946
-0.0073105
-0.0060349
-0.0028458
-0.0047593
-0.0015702
0.014694
0.0022568
-0.0073105
-0.00093234
0.0051269
0.0016189
0.0013
0.00066221
-0.011775
0.00066221
-0.00093234
0.0013
-0.0050782
-0.005716
-0.0018891
-0.0041214
0.0028946
0.0073593
0.0016189
-0.0053971
0.0003433
0.0028946
0.0013
0.0022568
-0.0063538
-0.018791
-0.0044404
0.0025757
-0.0015702
-0.0050782
-0.0060349
-0.0053971
-0.0063538
0.0070404
-0.0012513
0.0003433
-0.0015702
0.0022568
0.0019378
-0.0012513
-0.002208
-0.0105
-0.0069916
-0.002208
0.0003433
-0.005716
-0.0034836
-0.0069916
-0.009224
-0.0018891
0.014375
0.0016189
-0.0085862
0.0013
0.0003433
-0.0012513
-0.002208
0.0003433
-0.010181
0.0003433
-0.0028458
0.00098112
-0.0044404
-0.0079484
-0.0018891
-0.0044404
0.0060837
0.008635
0.0028946
-0.0085862
0.0051269
0.0051269
0.0038513
0.0041702
-0.0018891
-0.014327
-0.00093234
0.0044891
0.0022568
0.0003433
-0.0038025
-0.0015702
-0.0025269
0.01023
0.0025757
0.0032135
0.00098112
0.0038513
0.0044891
0.00098112
0.0016189
-0.0066727
-0.0089051
-0.0044404
0.0057648
-0.0028458
-0.0050782
-0.0041214
-0.0053971
-0.0018891
0.013738
0.0013
-0.0073105
-0.0028458
0.0022568
0.0016189
-0.002208
-0.00029452
-0.012094
-0.0015702
-0.0047593
0.00098112
-0.0060349
-0.0089051
-0.0028458
-0.0044404
0.0022568
0.0076782
0.00098112
-0.0063538
2.4388e-05
-0.0012513
0.0003433
0.0019378
-0.0047593
-0.018472
-0.0076295
-0.00061343
-0.002208
-0.005716
-0.0089051
-0.0069916
-0.0073105
0.0044891
-0.0034836
-0.0028458
-0.0041214
0.0003433
0.00098112
2.4388e-05
-0.00061343
-0.010819
-0.010181
-0.005716
0.0032135
-0.0015702
-0.0073105
-0.0034836
-0.0060349
-0.0018891
0.012781
0.0025757
-0.0025269
2.4388e-05
0.0016189
0.0028946
0.0016189
0.0003433
-0.0089051
0.0019378
-0.00061343
0.0025757
-0.0044404
-0.0050782
-0.002208
-0.0034836
0.0051269
0.0099106
0.0057648
-0.0041214
0.00066221
0.0028946
0.004808
0.0057648
-0.0015702
-0.017516
-0.0047593
0.0041702
0.0032135
2.4388e-05
-0.0069916
-0.0041214
-0.0031647
0.008635
-0.0012513
0.0013
-0.0031647
0.004808
0.0038513
0.00098112
0.0032135
-0.0085862
-0.01337
-0.005716
0.0060837
0.00066221
-0.0018891
-0.0041214
-0.0069916
-0.0038025
0.016927
0.0032135
-0.002208
0.0013
0.0028946
0.0028946
0.0051269
0.0032135
-0.010181
0.0013
0.0022568
0.0051269
-0.0025269
-0.0044404
-0.00061343
0.0003433
0.0044891
0.0099106
0.0044891
-0.0025269
0.0013
0.0019378
0.0028946
0.0057648
-0.0028458
-0.017197
-0.0018891
0.0035324
-0.002208
-0.0053971
-0.0047593
-0.002208
-0.0047593
0.0079971
-0.00029452
-0.00093234
-0.0034836
0.0019378
0.0041702
0.00098112
0.00098112
-0.0076295
-0.011775
-0.0041214
0.004808
-0.0018891
-0.0034836
-0.0034836
-0.0079484
-0.0025269
0.016289
0.0013
-0.0041214
0.0013
0.0003433
0.0022568
-0.00029452
-0.00029452
-0.0089051
-0.00061343
-0.0031647
0.0003433
-0.0044404
-0.0050782
-0.002208
-0.0060349
0.0013
0.012781
0.0028946
-0.0044404
0.0019378
0.0019378
0.0057648
0.0044891
-0.0012513
-0.017197
-0.0015702
0.0044891
0.0028946
-0.0025269
-0.0044404
-0.0034836
-0.0034836
0.008316
0.0016189
0.0032135
-0.00093234
0.0032135
0.0051269
0.0035324
0.0025757
-0.0082673
-0.012413
-0.0053971
0.0073593
0.00066221
-0.0018891
-0.0044404
-0.0053971
-0.0028458
0.01597
0.0022568
-0.002208
0.0016189
0.00098112
0.0022568
0.0044891
0.0022568
-0.009224
0.0003433
-0.0015702
0.0041702
-0.0028458
-0.0038025
-0.00061343
-0.0031647
0.0028946
0.012462
0.0060837
-0.0041214
0.0003433
0.0032135
0.00098112
0.0028946
0.0013
-0.014964
-0.0012513
0.00098112
0.0003433
-0.0047593
-0.0050782
-0.0034836
-0.0038025
0.0054459
-0.00029452
0.00098112
-0.0031647
0.0022568
0.0019378
0.0003433
0.00066221
-0.009224
-0.011775
-0.0060349
0.0028946
-0.0031647
-0.0044404
-0.0044404
-0.0079484
-0.0025269
0.014694
2.4388e-05
-0.0041214
0.0003433
0.0032135
0.0038513
0.0013
0.0003433
-0.010181
0.00098112
0.0003433
0.0038513
-0.0034836
-0.005716
-0.0018891
-0.0031647
0.0051269
0.014056
0.0051269
-0.0066727
0.0013
0.0035324
0.0035324
0.0041702
0.0003433
-0.014327
2.4388e-05
0.00098112
0.0025757
-0.0015702
-0.0069916
-0.0012513
-0.002208
0.0073593
0.0003433
0.0022568
-0.0012513
0.0028946
0.0038513
0.0022568
0.0022568
-0.0066727
-0.013051
-0.0047593
0.0041702
-0.002208
-0.005716
-0.0041214
-0.0050782
-0.0050782
0.012143
2.4388e-05
-0.0038025
-0.0031647
0.0028946
0.0019378
-0.0025269
0.00098112
-0.005716
-0.00061343
-0.0025269
0.0019378
-0.005716
-0.0069916
-0.0015702
-0.0050782
-0.00029452
0.013738
0.0035324
-0.0060349
2.4388e-05
-0.00029452
0.0013
0.00098112
-0.00093234
-0.017197
-0.0012513
0.0013
-0.0018891
-0.0063538
-0.0073105
-0.0038025
-0.0060349
0.0041702
0.00066221
-0.0012513
-0.0053971
-0.00061343
0.0013
-0.0015702
2.4388e-05
-0.0076295
-0.017835
-0.0060349
0.0025757
-0.002208
-0.0069916
-0.0089051
-0.0089051
-0.0050782
0.012462
-0.0012513
-0.0050782
-0.0031647
-0.0015702
0.00066221
0.0013
2.4388e-05
-0.010181
-0.0038025
-0.0041214
0.0019378
-0.0050782
-0.0060349
-0.0041214
-0.0079484
0.0019378
0.016608
0.0038513
-0.0073105
-0.00093234
-0.00029452
0.0025757
0.0051269
0.0003433
-0.014327
-0.00029452
0.0016189
0.0019378
-0.002208
-0.0044404
0.0003433
-0.0031647
0.0057648
0.0013
0.0054459
-0.00093234
0.00098112
0.0028946
0.00098112
0.0022568
-0.0063538
-0.012413
-0.0034836
0.004808
-0.0012513
-0.0041214
-0.0060349
-0.0066727
-0.0050782
0.011505
0.0032135
-0.002208
-0.0012513
0.0028946
0.0019378
0.00066221
2.4388e-05
-0.0082673
-0.0028458
-0.0015702
0.0044891
-0.0050782
-0.0050782
-0.0025269
-0.0044404
0.00066221
0.01597
0.0067215
-0.0041214
0.00098112
0.0016189
0.0035324
0.0067215
0.0003433
-0.013689
0.0003433
0.0028946
0.0032135
-0.0031647
-0.0069916
-0.0015702
-0.0034836
0.0057648
0.0019378
0.0028946
-0.0044404
-0.00061343
0.0022568
0.0041702
0.0044891
-0.0082673
-0.017516
-0.0038025
0.0032135
-0.0015702
-0.0025269
-0.005716
-0.0066727
-0.0038025
0.0131
-0.0015702
2.4388e-05
0.0003433
0.0025757
0.0025757
-0.00061343
0.0044891
-0.0063538
-0.0028458
-0.0012513
0.0044891
-0.00061343
-0.0044404
-0.0018891
-0.0028458
0.0025757
0.016927
0.0044891
-0.0041214
0.0022568
-0.00029452
0.0016189
0.0060837
0.0041702
-0.01337
0.0003433
0.0016189
0.0013
-0.0050782
-0.0053971
-0.00093234
-0.0031647
0.004808
0.0032135
0.0028946
-0.0031647
0.0013
0.0025757
0.0025757
0.0035324
-0.005716
-0.016559
-0.0038025
0.0032135
-0.0018891
-0.0038025
-0.0041214
-0.0060349
-0.0044404
0.0095917
-0.0012513
-0.0018891
-0.00029452
0.00098112
0.0025757
-0.00093234
0.0003433
-0.010181
-0.0044404
-0.0031647
0.0019378
-0.0038025
-0.005716
-0.0041214
-0.0063538
-0.00029452
0.014694
0.0022568
-0.0066727
0.00066221
0.0016189
0.0022568
0.0022568
2.4388e-05
-0.013689
0.0003433
-0.00093234
-0.00061343
-0.0031647
-0.0050782
-0.0038025
-0.0050782
0.0067215
0.0054459
0.00066221
-0.0034836
0.0038513
0.0025757
0.0022568
0.004808
-0.0050782
-0.016559
-0.0018891
0.0044891
-0.0015702
-0.0038025
-0.0044404
-0.0047593
-0.002208
0.012143
-0.0018891
-0.0025269
-0.00061343
0.00066221
0.00098112
-0.00093234
2.4388e-05
-0.0076295
-0.0044404
-0.0031647
0.0035324
-0.0038025
-0.0028458
-0.002208
-0.0044404
0.0025757
0.022348
0.0131
0.0013
0.0067215
0.0095917
0.013419
0.014694
0.014056
0.00098112
0.014375
0.013738
0.015013
0.01023
0.01023
0.014694
0.011505
0.017246
0.017246
0.01884
0.011186
0.013738
0.010548
0.011505
0.012143
0.0013
-0.0095429
0.0025757
0.0044891
-0.0034836
-0.0066727
-0.0082673
-0.013689
-0.0105
-0.00029452
-0.01337
-0.015602
-0.014964
-0.014008
-0.014964
-0.01624
-0.014964
-0.024213
-0.023894
-0.018791
-0.010181
-0.017197
-0.019748
-0.016878
-0.017516
-0.011775
0.0067215
0.0016189
-0.0085862
-0.00093234
0.0016189
0.0028946
0.0038513
0.0044891
-0.0063538
0.0064026
0.0060837
0.008316
0.0013
0.00098112
0.0067215
0.00098112
0.0051269
0.008635
0.0051269
-0.0025269
0.0041702
0.0041702
0.0013
0.0013
-0.0089051
-0.020705
-0.0063538
-0.00029452
-0.00029452
-0.0047593
-0.0079484
-0.0063538
-0.0060349
0.0076782
-0.0028458
-0.00093234
-0.00093234
0.0028946
0.0028946
0.00098112
0.0013
-0.0041214
-0.00061343
-0.0015702
0.0041702
-0.0018891
-0.0028458
-0.00093234
-0.0034836
0.0013
0.016608
0.0038513
-0.0060349
0.0092728
0.0038513
0.0016189
0.0025757
0.0044891
-0.0060349
0.0057648
0.0067215
0.0076782
0.0051269
-0.0018891
0.0016189
0.011824
0.020116
0.01023
0.0054459
0.0044891
0.011505
0.011824
0.012781
0.008316
2.4388e-05
-0.011775
-0.00029452
0.0070404
0.0013
-0.0034836
-0.0053971
-0.0053971
-0.0060349
0.0079971
-0.00061343
-0.00093234
-0.002208
0.0016189
0.0019378
0.0013
0.0013
-0.0073105
-0.0095429
-0.0031647
0.0035324
-0.00029452
-0.0031647
-0.0038025
-0.0044404
0.0013
0.018521
0.0041702
-0.0028458
0.00098112
0.0025757
0.0032135
0.0054459
0.0070404
-0.0063538
0.0057648
0.0044891
0.010867
0.0041702
0.0019378
0.013738
0.0099106
0.018521
0.023943
0.025218
0.014694
0.033829
0.032553
0.033829
0.03638
0.027132
0.019797
0.033191
0.03638
0.03351
0.032872
0.028088
0.026494
0.02458
0.031596
0.014056
0.016289
0.024262
0.026175
0.02777
0.031278
0.035104
0.028407
0.026813
0.03638
0.044034
0.037337
0.046585
0.055515
0.050412
0.031596
0.058385
0.047542
0.020754
0.01023
0.0035324
0.014375
0.012781
-0.005716
-0.028678
-0.028678
-0.042072
-0.04271
-0.05132
-0.050044
-0.04845
-0.054828
-0.048769
-0.039839
-0.046536
-0.055785
-0.043985
-0.041753
-0.045899
-0.040158
-0.045261
-0.056104
-0.03665
-0.027402
-0.026126
-0.023256
-0.024213
-0.022299
-0.023894
-0.0060349
-0.0060349
-0.0053971
-0.0050782
0.00098112
0.0032135
-0.0041214
-0.0041214
-0.013051
-0.017197
-0.0082673
-0.0044404
-0.014008
-0.021024
-0.021343
-0.025807
-0.018791
0.0025757
-0.0085862
-0.010819
-0.0028458
2.4388e-05
2.4388e-05
0.004808
0.0095917
2.4388e-05
0.027132
0.030002
0.037656
0.037018
0.028088
0.031278
0.038931
0.040845
0.044991
0.046904
0.035104
0.039888
0.041164
0.052007
0.044672
0.03351
0.022348
0.038612
0.06285
0.058066
0.044991
0.042758
0.059661
0.061255
0.075287
0.070503
0.058704
0.045947
0.072736
0.067314
0.05105
0.06572
0.055196
0.035104
0.020435
0.032553
0.027451
0.023943
0.026813
0.0035324
2.4388e-05
0.014694
-0.0028458
-0.005716
-0.016559
-0.020067
-0.0098618
-0.021661
-0.038564
-0.032504
-0.010819
-0.0015702
-0.010819
-0.012094
-0.0044404
-0.0038025
-0.0082673
0.00098112
0.026494
0.029683
0.0070404
0.0076782
0.028088
0.016289
2.4388e-05
0.0025757
-0.012094
-0.0028458
-0.0015702
-0.012413
-0.025488
-0.028359
-0.024851
-0.030272
-0.028678
-0.032504
-0.030591
-0.038245
-0.041115
-0.033142
-0.041753
-0.035375
-0.034418
-0.036331
-0.021661
-0.010181
-0.012732
-0.015283
-0.0105
-0.0025269
0.0099106
0.037337
0.024262
0.014375
0.020435
0.025218
0.020116
0.016608
0.01884
0.0038513
0.0057648
-0.00029452
2.4388e-05
-0.0085862
-0.024851
-0.020386
-0.015602
-0.0073105
-0.0034836
-0.020705
-0.015283
-0.017197
-0.011456
2.4388e-05
0.0025757
2.4388e-05
-0.005716
0.019159
0.027132
0.025537
0.021391
0.02777
0.03064
0.033191
0.046266
0.035423
0.037656
0.032234
0.035742
0.033829
0.028407
0.029364
0.021072
0.015013
0.035104
0.043715
0.038294
0.034148
0.035104
0.042758
0.050412
0.061893
0.041802
0.038931
0.053601
0.060298
0.060298
0.046266
0.035104
0.015013
0.031915
0.01884
0.027451
0.017246
0.0073593
0.00098112
-0.0018891
-0.0066727
-0.014645
-0.028678
-0.038883
-0.034737
-0.04271
-0.043347
-0.049088
-0.058655
-0.082892
-0.05419
-0.028359
-0.044623
-0.059293
-0.053234
-0.035056
-0.028996
-0.01624
-0.0047593
0.0079971
0.0073593
0.015651
0.022986
0.025218
0.034786
0.024262
0.021391
0.037018
0.059661
0.054558
0.052963
0.046585
0.052007
0.064763
0.073374
0.060617
0.063487
0.061255
0.079114
0.082303
0.084854
0.075287
0.060617
0.058066
0.059661
0.066995
0.069866
0.06285
0.064444
0.056471
0.050093
0.058385
0.032234
0.02458
0.023305
0.016927
0.0095917
0.0025757
-0.012413
-0.031229
-0.028359
-0.024213
-0.021024
-0.037288
-0.051001
-0.03091
-0.030591
-0.022299
-0.022618
-0.026126
-0.030272
-0.023894
-0.017516
-0.010819
0.0035324
-0.014645
-0.04845
-0.044942
-0.025807
-0.029634
-0.034099
-0.029634
-0.037607
-0.032823
-0.018791
-0.02804
-0.027721
-0.036012
-0.038245
-0.032823
-0.019748
-0.016559
-0.036969
-0.026764
-0.034737
-0.027402
-0.02517
-0.023894
-0.030272
-0.031867
-0.020067
-0.0095429
-0.0028458
-0.0076295
0.0054459
0.016927
0.017564
0.026813
0.031278
0.018202
0.037018
0.042758
0.052007
0.055834
0.050412
0.054877
0.057109
0.053601
0.042121
0.044353
0.054877
0.05679
0.054877
0.049137
0.05392
0.02777
0.01597
0.033191
0.062212
0.068271
0.044991
0.044034
0.034148
0.01597
0.048499
0.031278
0.034148
0.041164
0.048818
0.023624
-0.00093234
-0.0015702
-0.0085862
-0.017197
-0.019748
-0.024851
-0.043985
-0.053234
-0.063439
-0.071093
-0.055466
-0.048131
-0.067585
-0.06312
-0.04558
-0.049726
-0.045261
-0.021024
-0.016878
-0.020386
-0.00093234
0.0076782
0.0044891
0.010867
0.021072
0.038612
0.033191
0.052963
0.040845
0.034786
0.017883
0.022029
0.026813
0.021391
0.021391
0.0057648
-0.011775
-0.0034836
0.0044891
-0.0076295
-0.0105
-0.016878
-0.021343
-0.02517
-0.022618
-0.032504
-0.055785
-0.038245
-0.011775
-0.005716
-0.029315
-0.019429
-0.02198
0.0003433
0.0079971
0.033829
0.019159
0.019797
0.027451
0.031915
0.03925
0.073374
0.044991
0.022348
0.019159
0.00098112
-0.0095429
-0.0095429
-0.018153
-0.055466
-0.054509
-0.069498
-0.058336
-0.059612
-0.071411
-0.069179
-0.058336
-0.055466
-0.029634
-0.024213
-0.032186
-0.021024
-0.0050782
0.0003433
0.023305
0.017246
0.015332
0.049137
0.067314
0.058066
0.051688
0.050412
0.056153
0.052326
0.058385
0.050093
0.03925
0.03638
0.026494
0.040845
0.025537
0.016289
0.024899
0.040845
0.030002
0.023305
2.4388e-05
0.0051269
0.026175
0.041483
0.045629
0.050731
0.037337
0.042758
0.026175
-0.011775
0.0044891
2.4388e-05
-0.021024
-0.056104
-0.049407
-0.052915
-0.059612
-0.062801
-0.083211
-0.085443
-0.073325
-0.077471
-0.062482
-0.046855
-0.055466
-0.06025
-0.065352
-0.057379
-0.042391
-0.044304
-0.031229
-0.034099
-0.039202
-0.041434
-0.025807
-0.041115
-0.037607
-0.028678
0.0025757
-0.01337
-0.014327
-0.0079484
-0.018153
0.0041702
0.023305
0.012143
-0.0085862
0.045629
0.03925
0.012143
0.0003433
0.019797
0.0051269
-0.01911
-0.025488
0.004808
-0.0034836
-0.0041214
0.0038513
-0.012413
-0.01624
-0.016878
-0.028996
-0.050044
-0.015602
-0.0041214
0.0035324
-0.0038025
-0.0044404
0.035104
0.032872
0.030959
0.019797
0.044353
0.056471
0.057109
0.051688
0.043715
0.063806
0.069866
0.046904
0.064125
0.08039
0.073055
0.075287
0.042758
0.023305
0.030002
0.039569
0.021072
0.018521
0.0032135
-0.012094
-0.030272
-0.069179
-0.079384
-0.074282
-0.076195
-0.086719
-0.10235
-0.11478
-0.132
-0.12499
-0.11861
-0.12339
-0.099476
-0.090546
-0.096924
-0.082892
-0.073644
-0.070774
-0.078427
-0.063439
-0.05419
-0.029634
0.0044891
0.0016189
-0.021661
-0.0031647
0.0054459
-0.0034836
0.0089539
0.016608
0.030959
0.0073593
2.4388e-05
0.017564
0.03064
0.046904
0.052007
0.022348
0.022029
0.072417
0.095378
0.070185
0.049774
0.027132
0.045947
0.075606
0.029364
0.041164
0.029045
0.021391
0.030321
0.031915
0.034148
0.0025757
-0.03091
-0.048131
-0.017516
-0.029315
-0.019748
-0.014964
-0.028678
-0.018791
-0.016878
-0.029315
-0.033142
-0.03378
-0.056423
-0.059931
-0.043347
-0.06025
-0.055466
-0.0105
-0.013051
-0.014008
-0.031867
-0.017516
0.023943
0.024899
0.035104
0.026175
0.03638
0.020435
0.012781
-0.0012513
-0.029953
-0.026445
-0.016878
-0.039202
-0.057698
-0.050682
-0.06025
-0.041753
-0.044942
-0.069498
-0.10745
-0.060569
-0.072049
-0.072049
-0.066628
-0.06312
-0.057698
-0.053552
-0.034099
-0.0015702
-0.016559
-0.01911
-0.0089051
0.014694
0.026175
0.059979
0.084854
0.11419
0.16076
0.12057
0.13556
0.18308
0.18595
0.16841
0.16777
0.13556
0.12599
0.13652
0.13333
0.099205
0.066995
0.042439
0.020754
0.01884
0.022667
0.02171
-0.00029452
-0.078109
-0.044942
-0.037607
-0.054509
-0.045261
-0.086719
-0.09533
-0.054509
-0.049088
-0.059612
-0.072368
-0.067585
-0.063439
-0.059612
-0.071411
-0.085762
-0.081935
-0.084487
-0.10936
-0.080979
-0.039202
-0.011456
-0.024851
-0.022618
-0.036331
-0.0018891
-0.010819
-0.044304
0.028726
0.039569
0.063487
0.096654
0.080071
0.052645
0.063806
0.068271
0.064444
0.12504
0.10208
0.03925
0.040526
0.044034
0.040845
0.058704
0.05392
0.060936
0.066995
0.094741
0.10622
0.073055
0.063806
0.085492
0.081665
0.082941
0.079752
0.059023
0.031278
0.032872
0.023624
-0.009224
0.01597
-0.054828
-0.072368
-0.10553
-0.099157
-0.073644
-0.056742
-0.13296
-0.16868
-0.18144
-0.14636
-0.11446
-0.13487
-0.1167
-0.12371
-0.12052
-0.15241
-0.14699
-0.14827
-0.12626
-0.11223
-0.086719
-0.10617
-0.064714
-0.074919
-0.094054
-0.12307
-0.10713
-0.050044
-0.06312
-0.015283
0.011505
-0.0085862
-0.0089051
0.0022568
0.038931
0.064444
0.067314
0.085811
0.15597
0.19009
0.25483
0.20349
0.11866
0.1582
0.16586
0.18531
0.19137
0.20604
0.15406
0.15565
0.18786
0.13556
0.062212
0.06859
0.06572
0.091552
0.094103
0.077201
0.023943
0.037337
0.014375
0.028407
-0.0015702
-0.016559
-0.0038025
0.0131
-0.00029452
-0.022937
-0.026445
-0.082892
-0.095968
-0.03378
-0.067903
-0.072049
-0.066309
-0.04558
-0.040158
-0.049088
-0.091822
-0.087676
-0.10585
-0.10203
-0.11287
-0.1049
-0.099157
-0.098519
-0.087038
-0.091184
-0.10426
-0.064714
-0.095011
-0.10394
-0.065671
-0.089908
-0.082254
-0.029634
0.0070404
0.03064
0.03351
0.023305
-0.0076295
0.01023
0.03351
0.080709
0.052326
0.069866
0.029364
0.037656
0.045947
0.047223
0.069228
0.0022568
-0.040796
-0.024532
0.012462
-0.017835
-0.043347
-0.050363
-0.031229
0.0013
0.0099106
0.032234
0.014375
0.013738
0.058385
0.0041702
0.065401
0.046904
0.036699
0.057109
0.09506
0.12599
0.11419
0.062531
0.059342
0.046266
0.10877
0.07146
0.021391
0.026494
0.014694
0.051688
0.071779
0.070185
0.023943
-0.0044404
0.01597
-0.024851
-0.028359
-0.059612
-0.086719
-0.071093
-0.07173
-0.14763
-0.16708
-0.13073
-0.15114
-0.17601
-0.19611
-0.17825
-0.13966
-0.13296
-0.1403
-0.13902
-0.0982
-0.070774
-0.0073105
0.013419
0.023624
0.010867
0.035104
0.082622
0.055196
0.077838
0.11164
0.17064
0.17032
0.1295
0.13811
0.18786
0.15023
0.1767
0.1818
0.16394
0.18659
0.11706
0.16012
0.17415
0.15693
0.148
0.12057
0.083898
0.026175
0.030321
0.037975
0.013738
0.0016189
0.033829
-0.0098618
0.038612
-0.011137
-0.098838
-0.02804
-0.0105
-0.055466
-0.10075
-0.11446
-0.1167
-0.091184
-0.059293
0.016608
-0.036331
-0.082254
-0.10745
-0.1033
-0.074601
-0.10107
-0.11957
-0.064714
-0.031548
-0.061206
-0.05419
-0.021343
-0.047493
-0.07173
0.0038513
-0.011775
-0.067266
-0.039839
0.016608
0.019159
0.023624
0.004808
0.042758
0.074968
0.060936
0.074968
0.055515
0.12918
0.064763
0.021391
-0.0044404
0.037975
0.033829
0.020435
0.08326
0.066677
0.040526
0.050412
0.046904
0.015332
0.082622
0.037337
-0.021661
-0.0073105
-0.024851
0.0013
0.047542
0.0028946
-0.0015702
-0.059293
-0.050044
0.021072
-0.027402
-0.061206
-0.053552
-0.047174
-0.026445
-0.0034836
0.016927
-0.066309
-0.052277
-0.044304
-0.021343
0.0060837
-0.013051
-0.024851
-0.043028
-0.053234
-0.0015702
-0.026445
-0.038883
-0.0050782
-0.03378
-0.032186
0.013419
0.020754
-0.0028458
-0.0034836
-0.0095429
0.0016189
0.032234
-0.0073105
-0.018791
0.081984
0.087725
0.04531
0.028726
0.041164
0.022667
0.029045
0.1059
0.094103
0.041164
0.034786
0.031915
0.044991
-0.043347
0.0131
0.026813
0.0092728
0.035742
0.05105
0.093784
0.082941
0.044034
0.049137
0.083579
0.13014
0.14385
0.14513
0.077201
0.084217
0.083579
0.063806
0.033829
0.017883
0.03351
-0.020386
-0.040477
-0.041434
-0.047812
-0.063439
-0.047493
0.00098112
-0.034418
-0.068541
-0.049088
-0.03665
-0.024851
-0.044304
-0.047493
-0.071093
-0.076195
0.029045
-0.014964
-0.1033
-0.11191
-0.1049
-0.16166
-0.12913
-0.14412
-0.15178
-0.10936
-0.088952
-0.094692
-0.099476
-0.10362
-0.031548
-0.026445
-0.032186
-0.037926
-0.0047593
0.033829
0.040845
0.045947
0.035742
0.072098
0.099205
0.11675
0.10654
0.032234
0.048818
0.08613
0.094422
0.055515
0.10526
0.11101
0.09506
0.13779
0.13652
0.12823
0.10208
0.074012
0.1177
0.13205
0.088044
0.072098
0.0099106
-0.024213
0.032234
-0.028996
-0.063758
-0.047493
-0.075876
-0.10968
-0.084487
-0.090865
-0.11287
-0.15273
-0.11319
-0.038883
-0.044942
-0.043666
-0.068222
-0.061525
-0.050044
-0.03665
-0.0063538
0.031596
0.011505
0.0057648
-0.028359
-0.084487
-0.068222
-0.039202
-0.048131
-0.074919
-0.014645
0.026813
-0.057698
-0.049088
-0.074282
-0.074282
-0.088952
-0.063439
-0.043028
-0.045899
-0.064395
-0.01337
-0.0050782
0.026813
0.02171
-0.01337
0.013419
0.011824
0.019478
0.064125
0.059661
0.076244
0.12185
0.12408
0.1598
0.14098
0.10622
0.081346
0.089638
0.086449
0.092508
0.08326
0.037656
0.037975
2.4388e-05
0.030002
0.0092728
-0.024851
-0.06886
-0.11319
-0.06599
-0.097562
-0.10075
-0.075557
-0.064395
-0.024851
0.017246
-0.020705
-0.014008
-0.048769
-0.0034836
-0.0098618
0.029683
0.029683
0.09793
0.049455
-0.014964
-0.07173
-0.063439
-0.053552
-0.057698
-0.050363
-0.093735
-0.08066
-0.096286
-0.13169
-0.13838
-0.16772
-0.13519
-0.11
-0.10426
-0.13838
-0.19387
-0.16708
-0.15752
-0.1403
-0.11638
-0.11383
-0.081298
-0.038883
-0.026764
-0.036969
-0.055466
-0.044304
0.019797
0.060936
0.086768
0.091552
0.090595
0.10431
0.096973
0.099524
0.13939
0.12057
0.09187
0.081984
0.099524
0.067952
0.1008
0.11898
0.099524
0.11324
0.14194
0.082303
0.09187
0.090595
0.12025
0.10909
0.099205
0.13078
0.020754
0.021391
0.070822
0.07146
0.022986
0.013419
-0.014645
-0.039839
-0.0082673
0.023305
-0.0031647
0.052326
0.012781
-0.065671
-0.0015702
0.056471
0.043077
-0.023575
-0.0025269
-0.02517
-0.046855
-0.032504
-0.036331
-0.061525
-0.099157
-0.072049
-0.11064
-0.16039
-0.18718
-0.17155
-0.12276
-0.10266
-0.15178
-0.15847
-0.1269
-0.089908
-0.10936
-0.18686
-0.17346
-0.13296
-0.094373
-0.10394
-0.1151
-0.12818
-0.12371
-0.14412
-0.169
-0.14667
-0.15273
-0.14763
-0.11893
-0.13774
-0.11287
-0.063439
-0.058017
0.02171
0.017883
0.01023
0.032234
0.081984
0.061255
0.092827
0.10909
0.086768
0.12918
0.20636
0.21625
0.17957
0.15374
0.11675
0.15055
0.15119
0.16076
0.14449
0.088362
0.064763
0.078795
0.061893
0.038612
0.014694
0.01023
-0.054509
-0.071411
-0.073644
-0.045261
-0.047493
-0.093416
-0.11383
-0.11478
-0.12339
-0.132
-0.12595
-0.051958
-0.018791
-0.0028458
-0.026126
-0.057698
-0.060887
-0.065671
-0.059612
-0.044942
-0.018791
-0.028678
0.0003433
-0.048131
-0.075557
-0.079703
-0.066947
-0.099157
-0.029953
-0.091503
-0.14093
-0.13073
-0.11351
-0.12945
-0.12307
-0.098838
-0.094692
-0.050682
-0.057061
-0.024213
-0.0095429
0.008635
-0.047174
-0.03665
0.0044891
-0.012413
0.012781
0.053601
0.047542
0.014694
0.008635
-0.027721
-0.03378
-0.02804
-0.038245
-0.062163
-0.076195
-0.064395
-0.071093
-0.059612
-0.058974
-0.014964
-0.010181
0.066995
0.047223
0.021391
0.0095917
-0.015283
0.026494
0.058066
0.048818
0.039569
0.038612
0.060936
0.0079971
0.01884
0.034148
-0.00061343
-0.04271
-0.067585
-0.047174
-0.0050782
-0.0018891
0.0019378
0.038612
0.008316
-0.0089051
0.0089539
0.0057648
0.0060837
0.04531
0.0041702
-0.030591
-0.01337
0.03064
0.026175
0.026175
0.034148
0.037337
0.024899
0.043715
0.012462
-0.0076295
-0.0015702
0.019159
0.025856
0.008316
0.020435
0.026494
-0.058017
-0.031229
-0.046536
-0.10936
-0.11159
-0.11446
-0.11255
-0.11542
-0.12435
-0.11159
-0.132
-0.15241
-0.15815
-0.15815
-0.1285
-0.13998
-0.12403
-0.11989
-0.11351
-0.076833
-0.09533
-0.057698
-0.052277
-0.022618
-0.036969
-0.043985
-0.0025269
-0.0047593
0.0019378
0.037656
0.05105
0.033829
0.020116
0.037018
0.019159
0.004808
0.08613
0.059979
0.052645
0.084217
0.10239
0.078795
0.090914
0.10654
0.1126
0.1228
0.14609
0.16873
0.20126
0.16299
0.21146
0.22964
0.17511
0.10909
0.12025
0.15246
0.14927
0.12886
0.097611
0.070185
-0.032186
-0.064714
-0.08066
-0.068541
-0.091503
-0.12754
-0.16613
-0.16517
-0.1505
-0.14859
-0.20216
-0.21747
-0.16358
-0.11606
-0.14699
-0.12084
-0.10872
-0.097881
-0.090546
-0.097562
-0.078109
-0.058336
-0.039202
-0.053871
-0.051958
-0.034099
-0.014327
-0.042391
-0.043985
-0.01337
0.0054459
0.0079971
0.0016189
0.0057648
0.012462
0.037975
0.074012
0.077838
0.075287
0.11324
0.098249
0.08326
0.12599
0.13014
0.11611
0.10463
0.12631
0.13524
0.087725
0.063487
0.03925
0.08039
0.046585
0.012781
-0.0089051
-0.090865
-0.052596
-0.055785
-0.036331
-0.054828
-0.074282
-0.11957
-0.093735
-0.039202
-0.01337
-0.074601
-0.074601
-0.050044
-0.059931
-0.058974
-0.043666
-0.044623
-0.046536
-0.063439
-0.01911
-0.00029452
0.008635
0.012143
-0.026764
-0.0018891
-0.00029452
0.032234
0.068271
0.047861
0.02458
0.1582
0.24941
0.22007
0.1346
0.13301
0.14864
0.13971
0.15725
0.16937
0.12567
0.10431
0.11069
0.10654
0.044034
0.062212
0.021391
-0.036969
-0.032186
-0.047174
-0.069498
-0.061525
-0.065352
-0.090227
-0.060569
-0.020705
-0.063758
-0.056742
-0.051958
-0.03952
-0.06599
-0.068222
-0.052915
-0.084806
-0.11287
-0.094373
-0.067585
-0.14285
-0.13328
-0.13806
-0.13838
-0.12499
-0.12626
-0.15018
-0.16581
-0.15241
-0.15911
-0.14093
-0.099157
-0.065352
-0.051639
-0.0044404
-0.022299
0.013738
0.060936
0.063806
0.085492
0.10782
0.12886
0.1193
0.17128
0.2223
0.23666
0.22167
0.19137
0.14417
0.14385
0.13907
0.15852
0.12918
0.10399
0.13779
0.096654
0.087406
0.099843
0.079752
0.098249
0.037656
0.052963
0.020435
0.064763
0.054877
-0.0060349
-0.029315
-0.009224
-0.0085862
-0.03665
-0.057061
-0.13137
-0.10235
-0.071093
-0.093097
-0.10458
-0.13105
-0.11191
-0.1167
-0.10777
-0.1202
-0.093416
-0.10872
-0.11542
-0.13073
-0.10362
-0.11351
-0.084487
-0.070774
-0.11446
-0.1202
-0.097881
-0.10043
-0.11032
-0.10139
-0.085762
-0.053234
-0.04558
-0.0015702
-0.016559
-0.020386
0.042121
0.060298
0.098249
0.11037
0.059342
0.069547
0.097292
0.1429
0.14672
0.094741
0.12217
0.14481
0.13779
0.16171
0.13301
0.088681
0.10654
0.093465
0.12185
0.085811
0.080709
0.054558
-0.0031647
0.037337
0.061255
0.046266
0.044353
-0.0066727
-0.11829
-0.081935
-0.10872
-0.12084
-0.12307
-0.11032
-0.13615
-0.12116
-0.12467
-0.13456
-0.14317
-0.13487
-0.12658
-0.093416
-0.099476
-0.086719
-0.10617
-0.1218
-0.067903
-0.047812
-0.076833
-0.070774
-0.064395
-0.053234
-0.048131
-0.047493
-0.04845
-0.040477
-0.028678
0.015013
0.019159
0.044353
0.044353
0.063806
0.10845
0.075925
0.083579
0.071779
0.10303
0.11132
0.11515
0.090276
0.07433
0.06285
0.070185
0.081346
0.043396
-0.0073105
-0.00029452
0.013419
0.023943
0.021391
0.0131
0.0022568
-0.024213
-0.024851
-0.0025269
0.038931
0.065082
0.041164
0.038612
0.027132
0.012781
0.017883
0.042758
0.049774
0.05392
-0.0041214
0.071779
0.10239
0.084854
0.041164
0.057428
0.10558
0.070185
0.054877
0.041483
0.042758
0.062212
0.059661
0.074649
0.089957
0.028726
0.015013
-0.03952
-0.024213
0.0032135
-0.035694
-0.024851
-0.070136
-0.091184
-0.041434
-0.058974
-0.05132
-0.055466
-0.06312
-0.094373
-0.15401
-0.14349
-0.12499
-0.093097
-0.13009
-0.14891
-0.1285
-0.17793
-0.15975
-0.15465
-0.13328
-0.13169
-0.14061
-0.11893
-0.092778
-0.05132
-0.061844
-0.043666
-0.031229
0.0035324
0.020435
0.038612
0.058704
0.04818
0.084217
0.14481
0.1464
0.14672
0.16331
0.14385
0.14577
0.1362
0.16203
0.14258
0.1582
0.16267
0.11164
0.10558
0.11037
0.10208
0.16331
0.16618
0.17702
0.15501
0.1311
0.16458
0.15948
0.15406
0.12025
0.10909
0.10526
0.078157
0.12121
0.097611
0.0044891
-0.050682
-0.10107
-0.17123
-0.18048
-0.17793
-0.17155
-0.19196
-0.22704
-0.29018
-0.27966
-0.2854
-0.26084
-0.24968
-0.23916
-0.19611
-0.16198
-0.19228
-0.20567
-0.21205
-0.15624
-0.10617
-0.043347
-0.030591
-0.061206
-0.077471
-0.063439
-0.017197
0.037337
0.0013
-0.041434
-0.036331
0.024899
0.039569
0.03925
0.060936
0.0057648
-0.011775
0.046266
0.08039
0.065082
0.059023
0.078476
0.094741
0.090914
0.12057
0.068271
0.075287
0.11037
0.092189
0.12759
0.12312
0.11515
0.11419
0.11738
0.148
0.17925
0.15948
0.13492
0.17574
0.19456
0.17192
0.13556
0.10526
0.081028
0.10303
0.14034
0.13779
0.096654
0.059342
0.0076782
0.0003433
-0.011775
-0.014964
0.0019378
-0.039202
-0.066947
-0.078427
-0.032504
-0.062163
-0.11223
-0.13328
-0.16517
-0.1757
-0.1741
-0.1926
-0.21109
-0.19005
-0.18813
-0.16039
-0.18175
-0.20567
-0.2146
-0.1757
-0.14349
-0.073644
-0.067903
-0.083211
-0.075238
-0.081617
-0.046855
-0.04558
-0.049407
-0.038883
0.01023
0.040207
0.013738
-0.013689
0.063487
0.08326
0.08613
0.10718
0.15151
0.20923
0.21082
0.20094
0.2054
0.21912
0.19009
0.19328
0.16873
0.19041
0.24112
0.21688
0.148
0.13046
0.084217
0.10048
0.10112
0.11675
0.10973
0.069547
0.063806
0.05392
0.036699
0.030959
0.041164
0.032872
0.018202
0.0070404
-0.036012
-0.064714
-0.068541
-0.083849
-0.099794
-0.11128
-0.14572
-0.17697
-0.16549
-0.16007
-0.18494
-0.17697
-0.17984
-0.21683
-0.22959
-0.22704
-0.20854
-0.19642
-0.15241
-0.13743
-0.1521
-0.11638
-0.12052
-0.12563
-0.12626
-0.079703
-0.035375
-0.031548
-0.0015702
0.008635
-0.0066727
0.021391
0.07433
0.07433
0.084854
0.10367
0.11643
0.1126
0.14417
0.1429
0.20158
0.21752
0.20859
0.23506
0.24877
0.28481
0.26185
0.25898
0.30713
0.28959
0.27046
0.28577
0.26823
0.23889
0.18308
0.18595
0.15788
0.063487
0.072736
0.0089539
-0.00061343
-0.053871
-0.10777
-0.15688
-0.18175
-0.22098
-0.25702
-0.25478
-0.24554
-0.2449
-0.23214
-0.22704
-0.24426
-0.25542
-0.2315
-0.21652
-0.21333
-0.16677
-0.14317
-0.1757
-0.16804
-0.13934
-0.11478
-0.10649
-0.091503
-0.072049
-0.080341
-0.043666
-0.014964
-0.05132
-0.027721
-0.018791
-0.0041214
-0.02517
-0.012094
0.0013
-0.0082673
0.020435
0.020116
0.020754
0.01597
0.024899
0.071779
0.069866
0.1244
0.15565
0.1665
0.16267
0.18404
0.23283
0.22358
0.20859
0.21752
0.20732
0.22581
0.19041
0.17
0.1413
0.13524
0.10048
0.035104
0.029045
0.0131
-0.018472
-0.01624
-0.04558
-0.074601
-0.073325
-0.085125
-0.1033
-0.11096
-0.094373
-0.064714
-0.073644
-0.066309
-0.078427
-0.094373
-0.085443
-0.084806
-0.036331
-0.015921
-0.026126
-0.011456
-0.0034836
0.0092728
0.016608
-0.03378
-0.014645
0.0025757
-0.015921
-0.019429
0.035104
0.019159
-0.022937
-0.0095429
0.050412
0.039569
-0.02198
-0.031229
-0.068222
-0.047174
0.0028946
0.032234
-0.0073105
-0.047493
-0.064395
-0.080979
-0.066309
-0.02517
-0.03378
-0.058336
-0.089589
-0.066947
-0.040158
-0.031867
-0.039202
-0.032186
-0.0038025
0.045629
0.022986
-0.028678
0.0067215
0.022348
0.044991
0.038931
0.032872
0.041164
0.025218
0.04531
0.037018
0.050093
0.053601
0.066039
0.10048
0.075287
0.08326
0.081028
0.071779
0.046585
0.088681
0.1059
0.093784
0.071141
0.055196
0.040526
0.11132
0.079752
0.016289
0.0079971
0.0044891
0.0051269
0.0073593
-0.0098618
-0.02804
0.010548
-0.014008
-0.049726
-0.021661
-0.02804
-0.041753
-0.022299
-0.031229
-0.035056
-0.011775
0.0044891
0.0051269
0.0016189
0.0025757
-0.019748
-0.024532
-0.051001
-0.044623
-0.043028
-0.0079484
-0.017516
-0.041434
-0.070455
-0.10203
-0.13105
-0.12116
-0.11733
-0.11446
-0.070136
-0.12084
-0.092141
-0.069179
-0.081935
-0.09533
-0.046855
-0.01624
0.060617
0.069866
0.058704
0.10208
0.098249
0.15597
0.13365
0.12536
0.13269
0.16777
0.1598
0.1413
0.14704
0.092508
0.075606
0.059661
0.091552
0.08326
0.08039
0.062212
0.030959
0.004808
-0.0025269
0.013738
0.039569
0.034148
0.0131
0.026175
0.025537
0.0028946
-0.029315
-0.031229
-0.016559
-0.0018891
-0.025488
-0.062482
-0.081617
-0.073006
-0.019748
-0.024851
-0.036012
-0.064395
-0.094373
-0.059293
-0.072368
-0.088314
-0.10203
-0.091503
-0.074601
-0.083849
-0.075557
-0.10745
-0.10713
-0.0982
-0.094373
-0.073325
-0.085443
-0.10235
-0.10649
-0.087357
-0.073006
-0.072049
-0.071093
-0.092778
-0.091822
-0.087357
-0.03952
-0.028359
-0.039202
-0.051639
-0.032823
0.027451
0.050412
0.036061
0.008316
-0.0028458
0.033829
0.044353
0.061574
0.039569
0.03064
0.11451
0.090595
0.080071
0.076244
0.094422
0.14226
0.12089
0.13939
0.081984
0.10335
0.14066
0.13333
0.11738
0.14353
0.15119
0.15565
0.098249
0.079433
0.12472
0.13524
0.13301
0.092189
0.044672
0.053282
0.037656
0.026813
0.023943
0.078795
-0.0063538
-0.050044
-0.075876
-0.073006
-0.11064
-0.13009
-0.13838
-0.14986
-0.1792
-0.17378
-0.16421
-0.17888
-0.14923
-0.12754
-0.14221
-0.13041
-0.13806
-0.13934
-0.13838
-0.1218
-0.11733
-0.09246
-0.064077
-0.086719
-0.082254
-0.083849
-0.053234
-0.061844
-0.048131
-0.028678
-0.021024
-0.0044404
-0.0066727
0.012462
0.020754
0.018202
0.03925
0.049455
0.044034
0.061893
0.084536
0.058066
0.063487
0.080071
0.07433
0.051369
0.069228
0.090276
0.10208
0.082941
0.061574
0.078476
0.087087
0.097292
0.055834
0.074649
0.06572
0.07433
0.11547
0.08613
0.093146
0.076563
0.10048
0.095378
0.074012
0.082622
0.11547
0.11101
0.10909
0.1346
0.12025
0.08039
0.067952
0.019478
0.049774
0.017246
-0.014645
-0.00029452
-0.016878
-0.0105
-0.061844
-0.10777
-0.10617
-0.10139
-0.14476
-0.14285
-0.13424
-0.15497
-0.17506
-0.14923
-0.14189
-0.14954
-0.13806
-0.10553
-0.11159
-0.10298
-0.081935
-0.10872
-0.10649
-0.068541
-0.013051
0.0032135
-0.0085862
-0.019429
-0.017197
-0.01624
-0.018153
-0.0073105
0.022029
0.022029
0.014694
0.010867
-0.0018891
0.045947
0.022029
-0.0063538
-0.010819
0.017883
0.047542
0.048499
0.030002
-0.00093234
0.035423
0.05679
0.072417
0.047223
0.038612
0.042758
0.058066
0.058704
0.07433
0.11515
0.12344
0.15533
0.13747
0.16012
0.16873
0.1582
0.16426
0.1783
0.22517
0.22103
0.16745
0.13875
0.075606
0.081984
0.092508
0.069228
0.012781
0.014375
-0.026445
-0.052915
-0.074601
-0.10968
-0.18016
-0.17601
-0.14476
-0.11861
-0.13169
-0.18909
-0.17314
-0.16772
-0.14508
-0.1438
-0.15018
-0.14189
-0.14763
-0.13615
-0.13392
-0.11383
-0.10235
-0.11829
-0.10458
-0.080022
-0.074601
-0.076833
-0.036331
-0.055466
-0.027721
-0.014008
-0.00029452
0.013419
0.021072
-0.0105
0.0131
0.052645
0.062212
0.0067215
0.011824
0.058066
0.063169
0.017246
0.061255
0.02777
0.0092728
0.048499
0.060617
0.047223
0.068271
0.10239
0.1244
0.12759
0.10335
0.148
0.15884
0.13971
0.13046
0.11419
0.1244
0.096016
0.12312
0.082622
0.037018
0.10303
0.0025757
-0.034418
-0.024851
-0.03378
-0.059931
-0.050682
-0.056423
-0.087038
-0.072049
-0.060569
-0.055147
-0.059612
-0.072049
-0.060887
-0.068541
-0.053871
-0.050044
-0.036331
-0.043028
-0.052915
-0.010181
-0.036969
-0.058336
-0.082892
-0.091503
-0.035694
-0.028678
-0.043666
-0.049726
-0.04271
-0.005716
-0.0015702
-0.021024
-0.012094
0.02458
0.020116
0.0089539
0.044991
0.046904
0.069547
0.066677
0.04531
-0.0047593
0.040845
0.037337
0.02777
-0.011456
-0.036331
0.049774
0.013738
-0.01911
-0.034418
-0.057379
-0.07779
-0.061525
-0.05132
-0.042391
-0.01911
-0.023256
-0.04271
0.008635
-0.009224
-0.025807
-0.014645
-0.011775
0.008635
-0.010819
-0.017835
-0.036969
0.0019378
0.019478
0.0028946
-0.04558
-0.037926
-0.035694
-0.015283
-0.01911
-0.072368
-0.037607
0.0070404
-0.0031647
0.016289
0.034786
2.4388e-05
0.0028946
-0.016878
0.010548
0.028726
0.028726
0.02777
0.019797
0.032553
0.058066
0.073055
0.050412
0.055515
0.070503
0.062212
0.096335
0.12344
0.11324
0.044034
0.049137
0.070822
0.072098
0.11069
0.07752
0.027451
0.03925
0.0057648
-0.028678
-0.018791
-0.017197
-0.03378
-0.052915
-0.053871
-0.02804
2.4388e-05
-0.0089051
-0.052277
-0.072687
-0.066947
-0.072049
-0.073963
-0.088314
-0.081617
-0.045261
-0.023894
-0.040158
-0.052915
-0.045261
-0.038883
-0.035375
-0.043347
-0.0060349
0.016289
0.021391
0.036699
0.033829
0.038612
0.022348
0.040845
0.036061
0.044034
0.072098
0.063487
0.067314
0.044353
0.0060837
0.051369
0.037337
-0.010181
0.0022568
0.036061
0.016289
-0.013051
0.016289
-0.026764
-0.040796
-0.044623
0.0099106
0.030002
-0.0012513
-0.021343
-0.024851
-0.0047593
-0.020705
-0.035056
-0.040158
-0.015283
-0.066628
-0.077471
-0.046536
-0.062482
-0.053552
-0.056742
-0.091822
-0.073963
-0.075876
-0.059931
-0.053552
-0.022937
0.011505
-0.011137
-0.00029452
0.013419
0.00066221
0.0099106
0.027132
0.037337
0.0131
0.0073593
0.01023
-0.0105
-0.015921
-0.009224
0.0057648
-0.0063538
0.011824
0.031278
0.012143
0.015332
0.022029
0.025856
0.053601
0.066358
0.038931
0.01884
0.04531
0.084536
0.073055
0.047542
0.042758
0.011186
0.0089539
0.03925
0.050412
0.0003433
-0.036331
-0.01911
-0.018791
-0.0063538
0.0022568
-0.022937
-0.029634
0.0057648
0.034148
0.056153
0.078476
0.069228
0.09506
0.10813
0.12791
0.10686
0.081984
0.085492
0.1177
0.1126
0.079752
0.089
0.064763
0.01884
0.026494
0.011824
-0.067903
-0.049407
-0.040477
-0.077152
-0.017516
-0.0076295
-0.02198
-0.049088
-0.07173
-0.063758
-0.083849
-0.10266
-0.086719
-0.097562
-0.075876
-0.071093
-0.062801
-0.069179
-0.12212
-0.11287
-0.10553
-0.080341
-0.056742
-0.06312
-0.0864
-0.12977
-0.095649
-0.053234
-0.058974
-0.064395
-0.08353
-0.051958
-0.038245
-0.073006
-0.077471
-0.055466
-0.031229
-0.025488
-0.0085862
-0.010819
0.012143
0.020435
0.027132
0.01597
0.03351
0.050412
0.06285
0.057747
0.046266
0.084217
0.10558
0.11005
0.10877
0.13524
0.11164
0.14736
0.14704
0.13269
0.12599
0.14896
0.14321
0.13301
0.11037
0.10845
0.10335
0.066039
0.067633
0.041483
-0.026445
-0.013051
-0.04271
-0.065352
-0.048131
-0.031548
-0.057698
-0.087038
-0.10362
-0.1033
-0.11383
-0.097562
-0.069817
-0.072368
-0.089908
-0.10553
-0.053552
-0.0060349
-0.0069916
-0.0034836
0.0003433
0.022348
0.026494
0.019478
0.041483
0.047542
0.079433
0.022667
0.023943
0.020754
2.4388e-05
0.059979
0.022986
-0.014008
-0.019748
-0.018153
0.014694
0.0092728
-0.0079484
-0.03378
-0.0041214
0.0025757
0.0044891
-0.0041214
0.0028946
0.0019378
0.036699
0.052645
0.065401
0.053282
0.0131
0.017883
0.027451
0.044034
0.044672
0.0032135
0.004808
0.020754
0.0022568
0.023624
0.022348
0.011824
-0.015921
-0.012732
0.010548
-0.023256
-0.02517
-0.023894
-0.031548
-0.023575
-0.039202
-0.039839
-0.040477
-0.06599
-0.097243
-0.095649
-0.090546
-0.067266
-0.087676
-0.13487
-0.15497
-0.12371
-0.11128
-0.10585
-0.080341
-0.072368
-0.096605
-0.095649
-0.13966
-0.11765
-0.055785
-0.058974
-0.034737
-0.040477
-0.05132
-0.041753
-0.036969
-0.034737
-0.028359
0.0057648
0.010867
0.0095917
0.052645
0.057428
0.11962
0.15788
0.16044
0.14768
0.13205
0.16107
0.17511
0.17861
0.18627
0.20413
0.20668
0.2223
0.19679
0.1818
0.21369
0.17192
0.15661
0.12918
0.10463
0.069866
0.060936
0.040207
0.045947
0.053282
0.025856
-0.046855
-0.086081
-0.097562
-0.0864
-0.093097
-0.1269
-0.13838
-0.13041
-0.12276
-0.14412
-0.14412
-0.13041
-0.11989
-0.13392
-0.12052
-0.094692
-0.095968
-0.084806
-0.076195
-0.069179
-0.052915
-0.038883
-0.026445
-0.0044404
0.0131
-0.013051
0.0003433
-0.01911
-0.0069916
-0.022937
-0.013051
-0.016878
-0.013051
-0.061206
-0.0864
-0.097881
-0.074919
-0.095011
-0.09533
-0.077152
-0.050044
-0.0031647
-0.037607
-0.068541
-0.049407
-0.0028458
0.044672
0.055834
0.072736
0.084217
0.094103
0.10208
0.10144
0.12759
0.093146
0.10303
0.090914
0.084854
0.14353
0.12823
0.13237
0.085492
0.063806
0.067314
0.077838
0.11643
0.094103
0.073055
0.074649
0.079114
0.048818
0.09506
0.072098
0.008316
0.019797
0.04818
0.042121
0.020754
0.048818
-0.031548
-0.082892
-0.0069916
-0.020067
-0.087357
-0.091184
-0.094054
-0.071093
-0.10203
-0.11542
-0.14189
-0.1285
-0.11415
-0.084487
-0.098838
-0.13041
-0.14093
-0.132
-0.081935
-0.076195
-0.070136
-0.061844
-0.05419
-0.084168
-0.080979
-0.044304
-0.041753
-0.060887
-0.050682
-0.014327
-0.030591
-0.022618
-0.024851
-0.03665
-0.043028
-0.02517
-0.024213
-0.027402
-0.014327
-0.040796
-0.03378
-0.017516
-0.011775
-0.014008
-0.059612
-0.04271
0.027451
0.047861
0.025218
0.0089539
0.021072
0.026175
0.046585
0.062212
0.087725
0.11292
0.11993
0.11356
0.13747
0.13556
0.11419
0.090276
0.10909
0.095697
0.10973
0.077201
0.055515
0.050093
0.059342
0.05105
0.012143
-0.01337
-0.01337
-0.017835
-0.0095429
-0.024851
-0.024851
-0.046536
-0.052915
-0.039839
-0.03665
-0.038564
0.0016189
-0.009224
-0.012732
-0.0095429
-0.059931
-0.058655
-0.071093
-0.035375
-0.034418
-0.024851
-0.021024
-0.065352
-0.053234
0.012781
0.0073593
-0.015602
-0.019748
-0.050682
-0.053552
-0.031229
-0.025488
-0.026764
-0.0050782
-0.010181
-0.043028
-0.046855
-0.030591
-0.015283
-0.032504
-0.040158
-0.026764
-0.043347
-0.043985
-0.040477
-0.045899
-0.032504
-0.029634
-0.011775
-0.023575
-0.042072
-0.00029452
-0.0063538
-0.01337
-0.0095429
-0.0069916
0.0032135
0.05392
0.10016
0.12982
0.1244
0.12025
0.12217
0.13588
0.15597
0.16363
0.1429
0.14098
0.14991
0.16331
0.075606
0.076882
0.049774
0.024262
0.054239
0.031915
-0.01911
-0.063758
-0.052596
-0.041434
-0.044942
-0.024213
-0.02198
-0.070455
-0.07173
-0.04271
-0.049407
-0.063439
-0.058336
-0.032504
-0.038245
-0.017197
-0.040158
-0.067585
-0.076195
-0.066947
-0.046218
-0.026126
-0.052915
-0.076833
-0.081617
-0.088952
-0.093735
-0.067266
-0.064077
-0.063439
-0.044304
-0.061206
-0.064714
-0.084487
-0.076195
-0.072368
-0.035375
0.0060837
0.037975
0.017564
-0.002208
0.016608
0.026175
0.013419
-0.015283
0.0028946
0.022348
0.06859
0.053601
0.060936
0.030002
0.019478
0.022029
0.031278
0.063487
0.022029
0.045629
0.057747
0.099843
0.070185
0.036699
0.045947
0.055196
0.072417
0.050412
0.035742
0.034467
0.0044891
-0.0082673
0.0019378
0.0054459
-0.023575
-0.021024
-0.021024
-0.057698
-0.038564
-0.031867
-0.024532
-0.017197
-0.026126
-0.021343
-0.052596
-0.038883
-0.035375
-0.039839
-0.032504
-0.036331
-0.061525
-0.063758
-0.058336
-0.081617
-0.088314
-0.075557
-0.068541
-0.068222
-0.090227
-0.093416
-0.093416
-0.075557
-0.058655
-0.044304
0.0131
0.021391
-0.030591
-0.0095429
-0.00061343
-0.0031647
0.0099106
0.021072
-0.0044404
0.075287
0.038294
0.039888
0.057109
0.016608
0.051369
0.07433
0.07752
0.052963
0.037018
0.056471
0.033829
0.05679
0.1193
0.092189
0.055515
0.096654
0.1244
0.091552
0.070185
0.081984
0.097292
0.16363
0.13843
0.090914
0.061255
0.10112
0.1177
0.080709
0.095378
0.031596
0.0057648
-0.012094
0.012143
2.4388e-05
-0.037926
-0.039202
-0.09533
-0.085762
-0.079703
-0.10298
-0.11064
-0.10681
-0.13137
-0.11319
-0.10617
-0.10617
-0.13041
-0.10553
-0.067266
-0.089908
-0.074282
-0.097562
-0.094692
-0.067266
-0.053234
-0.052915
-0.066947
-0.065352
-0.051958
-0.047174
-0.046218
-0.06025
-0.036012
-0.061525
-0.043666
-0.084487
-0.060569
-0.024851
-0.014008
-0.03665
-0.015283
-0.0018891
0.020754
0.017564
0.017883
0.025218
0.03064
0.03064
0.025856
0.020435
0.050093
0.066995
0.076244
0.040845
0.028726
0.04818
0.084217
0.089319
0.088681
0.061574
0.093784
0.081665
0.059979
0.07752
0.053601
0.039569
0.070822
0.069547
0.044034
0.048818
0.024899
0.00066221
0.0064026
0.022986
0.027132
0.027451
0.022348
0.0076782
0.046585
0.040845
0.029045
0.035742
0.023624
0.052963
0.048499
0.034786
0.040845
0.046266
0.03064
0.00098112
-0.0069916
-0.0085862
-0.01624
0.0025757
-0.039839
-0.067585
-0.048769
-0.072049
-0.10235
-0.11287
-0.1049
-0.074601
-0.097243
-0.13009
-0.075876
-0.08353
-0.092778
-0.097243
-0.083211
-0.098519
-0.096286
-0.10394
-0.097243
-0.068222
-0.040477
-0.029953
-0.064395
-0.087995
-0.087357
-0.040796
-0.044623
-0.018791
-0.025807
-0.0105
0.021391
0.058066
0.056153
0.035423
0.084217
0.097611
0.084217
0.091552
0.068271
0.087087
0.096654
0.10654
0.083579
0.066358
0.040207
0.055515
0.089
0.08039
0.063806
0.034148
0.063806
0.074649
0.050731
0.069547
0.07433
0.037018
0.047223
0.064763
0.081984
0.068271
0.03638
0.012781
0.020435
0.019159
0.022348
-0.0012513
-0.027721
-0.033142
-0.073325
-0.078109
-0.068541
-0.066628
-0.044623
-0.019748
-0.018153
0.0060837
0.020116
0.0028946
0.00066221
-0.015283
-0.015283
0.0028946
-0.018791
0.0016189
-0.010819
-0.014645
-0.029634
-0.046855
-0.052277
-0.093735
-0.096286
-0.08353
-0.062163
-0.048131
-0.095649
-0.072687
-0.037607
-0.023894
-0.026445
-0.01337
-0.020386
0.037975
0.038931
0.083898
0.1228
0.10877
0.069547
0.063169
0.069547
0.10686
0.055834
0.09187
0.10718
0.076563
0.10431
0.025856
-0.037607
0.014375
0.00066221
-0.023575
-0.01624
-0.02517
-0.043028
-0.033461
-0.049407
-0.038883
-0.021343
-0.021661
-0.0034836
-0.0053971
-0.00061343
-0.00061343
-0.022937
-0.036331
-0.023894
-0.053871
-0.04271
-0.032186
-0.079384
-0.057379
-0.050682
-0.073006
-0.075238
-0.064395
-0.055466
-0.036331
-0.029315
-0.023575
-0.016878
-0.011456
-0.014008
-0.025488
-0.026126
-0.002208
-0.0105
-0.043666
-0.059293
-0.052277
-0.065671
-0.039839
-0.038245
-0.036969
-0.041753
-0.029953
-0.034418
-0.066309
-0.043347
-0.02198
0.0067215
0.011186
0.02777
0.053601
0.053601
0.05105
0.043715
0.044353
0.020435
0.046904
0.049137
0.081984
0.10048
0.046904
0.062531
0.052963
0.050731
0.074968
0.11228
0.081028
0.081028
0.091233
0.082941
0.058704
0.060298
0.05392
0.021072
0.057109
0.079433
0.067633
0.044353
-0.0025269
-0.059931
-0.061844
-0.044304
-0.027083
-0.032823
-0.052596
-0.068222
-0.019429
-0.062163
-0.074282
-0.03665
-0.053552
-0.078109
-0.027402
-0.011456
-0.015602
-0.0015702
0.0070404
0.017246
0.013738
-0.0073105
-0.014008
-0.019429
-0.014327
-0.02198
0.015013
-0.025488
-0.059931
0.013419
0.030002
-0.0076295
-0.027083
-0.057379
-0.075876
-0.064077
-0.057698
-0.074282
-0.067903
-0.040477
-0.061844
-0.048131
-0.047493
-0.042391
-0.053234
-0.050682
-0.08066
-0.08066
-0.020067
0.011824
-0.0069916
0.0041702
-0.011775
0.0003433
0.0032135
-0.0015702
0.0016189
2.4388e-05
0.034148
0.022667
0.030321
0.056471
0.063487
0.04531
0.043715
0.037656
0.052645
0.048818
0.044991
0.028088
0.052326
0.05105
0.058385
0.038612
0.031596
0.044353
0.058704
0.046904
0.045947
0.041483
0.042758
0.039569
0.098568
0.071141
-0.0047593
0.024899
0.033191
0.03064
0.04818
0.03351
-0.0079484
0.01023
-0.018153
-0.013689
-0.0018891
-0.00061343
-0.019748
-0.02804
-0.015283
-0.021343
0.039569
0.012143
-0.064077
-0.058974
-0.04271
-0.042072
-0.074601
-0.044942
-0.064077
-0.082892
-0.099794
-0.11383
-0.11383
-0.11415
-0.09533
-0.094054
-0.086081
-0.065033
-0.079703
-0.086081
-0.093416
-0.065671
-0.03378
-0.021024
-0.0034836
0.0092728
0.0041702
0.0095917
-0.012413
0.0099106
0.034467
0.046585
0.054877
0.035104
0.0035324
0.044353
0.053601
0.032234
0.024262
0.017564
0.02171
0.023624
0.06572
0.03351
0.029364
0.013419
0.042758
0.073374
0.094422
0.11419
0.064763
0.044034
0.10782
0.12025
0.080709
0.066677
0.038612
0.07433
0.052007
0.013738
0.028726
0.019478
0.020754
-0.0041214
-0.035375
-0.043666
-0.11893
-0.11893
-0.083211
-0.10011
-0.099794
-0.096286
-0.075876
-0.058336
-0.086719
-0.11574
-0.10553
-0.06025
-0.051639
-0.038564
-0.0105
-0.0089051
0.01023
-0.0089051
-0.0050782
-0.0073105
-0.0060349
0.01023
0.016608
0.017564
-0.028996
0.015651
0.0032135
0.0054459
0.011824
0.012462
0.026175
0.017564
0.011186
0.0095917
0.035742
0.052645
0.049774
0.11675
0.13078
0.14736
0.15406
0.081984
0.10909
0.14449
0.13429
0.13939
0.16873
0.11005
0.064444
0.090914
0.073055
0.05392
0.040207
0.00098112
-0.01911
-0.0085862
-0.009224
-0.06025
-0.063758
-0.071411
-0.062163
-0.08353
-0.11733
-0.061206
-0.058017
-0.071093
-0.039839
-0.082892
-0.11383
-0.095649
-0.085762
-0.087357
-0.076514
-0.0982
-0.09533
-0.062801
-0.073325
-0.061525
-0.077152
-0.046536
-0.012094
-0.0060349
0.00098112
0.03925
0.028407
0.021391
0.012781
0.020435
0.028088
0.073374
0.066677
0.11388
0.077201
0.034786
0.075287
0.061574
0.029045
0.0092728
-0.0073105
0.043715
-0.018153
-0.032186
-0.051001
-0.037607
-0.060887
-0.12116
-0.11191
-0.11797
-0.10968
-0.10266
-0.10107
-0.089589
-0.10649
-0.09533
-0.060887
-0.023575
-0.0105
0.022667
-0.036969
-0.0095429
0.010548
0.04531
0.035423
0.02777
0.018202
0.064125
0.059661
0.041164
0.03638
0.0067215
0.0003433
0.041483
0.031915
0.028407
-0.0034836
-0.033142
0.0044891
0.016608
-0.019748
-0.027721
-0.042391
-0.042072
-0.0025269
-0.0050782
-0.032186
-0.026764
-0.016559
-0.01911
0.01597
0.040207
0.037337
0.045947
0.042758
0.094103
0.087725
0.10048
0.11738
0.10526
0.081665
0.061893
0.11292
0.10335
0.075287
0.055515
0.026175
0.033191
0.051688
0.03638
-0.0041214
-0.024851
-0.037607
-0.053234
-0.044623
-0.012413
-0.051958
-0.083211
-0.065671
-0.042391
-0.062163
-0.048769
-0.085762
-0.096286
-0.064077
-0.032504
-0.084168
-0.051958
-0.03091
-0.014964
0.017883
-0.012413
-0.023575
-0.044304
-0.030272
0.008316
0.028407
0.05392
0.05392
0.041802
0.067314
0.074012
0.075606
0.051369
0.039569
0.037656
0.010548
0.022029
0.050731
0.02777
0.035742
0.026175
0.017246
0.010867
-0.027083
-0.015283
-0.010819
-0.02198
-0.016559
-0.039839
-0.054828
-0.041434
-0.036012
-0.029953
-0.033142
-0.047493
-0.057379
-0.069498
-0.054509
-0.045261
-0.043347
-0.075876
-0.066947
-0.06599
0.016608
0.037656
0.025218
0.051369
0.033829
0.042121
0.085811
0.11069
0.082622
0.099843
0.11898
0.10941
0.099524
0.078476
0.081665
0.082941
0.087725
0.050412
-0.0034836
-0.0034836
-0.028359
-0.053552
-0.026126
-0.041753
-0.065033
-0.1202
-0.10809
-0.083849
-0.078427
-0.080022
-0.073644
-0.072687
-0.056104
-0.047493
-0.022299
-0.042391
-0.044304
-0.00029452
0.017564
0.0092728
-0.010819
-0.0028458
0.0041702
0.022029
0.0095917
-0.0079484
-0.028359
0.0092728
0.089638
0.052963
0.028088
0.023305
0.021391
0.026494
0.058066
0.014694
0.0041702
0.05105
0.064763
0.03064
0.023624
0.05679
0.069547
0.043077
0.0041702
0.041164
0.048818
0.073374
0.090276
0.049137
0.058385
0.065401
0.11005
0.08326
0.05679
0.024899
-0.0079484
0.0016189
0.010548
-0.027083
-0.032823
-0.038564
-0.058655
-0.064077
-0.078427
-0.078746
-0.055466
-0.062482
-0.068222
-0.094054
-0.088633
-0.073006
-0.054828
-0.061206
-0.069498
-0.049088
-0.044942
-0.071093
-0.084806
-0.096924
-0.079384
-0.057698
-0.059612
-0.10298
-0.062163
-0.059612
-0.090546
-0.057061
-0.031229
-0.043028
-0.046855
-0.050682
-0.025807
-0.0069916
0.0032135
-0.0069916
-0.01911
0.035742
0.036699
0.021072
0.017246
-0.0089051
-0.022299
-0.0089051
-0.0069916
-0.0034836
-0.011137
-0.026764
-0.0105
-0.0082673
-0.025488
0.0057648
-0.0025269
-0.0089051
0.023943
0.030959
0.036699
0.04818
0.063806
0.010548
0.017246
0.035423
0.044034
0.075925
0.07146
0.069547
0.056153
0.087087
0.067633
0.06285
0.059023
0.071141
0.047542
0.044034
0.044672
0.059342
0.099205
0.079114
0.08613
0.047542
0.040845
0.041802
0.052963
0.042758
0.067633
0.055196
0.056471
0.030321
-0.01624
0.008635
0.027132
0.052007
0.0064026
-0.026126
-0.048769
-0.096605
-0.087357
-0.072687
-0.062482
-0.050044
-0.064077
-0.1049
-0.1202
-0.088952
0.0070404
-0.0076295
-0.037607
-0.034099
-0.047812
-0.064077
-0.086081
-0.063758
-0.12403
-0.12212
-0.073963
-0.044942
-0.083849
-0.11797
-0.1454
-0.10171
-0.068541
-0.095649
-0.085762
-0.071411
-0.029315
-0.0076295
0.018521
0.034467
0.038612
0.059661
0.087406
0.13205
0.15087
0.10622
0.10431
0.094741
0.13046
0.17351
0.16076
0.1531
0.10909
0.087406
0.046904
0.1008
0.091233
0.050412
0.025856
0.035742
0.035742
-0.0047593
0.0089539
0.0076782
-0.054509
-0.069498
-0.020067
-0.017516
-0.0050782
0.0089539
-0.026126
-0.033461
-0.029953
-0.020386
-0.020067
-0.025807
-0.018791
-0.023575
-0.044942
-0.061525
-0.020386
0.0035324
-0.044942
-0.049088
-0.038564
-0.076195
-0.082254
-0.058974
-0.065033
-0.14061
-0.11255
-0.069179
-0.092778
-0.12084
-0.10107
-0.084806
-0.09533
-0.086719
-0.072368
-0.058974
-0.014964
-0.011137
-0.028359
-0.017516
-0.016559
-0.0069916
0.063487
0.061893
0.033191
0.022029
0.038612
0.062212
0.070185
0.053282
0.032553
0.042439
0.037337
0.045629
0.020116
0.029045
0.028726
0.068271
0.040207
-0.0041214
-0.010181
-0.014964
-0.0015702
0.065082
0.061893
0.064763
0.040207
0.0073593
0.064125
0.098568
0.069547
0.044353
0.05105
0.01597
0.017564
0.015332
0.0019378
-0.04558
-0.0060349
-0.022618
-0.071093
-0.08353
-0.067903
-0.10298
-0.11957
-0.10841
-0.10553
-0.11478
-0.13169
-0.14923
-0.13966
-0.096286
-0.088633
-0.09246
-0.10458
-0.096924
-0.079065
-0.09533
-0.076195
-0.04558
-0.053871
-0.017835
0.0054459
0.0131
0.041164
0.041483
0.058385
0.081346
0.089957
0.078157
0.092827
0.061255
0.067314
0.098568
0.091552
0.07433
0.079114
0.087087
0.081028
0.068271
0.049137
2.4388e-05
-0.005716
0.028407
0.0070404
2.4388e-05
-0.026126
-0.040477
0.008635
-0.0034836
-0.010181
-0.047493
-0.045899
-0.045899
-0.035056
0.011824
0.069228
0.020116
0.027132
0.0016189
0.011505
0.0041702
0.062531
0.05679
0.063806
0.074649
0.055834
0.069228
0.090914
0.059023
0.044353
0.044034
0.05679
0.019797
0.0092728
0.0060837
0.069228
0.04818
-0.0089051
-0.023575
-0.048131
-0.064395
-0.056742
-0.055466
-0.032186
-0.06599
-0.093416
-0.0864
-0.10107
-0.10745
-0.10617
-0.1218
-0.11383
-0.1387
-0.13169
-0.12244
-0.087357
-0.10043
-0.087676
-0.11191
-0.098838
-0.086081
-0.099476
-0.039202
0.020116
0.052007
0.092508
0.091552
0.030002
0.064125
0.08326
0.076244
0.062531
0.07433
0.071141
0.084217
0.091233
0.097611
0.039569
0.01597
-0.010819
0.0022568
0.0076782
0.008635
0.031596
0.0099106
2.4388e-05
-0.0031647
0.013419
0.0041702
0.031278
0.096335
0.077201
0.098886
0.077201
0.066995
0.06285
0.10367
0.060617
2.4388e-05
0.03638
0.087087
0.023305
-0.0038025
-0.012094
-0.00093234
-0.043347
-0.10809
-0.12818
-0.14667
-0.14221
-0.13073
-0.1202
-0.12403
-0.12307
-0.10904
-0.12212
-0.13551
-0.11606
-0.086719
-0.06599
-0.073325
-0.062482
-0.090546
-0.057061
-0.05419
-0.015283
-0.021343
-0.013689
0.015013
0.039888
0.015013
0.026175
0.020435
0.020754
0.022029
-0.0098618
0.0054459
0.058066
0.10048
0.043077
0.011824
0.011824
0.032553
0.054239
0.050731
0.062531
0.012143
0.017564
0.040207
0.019478
0.01597
0.026813
0.0022568
0.036061
0.0073593
-0.017516
-0.043028
-0.048131
-0.03091
-0.046855
-0.034418
-0.010819
0.0060837
-0.011775
0.029045
0.029683
-0.0015702
0.01884
0.033829
0.074012
0.083898
0.073693
0.077838
0.079114
0.087406
0.061893
0.037656
0.01884
0.023305
0.066039
0.022029
-0.013689
-0.010181
-0.0025269
-0.015602
-0.033142
-0.028996
-0.016878
-0.0015702
-0.017516
-0.043028
-0.044942
0.019478
0.028088
-0.027083
-0.0034836
0.010548
-0.0047593
0.0041702
-0.0025269
-0.023575
-0.050363
-0.038245
-0.04558
-0.059293
-0.06025
-0.1151
-0.17251
-0.14954
-0.10649
-0.10394
-0.11989
-0.11606
-0.11638
-0.12084
-0.11446
-0.11861
-0.10809
-0.067903
-0.020386
0.040526
0.038612
0.065082
0.068271
0.081665
0.10654
0.11228
0.13429
0.1244
0.11898
0.10303
0.13524
0.12727
0.084217
0.034148
0.041483
0.0092728
0.035423
0.063169
0.0092728
-0.036012
-0.027402
-0.02198
-0.017835
0.011824
0.017883
0.037337
0.045947
0.018202
0.0044891
-0.009224
0.0095917
-0.0044404
-0.023256
-0.038245
0.016927
-0.021661
-0.04845
-0.065671
-0.059293
-0.081298
-0.087357
-0.058974
-0.062163
-0.06599
-0.048131
-0.057061
-0.059931
-0.044942
-0.078746
-0.062482
-0.059612
-0.038564
-0.074919
-0.063758
-0.055466
-0.043347
-0.043666
-0.035375
-0.058336
-0.053871
-0.028996
0.012781
0.021391
0.063487
0.081346
0.040207
0.016608
0.045629
0.015013
0.025856
0.057747
0.04818
0.091233
0.069547
0.031278
-0.0082673
-0.0063538
0.021391
0.0057648
0.0022568
0.021072
0.02171
0.022667
0.026813
0.031596
0.016927
0.029045
0.018202
0.029045
0.046585
0.06572
0.034148
-0.0076295
0.064444
0.07146
0.017564
-0.012732
0.011505
0.01023
0.0095917
0.023624
0.023624
-0.0050782
0.027451
0.0067215
-0.010181
-0.0012513
-0.014645
-0.0105
-0.050044
-0.0085862
-0.032186
-0.048131
-0.015602
-0.02198
-0.050682
-0.064395
-0.093735
-0.096605
-0.094373
-0.082254
-0.06025
-0.067266
-0.029315
-0.042391
-0.0076295
-0.011775
0.024899
0.0038513
-0.022937
-0.0076295
0.011824
0.034786
0.017246
0.010548
-0.0060349
-0.014645
-0.038564
-0.051958
-0.04271
-0.058017
-0.087995
-0.069817
-0.060569
-0.048131
-0.025488
-0.048131
-0.062163
-0.048769
-0.014327
-0.013051
0.0025757
0.021072
0.017564
0.033829
0.051369
0.029683
0.0044891
0.025218
0.086768
0.11483
0.095378
0.09793
0.066358
0.095378
0.08326
0.089319
0.073374
0.11356
0.11069
0.071779
0.081028
0.068909
0.042439
0.055196
0.024899
0.03638
0.040207
0.02458
-0.0047593
-0.011456
-0.036012
-0.0015702
-0.023575
-0.06025
-0.097562
-0.080022
-0.073006
-0.098838
-0.1151
-0.11159
-0.069179
-0.092141
-0.099794
-0.1151
-0.091184
-0.077152
-0.064714
-0.059293
-0.041115
-0.029953
-0.04558
-0.046218
-0.02198
-0.020705
-0.044304
-0.04845
-0.064714
-0.062163
-0.073963
-0.040158
-0.088952
-0.056104
-0.06025
-0.047812
-0.053234
-0.028678
-0.036012
-0.047812
-0.017516
0.004808
0.019159
0.012781
0.016289
0.0070404
0.039569
0.057747
0.077838
0.06572
0.043396
0.099843
0.093146
0.11834
0.11993
0.10654
0.073693
0.10845
0.11898
0.12121
0.17574
0.14672
0.096016
0.086449
0.11037
0.13397
0.082622
0.038612
0.041483
0.039888
-0.0063538
0.0095917
-0.017197
-0.037288
-0.02804
-0.035694
-0.051001
-0.05419
-0.058655
-0.090227
-0.10745
-0.065671
-0.034099
-0.03952
-0.045899
-0.057061
-0.053871
-0.079384
-0.054828
-0.092778
-0.06025
-0.042072
-0.079065
-0.066309
-0.064077
-0.060887
-0.099794
-0.097562
-0.089908
-0.098519
-0.1202
-0.096605
-0.057698
-0.051639
-0.069498
-0.090546
-0.1033
-0.10745
-0.050682
-0.02517
-0.024851
-0.029315
-0.014327
-0.020705
0.035104
0.10144
0.059661
0.040526
0.073374
0.12567
0.11802
0.11611
0.18085
0.20285
0.17447
0.16458
0.10845
0.15055
0.14672
0.13142
0.13333
0.12249
0.13173
0.063806
0.023943
0.059979
0.021072
0.017883
-0.0018891
-0.072687
-0.091822
-0.052915
-0.063439
-0.087676
-0.073325
-0.11319
-0.10745
-0.096286
-0.070455
-0.0864
-0.11128
-0.072368
-0.06025
-0.088633
-0.11829
-0.091503
-0.074282
-0.063439
-0.073644
-0.090546
-0.073006
-0.052277
-0.087357
-0.067266
-0.064395
-0.014008
-0.030272
-0.074919
-0.039839
-0.037288
-0.056423
-0.049088
0.0064026
-0.0076295
0.02171
0.019478
0.0044891
-0.027083
-0.014645
-0.021343
-0.044942
-0.058336
-0.021343
-0.020067
-0.017516
0.050093
0.03925
-0.039839
-0.019748
-0.03091
0.020754
0.090276
0.096335
0.088362
0.081028
0.081346
0.11675
0.15693
0.148
0.1598
0.15852
0.1228
0.13429
0.16618
0.13365
0.093146
0.050731
0.032553
0.047542
0.035742
-0.0044404
0.027132
-0.014327
-0.049726
-0.052915
-0.022299
-0.05419
-0.039839
-0.043347
-0.05419
-0.019429
0.0051269
-0.014964
-0.023575
-0.043347
-0.043347
-0.024213
-0.032504
-0.065352
-0.014964
0.0016189
-0.049088
-0.077152
-0.066947
-0.055147
-0.06025
-0.053552
-0.069498
-0.049726
-0.090227
-0.11
-0.083849
-0.041753
-0.020067
-0.035694
-0.03378
-0.043347
-0.043347
-0.023575
-0.076514
-0.079703
-0.028678
-0.036331
-0.058336
-0.040477
-0.047812
-0.04271
-0.00029452
-0.0060349
-0.024213
0.0079971
-0.0028458
-0.022937
0.0022568
-0.0038025
-0.002208
0.021391
0.058704
0.016289
0.028407
0.048499
0.0089539
-0.00029452
-0.0031647
0.0028946
-0.022299
-0.049088
-0.01337
-0.024851
-0.041434
-0.026126
-0.0012513
0.028407
-0.0098618
-0.034099
-0.029315
-0.036969
-0.025488
0.010548
-0.00029452
-0.005716
0.035423
0.049137
0.030002
0.012781
0.024262
0.0099106
0.043077
0.040207
0.03351
0.051369
0.011824
-0.0012513
0.019478
0.0079971
-0.010181
-0.0105
-0.011456
-0.040158
-0.050682
-0.019429
-0.016878
-0.0076295
-0.021343
-0.021024
0.01884
0.034148
-0.012413
-0.0069916
-0.0012513
-0.03091
-0.063758
-0.021343
-0.010181
0.0099106
-0.030591
-0.076195
-0.0864
-0.07779
-0.046218
-0.06599
-0.040477
0.0016189
-0.02517
-0.052277
-0.028359
0.0013
-0.0050782
0.01023
0.028726
0.030959
0.046266
0.067314
0.048499
0.057747
0.020435
0.0067215
-0.0095429
0.0095917
0.069547
0.088362
0.069547
0.082622
0.054239
0.0054459
-0.013051
0.0067215
0.0032135
0.012781
0.090595
0.088681
0.034148
0.041164
0.099843
0.10973
0.069228
0.014375
0.035742
0.049774
0.088362
0.088681
0.027451
0.018521
-0.048769
-0.034418
-0.034737
-0.0073105
-0.049088
-0.11733
-0.10809
-0.10075
-0.10745
-0.13456
-0.15847
-0.14157
-0.099476
-0.12307
-0.094373
-0.075557
-0.081935
-0.10841
-0.084487
-0.04845
-0.077152
-0.063439
-0.041434
-0.047174
-0.039202
-0.0073105
-0.016878
0.0054459
-0.016878
-0.046218
-0.061206
-0.012094
0.0092728
0.012462
0.017246
-0.012732
0.029045
0.011505
-0.0034836
0.038931
0.07146
0.075925
0.074012
0.059979
0.042758
0.041164
0.068271
0.059023
0.065082
0.028407
0.024899
0.055515
0.054877
0.031596
-0.0041214
0.014375
0.018521
0.05105
0.035423
0.015332
0.053601
0.044672
0.02458
0.0099106
0.029683
0.061574
0.050093
0.018521
0.020435
0.012143
-0.00029452
-0.01337
0.0064026
0.0038513
-0.029634
-0.0031647
-0.017197
-0.0098618
-0.018472
-0.040796
-0.065033
-0.0047593
-0.02198
-0.061844
-0.048131
-0.011456
-0.014327
-0.018153
-0.021343
-0.0012513
-0.015921
-0.037607
-0.027402
-0.042391
-0.034737
-0.030591
-0.012413
-0.03665
-0.031548
-0.030591
-0.086081
-0.070136
-0.068541
-0.043347
-0.05132
-0.06312
-0.070455
-0.069817
-0.065671
-0.080022
-0.066309
-0.086081
-0.092778
-0.072687
-0.081617
-0.083849
-0.10075
-0.089908
-0.050363
0.02171
0.053282
0.032872
0.03925
0.048818
0.069547
0.098249
0.1008
0.082622
0.099843
0.17861
0.16618
0.1228
0.13333
0.096335
0.067952
0.065082
0.042121
0.052645
0.048818
0.026813
0.033191
0.045947
0.04818
0.0064026
0.0054459
0.042758
0.032234
0.035742
0.029045
0.0095917
-0.029953
0.0079971
-0.0053971
-0.0089051
-0.022299
-0.020386
-0.047812
-0.023256
-0.027083
-0.002208
-0.0015702
-0.034099
-0.028359
-0.02517
-0.025488
-0.0105
-0.026764
-0.026126
-0.027402
0.012143
-0.040796
-0.03091
-0.081935
-0.088314
-0.073006
-0.077152
-0.14189
-0.11989
-0.12212
-0.11478
-0.12818
-0.092778
-0.077471
-0.072368
-0.079065
-0.05132
-0.02198
-0.031548
-0.045261
-0.02517
0.040207
0.03351
0.13747
0.086449
0.1126
0.10813
0.10941
0.11675
0.14226
0.14098
0.12695
0.14991
0.14258
0.14034
0.13492
0.088362
0.092508
0.077838
0.059342
0.043396
0.013419
0.016927
-0.021343
-0.034737
-0.022299
-0.010181
-0.044942
-0.038245
-0.05419
-0.053871
-0.046536
-0.023256
-0.010181
-0.074282
-0.031229
-0.040158
-0.091822
-0.078109
-0.051639
-0.066947
-0.082573
-0.075876
-0.075238
-0.10617
-0.11765
-0.10617
-0.11096
-0.10745
-0.094373
-0.078746
-0.070774
-0.079703
-0.053234
-0.077471
-0.051958
-0.043985
-0.088314
-0.10745
-0.051639
-0.02517
-0.035056
-0.026764
-0.026445
-0.025488
-0.019429
-0.018153
0.015651
0.028726
-0.019748
0.019797
0.041164
0.023943
0.019478
0.025218
0.050412
0.087406
0.053282
-0.01624
-0.014327
0.020754
0.044991
0.041802
0.058704
0.035423
0.024262
0.029683
0.03925
0.064763
0.070503
0.07433
0.072417
0.051369
0.052963
0.075606
0.049774
0.042121
0.058385
0.11005
0.12599
0.11388
0.089
0.05392
0.1008
0.092189
0.070822
0.10463
0.07433
0.033829
0.034786
0.0076782
-0.024532
-0.020705
-0.045261
-0.093097
-0.11765
-0.13232
-0.13966
-0.17314
-0.16294
-0.15401
-0.14667
-0.1572
-0.1269
-0.1521
-0.14093
-0.14986
-0.13806
-0.13041
-0.10522
-0.084168
-0.08353
-0.10553
-0.12052
-0.096605
-0.067903
-0.046855
-0.059612
-0.045899
-0.028359
-0.0085862
2.4388e-05
-0.010819
0.0051269
0.024262
0.07146
0.12312
0.15087
0.15119
0.1413
0.096335
0.1008
0.10845
0.14226
0.11643
0.14098
0.15119
0.1716
0.1311
0.079752
0.066995
0.075925
0.090276
0.061574
0.087725
0.062531
0.041483
0.025218
-0.0073105
-0.0015702
0.049137
0.02458
-0.023256
-0.044942
-0.049726
-0.075238
-0.059612
-0.097562
-0.07779
-0.041115
-0.057061
-0.069179
-0.043347
-0.06025
-0.043985
-0.022618
-0.0041214
-0.010181
-0.0041214
-0.047174
-0.040158
-0.038245
-0.045261
-0.057061
-0.050363
-0.076514
-0.10968
-0.08066
-0.084168
-0.044942
-0.064077
-0.1033
-0.11159
-0.087038
-0.11893
-0.13041
-0.099794
-0.083849
-0.055147
-0.065352
-0.093735
-0.073006
-0.054509
-0.047812
-0.038245
-0.0082673
0.0131
0.0057648
0.014694
0.026175
0.036699
0.083579
0.12025
0.11101
0.10782
0.074649
0.057747
0.054877
0.03925
0.058385
0.040526
0.031278
0.0028946
0.0038513
-0.0031647
-0.0025269
-0.041753
-0.056104
-0.053552
-0.051639
-0.040477
-0.036969
-0.048131
-0.021343
-0.020705
-0.036012
-0.0085862
-0.01337
-0.01337
-0.0041214
0.012143
0.0025757
0.014694
0.056153
0.036699
0.060298
0.050412
0.042758
0.029045
0.038612
0.038294
0.024262
0.043715
0.040845
0.038294
0.015332
0.022029
-0.0060349
-0.03665
0.017246
0.084854
0.011505
-0.0105
-0.0089051
0.0022568
-0.0012513
-0.0069916
-0.012413
-0.049088
-0.00061343
-0.015283
-0.043985
-0.058974
-0.038564
-0.033142
-0.075238
-0.10139
-0.10617
-0.071093
-0.086081
-0.086081
-0.084806
-0.095968
-0.097881
-0.11446
-0.11925
-0.07779
-0.037926
-0.065352
-0.043347
-0.031548
-0.055147
-0.053552
-0.034737
-0.026126
-0.0105
0.0131
0.012781
0.01023
0.0092728
0.018202
-0.015283
-0.0066727
0.012781
0.041164
0.019159
0.0044891
-0.0041214
0.0057648
0.026175
0.028407
0.01597
-0.0063538
-0.0076295
0.019478
-0.0025269
-0.0038025
0.022667
0.0067215
0.040845
0.056153
0.055834
0.091233
0.11898
0.14513
0.11866
0.11738
0.11451
0.14066
0.12918
0.12312
0.088681
0.067952
0.11005
0.066995
0.02171
0.0057648
0.030959
0.037018
-0.0031647
-0.055785
-0.075557
-0.049088
-0.023575
-0.041434
-0.051958
-0.065352
-0.081935
-0.12626
-0.094373
-0.072368
-0.11159
-0.08927
-0.089589
-0.11446
-0.13647
-0.15305
-0.11223
-0.067585
-0.0063538
0.013738
-0.022937
-0.015602
0.011505
0.0057648
0.0067215
0.0051269
0.041483
0.053282
0.073374
0.041483
0.017246
0.029364
0.016289
-0.002208
0.018202
2.4388e-05
0.015651
0.023305
0.015332
-0.023256
-0.04558
-0.037607
0.0070404
0.021391
0.033191
0.0089539
0.041483
0.029683
0.021391
0.019159
-0.0085862
-0.0044404
0.0079971
0.043715
0.025218
0.035742
0.039888
0.011824
0.014056
-0.00029452
-0.036331
-0.0028458
0.0131
0.0070404
-0.0041214
-0.023256
-0.022299
-0.058017
-0.047812
-0.046855
-0.052277
-0.040158
-0.058336
-0.066628
-0.072368
-0.089908
-0.093735
-0.10968
-0.057379
-0.022618
-0.02804
-0.01911
-0.020067
0.017246
0.019478
0.0022568
0.018521
-0.034418
-0.013051
0.034786
0.016608
0.016927
-0.0018891
-0.025807
-0.03378
-0.019429
-0.041115
-0.037607
0.0044891
0.017883
0.038612
0.032553
0.030321
0.069228
0.073055
0.070185
0.046266
0.055834
0.061255
0.030002
0.059023
0.043077
0.03064
-0.0079484
-0.019429
-0.023256
-0.03665
-0.073325
-0.084806
-0.057379
-0.034099
-0.053871
-0.03952
-0.044304
-0.051001
-0.014645
-0.01624
-0.040477
-0.022618
-0.0012513
0.01597
0.020754
0.0095917
0.029045
0.046266
0.052007
0.029364
0.026813
0.022348
0.026494
0.044991
-0.0015702
0.023624
0.047223
0.037337
-0.0066727
-0.015921
-0.0095429
0.012462
-0.0018891
-0.005716
-0.041115
-0.038245
-0.030272
-0.031229
-0.011137
0.020116
0.017246
0.024899
0.0016189
-0.0089051
0.023624
0.039888
0.10622
0.11738
0.062531
0.051369
0.084217
0.066039
0.041164
-0.0079484
0.037337
0.051688
0.0032135
-0.0012513
-0.059293
-0.084168
-0.082892
-0.065671
-0.085443
-0.12116
-0.13934
-0.13647
-0.11638
-0.12882
-0.11383
-0.10713
-0.084487
-0.081935
-0.049407
-0.06025
-0.066309
-0.055147
-0.050682
-0.078427
-0.065352
-0.036012
-0.027402
0.0070404
0.0013
-0.012094
0.0057648
0.038294
0.0060837
0.0076782
0.0076782
0.016289
0.014694
0.042758
0.068909
0.040845
0.024899
0.092189
0.12536
0.11164
0.079752
0.078157
0.11451
0.10144
0.1126
0.058385
0.067314
0.072417
0.10654
0.091233
0.059342
0.080709
0.031915
0.020116
-0.016559
-0.030591
-0.05132
-0.065033
-0.047174
-0.08353
-0.074282
-0.035375
-0.056104
-0.094692
-0.089908
-0.083849
-0.091503
-0.10107
-0.11415
-0.076195
-0.072368
-0.064395
-0.058655
-0.051958
-0.037926
-0.043028
-0.038564
-0.034418
-0.049088
-0.012732
-0.013689
-0.0050782
0.011186
-0.0089051
-0.040477
-0.033461
-0.057698
-0.033142
-0.021343
-0.03665
0.011824
0.0073593
-0.053871
-0.057379
-0.023575
-0.045261
-0.03952
-0.06025
-0.009224
0.012781
0.015651
0.035104
0.011186
0.0019378
-0.019748
0.067314
0.052326
0.032234
0.058066
0.084536
0.087406
0.081028
0.037337
0.022029
0.043396
0.025218
0.0131
0.039888
0.055196
0.028407
0.0051269
-0.00061343
0.010867
0.014056
0.0022568
-0.0069916
-0.0041214
0.011505
0.025856
0.017564
-0.0025269
0.01597
0.037018
0.0067215
0.0057648
0.0019378
0.0064026
-0.0079484
0.0067215
0.020116
0.015013
0.0067215
-0.015283
-0.020386
-0.015921
-0.0105
-0.015602
-0.01624
-0.026126
-0.075238
-0.077471
-0.066947
-0.079703
-0.072687
-0.073963
-0.069817
-0.091503
-0.064077
-0.075876
-0.068222
-0.050044
-0.036331
-0.043666
-0.046855
-0.016878
-0.014327
-0.022299
0.0076782
0.023943
0.011186
0.029683
0.012781
0.0022568
0.0064026
0.0051269
0.020435
0.016289
0.042758
0.013738
-0.0089051
-0.052596
0.015332
0.040526
0.025856
0.043396
0.022029
-0.033142
-0.010819
0.0003433
-0.0066727
0.014694
0.076882
0.10176
0.024899
0.034148
0.02777
0.05105
0.030002
0.044353
0.052007
0.054239
0.070822
0.0095917
0.049774
0.059979
0.049137
0.0054459
0.021391
0.028088
0.008316
0.00066221
-0.0095429
-0.030272
-0.0079484
-0.056104
-0.062801
-0.041753
-0.065033
-0.08066
-0.096924
-0.083849
-0.083849
-0.060887
-0.067266
-0.064077
-0.055147
-0.057379
-0.040477
-0.036331
-0.028359
-0.038245
-0.052915
0.0060837
0.02458
-0.005716
-0.01911
-0.023894
-0.020386
-0.012094
-0.034418
-0.02804
-0.01337
-0.028678
-0.022618
0.0051269
-0.018472
-0.021024
0.0041702
0.016289
0.034786
-0.0073105
0.00098112
-0.049088
-0.0050782
0.0089539
0.035423
-0.00093234
0.0079971
0.0041702
-0.005716
0.0019378
0.01884
0.01023
2.4388e-05
0.0054459
0.014375
0.037337
0.052645
0.056153
0.025218
0.040207
0.081346
0.10654
0.099843
0.072417
0.059979
0.11292
0.11515
0.085811
0.064763
0.057109
0.070822
0.094422
0.089957
0.031596
0.0003433
-0.0082673
-0.021024
0.00066221
-0.010181
-0.016559
-0.025807
-0.058017
-0.10107
-0.071093
-0.079065
-0.038564
-0.085125
-0.087038
-0.048131
-0.057379
-0.067266
-0.097881
-0.078109
-0.064714
-0.080341
-0.074282
-0.10139
-0.14157
-0.092778
-0.049726
-0.030591
-0.040158
-0.03952
-0.065033
-0.027721
-0.040477
-0.031867
2.4388e-05
0.013419
0.035104
0.084217
0.070185
0.052963
0.032553
0.073693
0.08613
0.07752
0.082941
0.059661
0.021391
0.038612
0.043715
0.022348
0.042758
0.021391
-0.0085862
-0.00029452
0.015332
0.010548
-0.01624
-0.0098618
-0.015921
-0.013051
0.0044891
0.015013
-0.011137
0.0064026
0.032872
0.017883
-0.0063538
0.014056
-0.0060349
-0.018153
0.0095917
-0.0053971
-0.029634
-0.032504
-0.032504
-0.050682
-0.028359
0.0079971
-0.084168
-0.10075
-0.10936
-0.08066
-0.073963
-0.067266
-0.066309
-0.072049
-0.058336
-0.060887
-0.053552
-0.049088
-0.034418
-0.016878
-0.041115
-0.013689
-0.021343
-0.035056
-0.044942
0.0022568
0.01884
0.0051269
-0.0028458
0.014056
0.0070404
0.0067215
0.0060837
0.046266
0.064763
0.069228
0.099524
0.13747
0.11037
0.08039
0.075287
0.059023
0.11101
0.11515
0.089957
0.061255
0.066995
0.034467
0.048818
0.039888
0.06285
0.028088
0.035423
0.014375
0.018202
0.030002
-0.0038025
-0.019748
-0.038883
-0.0105
0.042121
0.0060837
-0.011456
-0.038245
-0.038883
-0.029953
-0.030272
-0.057379
-0.03378
-0.047812
-0.046536
-0.016559
-0.0018891
-0.011456
-0.069817
-0.053234
-0.037607
-0.023256
-0.038245
-0.082892
-0.11032
-0.061844
-0.078746
-0.082892
-0.082892
-0.064077
-0.062163
-0.094373
-0.073006
-0.077152
-0.076833
-0.074601
-0.064395
-0.058974
-0.036012
-0.024213
-0.047812
-0.037607
-0.00061343
0.026494
0.03064
0.051688
0.076882
0.093146
0.098568
0.13333
0.12185
0.11356
0.12791
0.14417
0.15916
0.093784
0.084536
0.067952
0.050731
0.04531
0.06859
0.0076782
-0.044304
-0.021661
-0.0105
-0.018153
-0.00093234
-0.021343
-0.04845
-0.045261
-0.026126
-0.063439
-0.011137
-0.024851
-0.00029452
-0.005716
-0.014645
-0.049407
-0.071411
-0.043985
-0.021343
-0.025488
-0.0063538
-0.022937
0.0044891
-0.014645
0.0025757
-0.0089051
-0.024851
-0.032823
-0.033461
-0.0098618
-0.0060349
-0.041753
-0.059931
-0.032504
0.02171
0.017883
-0.05132
-0.052596
-0.060569
-0.041434
-0.029315
-0.012094
-0.029634
-0.023894
0.023624
-0.01911
-0.021661
0.0057648
0.004808
-0.010819
0.0041702
0.033829
0.041483
0.058385
0.056153
0.028726
0.028088
0.032872
0.0044891
0.0073593
0.059023
0.025218
0.034467
-0.022937
-0.0034836
-0.029315
-0.015602
-0.012094
-0.030591
-0.038883
-0.021343
-0.024851
-0.01911
-0.033142
-0.035375
-0.030272
-0.027721
0.017564
-0.041753
-0.022937
0.010867
0.023943
-0.0073105
0.00066221
0.004808
0.0099106
0.0044891
0.020435
0.012143
-0.013051
0.010548
0.0060837
-0.023575
-0.066947
-0.060569
-0.073963
-0.050363
-0.026764
0.022348
0.054877
0.004808
-0.023575
0.01023
0.040207
0.057109
0.016289
0.035104
0.082941
0.1295
0.07433
0.031278
0.037018
0.017883
0.017246
-0.017516
-0.0028458
-0.026126
-0.029315
-0.039202
-0.055147
-0.071093
-0.089908
-0.092141
-0.065671
-0.032504
-0.036331
-0.092141
-0.10107
-0.10075
-0.070774
-0.078746
-0.052277
-0.05419
-0.04271
-0.014327
-0.041753
-0.027402
0.014375
0.010548
-0.03091
-0.0015702
0.0095917
-0.038883
-0.024213
-0.011137
-0.00029452
0.018202
0.011824
-0.0069916
-0.023575
-0.044304
-0.031548
-0.012413
0.027451
0.035104
0.049774
0.041164
0.052007
0.087406
0.099205
0.10399
0.11834
0.12759
0.13588
0.13779
0.09187
0.10399
0.15374
0.16522
0.11643
0.1008
0.052645
0.034148
0.015013
0.016608
-0.0038025
-0.036012
-0.034418
-0.070136
-0.10585
-0.096605
-0.095968
-0.097881
-0.12084
-0.12371
-0.13743
-0.15082
-0.12435
-0.11925
-0.11797
-0.098838
-0.093416
-0.070774
-0.06599
-0.070455
-0.08066
-0.036331
-0.041753
-0.03665
-0.023256
-0.034737
-0.022937
-0.012413
-0.0053971
0.015013
-0.053234
-0.078109
-0.03952
-0.024851
-0.014008
-0.02198
-0.041115
-0.045899
-0.0069916
0.038612
0.050412
0.01597
0.041483
0.087087
0.090595
0.17447
0.14672
0.10431
0.10016
0.11547
0.13556
0.10782
0.069547
0.057109
0.087087
0.072417
0.048818
0.023624
-0.0089051
-0.041753
-0.042391
-0.028359
-0.011775
-0.012413
-0.0050782
-0.026764
-0.030272
0.0089539
0.0089539
-0.012413
-0.014008
0.0022568
-0.020067
-0.042072
-0.07173
-0.017516
0.010867
-0.02198
-0.055466
-0.046218
-0.067266
-0.066628
-0.045899
-0.050044
-0.062163
-0.072687
-0.056742
-0.059293
-0.042072
-0.023894
-0.018472
-0.012413
0.0025757
-0.02517
-0.051639
-0.012094
0.035104
0.017564
-0.00093234
0.0038513
-0.0041214
0.004808
0.0032135
-0.0082673
-0.01911
-0.0044404
2.4388e-05
0.0032135
-0.034099
-0.033142
-0.023894
-0.015602
0.066039
0.039569
0.060936
0.059342
0.022667
0.058066
0.088362
0.06572
0.069547
0.091233
0.10813
0.11324
0.053282
0.049137
0.076244
0.029045
0.004808
0.023305
-0.0095429
-0.032823
-0.029634
-0.066628
-0.052277
-0.047174
-0.089589
-0.06886
-0.043028
-0.071093
-0.059931
-0.022937
-0.026126
-0.0076295
0.034467
0.035104
0.019797
0.013738
0.0131
0.012462
0.049774
0.03638
0.026175
0.024262
0.035742
0.017883
-0.0085862
-0.045899
-0.042072
-0.017835
-0.04271
-0.052915
-0.035694
-0.01624
-0.023894
-0.039202
-0.03091
-0.017197
-0.012094
-0.0031647
-0.044942
-0.055466
-0.032823
-0.031867
-0.055785
-0.038564
-0.069498
-0.044942
-0.031229
-0.002208
-0.043028
-0.053871
-0.04845
-0.040477
-0.0085862
-0.015283
-0.014645
-0.0098618
0.048499
0.048499
0.045947
0.038612
0.01884
0.027451
0.029364
0.0095917
0.03351
0.02171
0.014694
-0.0025269
0.0025757
0.008635
-0.033461
-0.054828
-0.031867
-0.030591
-0.037288
-0.050044
-0.036969
-0.042391
-0.037607
-0.017835
-0.014008
0.019797
0.008635
-0.0069916
-0.012094
0.030002
0.032872
0.06859
0.07146
0.037656
0.072417
0.069547
0.049774
0.026494
0.034467
0.05679
0.0131
0.01884
0.028407
0.030321
0.019159
0.0032135
-0.01624
-0.011137
-0.002208
-0.017516
-0.032504
-0.047174
-0.033142
0.0013
0.017564
0.014375
0.0038513
-0.0028458
0.0044891
-0.0105
-0.014964
0.0028946
-0.0044404
0.0013
-0.02804
-0.035375
-0.020067
0.01023
0.041802
0.022029
-0.0044404
-0.0085862
0.012143
0.059342
0.049455
0.042439
0.035423
0.014694
0.049774
0.078476
0.061255
0.022986
0.0076782
0.0099106
0.022029
0.0032135
-0.036012
-0.030591
-0.03952
-0.054509
-0.06886
-0.025807
-0.048769
-0.04845
-0.012732
-0.059612
-0.085762
-0.092778
-0.11478
-0.11415
-0.066628
-0.059293
-0.049726
-0.080022
-0.093097
-0.069817
-0.085762
-0.075876
-0.043985
-0.038564
-0.028359
-0.022299
-0.021343
-0.017197
0.0057648
0.0079971
-0.044623
-0.014327
0.025218
0.030321
0.031278
0.0032135
0.038612
0.031278
0.032872
0.032872
0.025856
0.05679
0.092508
0.072098
0.058704
0.085811
0.082941
0.078157
0.06859
0.076244
0.048499
0.067314
0.078476
0.029364
0.031596
0.035423
-0.0050782
-0.009224
-0.021024
-0.002208
0.0044891
-0.0095429
0.029683
-0.0034836
-0.012413
-0.028678
-0.023256
-0.016878
-0.021661
-0.0028458
0.0070404
0.018521
0.011824
-0.01337
-0.022299
-0.085443
-0.070774
-0.04558
-0.077471
-0.088952
-0.087038
-0.10585
-0.076514
-0.070136
-0.073006
-0.097881
-0.072368
-0.045261
-0.030591
-0.045899
-0.05132
-0.028359
-0.0069916
-0.0060349
0.029683
0.08039
0.072417
0.053282
0.050731
0.07752
0.060617
0.067314
0.085811
0.066677
0.070185
0.081984
0.044034
0.020435
0.022348
0.025218
-0.0073105
-0.0053971
-0.018472
-0.032504
-0.034099
-0.033461
0.0099106
-0.022618
-0.013051
0.018202
0.072098
0.10686
0.10782
0.047223
0.028726
0.091233
0.11132
0.094741
0.094422
0.040845
-0.04558
0.040207
0.044353
-0.002208
-0.046855
-0.090227
-0.0982
-0.099794
-0.10075
-0.1218
-0.0982
-0.058655
-0.08066
-0.12499
-0.10553
-0.092778
-0.079065
-0.054828
-0.080341
-0.096286
-0.091503
-0.054828
-0.056423
-0.073325
-0.046218
-0.036012
-0.067903
-0.093735
-0.058017
-0.038245
0.0003433
0.0099106
-0.005716
-0.029953
-0.012094
-0.020705
-0.02198
0.031915
0.031278
0.031278
0.030959
0.034786
0.053601
0.029364
-0.005716
-0.0066727
0.010867
0.011824
-0.0073105
0.004808
0.0038513
0.050093
0.049774
0.0070404
-0.00061343
-0.0085862
-0.018153
0.0070404
0.046266
0.043077
0.040845
0.054877
0.037656
0.03351
0.070185
0.090595
0.099843
0.086768
0.069866
0.093784
0.096973
0.10144
0.10208
0.10526
0.11898
0.11706
0.11164
0.090595
0.052007
0.050093
0.054558
0.03638
0.034786
-0.024213
-0.062801
-0.061844
-0.048769
-0.06312
-0.065352
-0.079703
-0.091503
-0.073644
-0.10585
-0.11287
-0.094054
-0.073006
-0.085762
-0.084487
-0.086719
-0.077471
-0.088314
-0.049407
-0.038245
-0.056423
-0.044942
-0.051639
-0.050682
-0.051639
-0.070455
-0.044623
-0.038245
-0.038245
-0.023256
-0.031867
-0.056423
-0.023256
-0.022618
-0.01337
0.018521
0.0044891
0.00098112
0.03351
0.044672
0.052645
0.05679
0.082941
0.073055
0.066677
0.11196
0.086449
0.055196
0.053282
0.078476
0.030002
0.055515
0.039569
0.02171
-0.014008
-0.034418
-0.046855
-0.0098618
-0.023575
-0.021024
-0.0085862
-0.052277
-0.021343
-0.013051
-0.014645
0.026494
0.016608
-0.012732
0.0054459
0.034148
0.024262
0.015332
0.0038513
0.031596
-0.015602
0.0044891
-0.023894
-0.040158
-0.03665
-0.018791
-0.032823
-0.070136
-0.080979
-0.074282
-0.050363
-0.053234
-0.03952
-0.028996
0.023624
0.032872
0.028407
0.026175
0.034467
0.014375
0.034467
0.091552
0.10718
0.10112
0.078795
0.052645
0.040845
0.072098
0.023943
-0.0089051
-0.027083
-0.017197
0.017564
0.017246
-0.02517
-0.046218
-0.043028
-0.059293
-0.049088
-0.035694
-0.036331
-0.018153
-0.028996
-0.04558
-0.03378
-0.030591
-0.0095429
-0.0028458
-0.028678
-0.01337
-0.021343
0.0070404
-0.0018891
-0.026126
-0.061525
-0.058017
-0.045261
-0.02804
-0.03665
-0.012732
0.0025757
-0.013689
-0.036969
-0.024851
0.0003433
-0.01911
0.022667
0.050412
0.076882
0.060617
0.035423
0.037656
0.044672
0.031278
0.037018
0.047223
0.073693
0.10877
0.019159
0.0016189
-0.02517
-0.0105
0.027132
0.008635
0.0057648
0.0099106
0.011505
0.0131
-0.011775
-0.022937
-0.020705
-0.027402
-0.029315
-0.03665
-0.058017
-0.066309
-0.041115
-0.046218
-0.059612
-0.10011
-0.083211
-0.033142
-0.095649
-0.057379
-0.076514
-0.067266
-0.070774
-0.048131
-0.023575
-0.021024
-0.028996
-0.017516
0.01023
0.012143
0.023943
0.004808
0.022029
0.03351
0.071141
0.069547
0.054239
0.044034
0.058066
0.088681
0.073374
0.074012
0.011505
0.044353
0.031278
0.039569
0.037018
0.060617
0.081028
0.064125
0.069547
0.067314
0.037018
0.017883
0.063487
0.087087
0.07433
0.044991
0.042439
0.048818
0.025856
-0.0025269
-0.0031647
0.020116
0.0076782
-0.015921
-0.026764
-0.016559
-0.0041214
-0.0073105
-0.032504
-0.038564
-0.015921
-0.036969
-0.032823
-0.054828
-0.054509
-0.037288
-0.030272
-0.054828
-0.093097
-0.085125
-0.069817
-0.067903
-0.064395
-0.086719
-0.073006
-0.049088
-0.066309
-0.036969
-0.044942
-0.05132
-0.044304
-0.013051
-0.055466
-0.080979
-0.078427
-0.05132
-0.061844
-0.062801
-0.056742
-0.048131
-0.024213
-0.058336
-0.074919
-0.043028
-0.051958
-0.046218
-0.024213
-0.040796
-0.024213
-0.0089051
0.015332
0.008635
0.004808
0.047861
0.018202
0.054239
0.083579
0.067633
0.10016
0.10399
0.10303
0.12631
0.15087
0.13907
0.13365
0.12408
0.10431
0.12153
0.09506
0.059661
0.055196
0.047223
0.05105
0.023624
0.010867
0.022348
-0.012094
-0.013689
-0.0031647
-0.011775
-0.043028
-0.002208
0.0051269
-0.017835
0.0019378
-0.035694
-0.049088
-0.039202
-0.032504
-0.049088
-0.061206
-0.081617
-0.077471
-0.056423
-0.070774
-0.07779
-0.093097
-0.10266
-0.085125
-0.068541
-0.072368
-0.070455
-0.073963
-0.064077
-0.05132
-0.027721
-0.024851
-0.012732
-0.057061
-0.051958
-0.016559
0.013738
0.046585
0.02171
-0.002208
0.025218
0.047861
0.036699
0.063487
0.069547
0.078476
0.10016
0.080071
0.052963
0.058385
0.063806
0.074968
0.076563
0.061255
0.060617
0.032234
0.037018
0.031596
0.026813
0.039569
0.016927
0.055515
0.027451
0.054239
0.073693
0.032553
-0.0079484
-0.0034836
0.0041702
-0.0018891
0.050412
0.028088
-0.033142
-0.014645
-0.041753
-0.028359
-0.059612
-0.073006
-0.061206
-0.047812
-0.043985
-0.05132
-0.073644
-0.092778
-0.045899
-0.060887
-0.06025
-0.040158
-0.030591
-0.066628
-0.062163
-0.04558
-0.027721
-0.022299
-0.032186
-0.08066
-0.053552
-0.024851
-0.031867
-0.025807
-0.065033
-0.051001
-0.072368
-0.064395
-0.035375
-0.020067
-0.018791
-0.038245
-0.02517
-0.01911
0.011824
-0.0018891
-0.009224
0.022667
0.059342
0.080071
0.043396
0.05679
0.086449
0.089638
0.06572
0.029683
0.062212
0.098886
0.089319
0.13173
0.044672
0.023943
0.079752
0.069547
0.051369
0.072417
0.05679
0.017246
0.031278
0.0070404
-0.036969
-0.020705
-0.032186
-0.038245
-0.043347
-0.046218
-0.073325
-0.076514
-0.069498
-0.075876
-0.054828
-0.035694
-0.066947
-0.049088
-0.069498
-0.073325
-0.043985
-0.032186
0.0032135
-0.002208
-0.019748
-0.036969
-0.038564
-0.031229
-0.027721
-0.035056
-0.0069916
-0.018153
-0.012413
-0.021343
-0.034418
0.0016189
-0.055147
-0.060569
-0.017516
-0.024851
-0.041434
-0.040477
-0.019429
-0.021343
-0.037607
-0.035056
-0.039839
-0.021343
-0.011456
-0.010819
-0.015921
-0.035375
-0.017516
0.008635
0.022029
0.0064026
-0.026126
-0.058974
-0.033461
0.014694
0.034467
0.0131
0.042758
0.042121
0.038294
0.038931
0.043077
0.069547
0.066677
0.048818
0.059342
0.053282
0.039569
0.045947
0.067952
0.057109
0.081346
0.035423
0.0044891
0.015651
0.023305
0.027132
0.052326
0.049455
0.042121
0.059979
0.064125
0.068271
0.098568
0.067314
0.037656
0.071141
0.062531
0.049137
0.053282
0.06285
0.028726
0.031596
0.0064026
0.008316
0.0076782
-0.036331
-0.055785
-0.067585
-0.053871
-0.066947
-0.084806
-0.11223
-0.11351
-0.11032
-0.11064
-0.14731
-0.1572
-0.15241
-0.14508
-0.13328
-0.1218
-0.10075
-0.12595
-0.10745
-0.10872
-0.087038
-0.070455
-0.043347
0.0032135
0.028407
0.029683
0.047861
0.046585
0.060617
0.093146
0.086768
0.12886
0.12823
0.073374
0.052645
0.077201
0.10495
0.06285
0.06859
0.059342
0.079752
0.052963
-0.0085862
-0.01337
0.017883
0.048818
0.01597
0.0060837
0.0054459
-0.011775
-0.019429
-0.034418
-0.061844
-0.052277
-0.042072
-0.074282
-0.068541
-0.054509
-0.053871
-0.042391
-0.054509
-0.077152
-0.080022
-0.049088
-0.025488
-0.023575
0.012462
-0.031867
-0.0095429
0.039569
-0.058017
-0.037607
-0.037607
-0.036331
-0.042072
-0.010181
-0.014964
-0.014964
-0.062482
-0.053871
-0.048769
-0.012732
0.01597
-0.0025269
-0.002208
0.0057648
0.00066221
0.021391
0.041483
0.048499
0.049774
0.037018
0.046266
0.071779
0.078795
0.05105
0.023943
0.039569
0.03638
0.028726
0.0092728
0.029683
0.041483
0.052326
0.037975
-0.0028458
-0.019748
0.0070404
0.0038513
2.4388e-05
0.027132
0.024899
0.0131
0.023943
0.0060837
-0.0012513
0.019159
0.015651
-0.0018891
-0.0015702
-0.0063538
-0.0095429
-0.024851
-0.041753
0.0044891
0.026175
-0.01337
-0.047812
-0.046855
-0.029634
-0.016559
0.0038513
-0.026445
-0.030591
-0.053234
-0.039202
-0.048769
-0.027083
-0.010819
-0.020705
-0.026445
-0.034737
-0.015283
-0.005716
-0.0073105
-0.015283
-0.032186
0.015013
0.057747
0.020116
-0.0082673
-0.036012
-0.022618
0.037018
0.059342
0.026494
0.01023
0.016927
0.041164
0.044353
-0.0041214
-0.026445
0.010548
0.040207
0.064125
0.035742
0.022667
0.02458
0.025537
-0.0076295
-0.035694
-0.024851
-0.031867
-0.048769
-0.018791
-0.0089051
2.4388e-05
-0.012094
-0.046536
-0.050682
-0.016559
0.0019378
-0.027083
-0.013689
0.00098112
0.014694
0.017246
0.010548
0.0019378
-0.033142
-0.0066727
-0.021661
-0.035694
-0.014964
-0.0050782
-0.044623
-0.058017
-0.0098618
-0.022299
-0.039839
-0.058655
-0.053871
-0.041753
-0.024851
-0.042391
-0.052915
-0.040158
-0.024851
-0.021024
-0.017197
-0.020705
-0.014964
-0.0079484
-0.017197
0.010548
0.029364
0.040845
0.027451
0.014694
0.023943
0.038294
0.035423
0.0044891
-0.012094
0.019478
0.019159
0.0016189
-0.0015702
0.0016189
0.014694
0.012781
0.0070404
0.01023
0.016608
0.026175
0.017564
0.03638
0.060936
0.072098
0.071779
0.051688
0.029364
0.039888
0.03925
0.031596
-0.0060349
0.013738
0.040845
0.080071
0.0076782
-0.040158
-0.04558
-0.0085862
-0.011456
-0.0028458
-0.0018891
-0.037288
-0.012413
-0.0044404
-0.017835
-0.036331
-0.02804
-0.069179
-0.090546
-0.070136
-0.053552
-0.038564
-0.055147
-0.073963
-0.039202
-0.056742
-0.076514
-0.068222
-0.063758
-0.08353
-0.068222
-0.073644
-0.073006
-0.054509
-0.014964
-0.0085862
0.008316
-0.011456
-0.012094
-0.0079484
-0.0082673
0.024899
0.041483
0.049455
0.036699
0.064763
0.079114
0.084854
0.086449
0.085492
0.085173
0.10335
0.10303
0.096973
0.083579
0.040526
0.035104
0.028088
0.032553
0.052007
0.053601
0.057109
0.045947
0.01884
0.008635
-0.012732
-0.02804
0.028088
0.017883
0.020754
0.0051269
0.022986
-0.023894
0.014375
0.015651
0.053282
0.031915
0.0095917
-0.005716
0.008316
0.0038513
-0.023894
-0.0073105
0.041164
0.052963
-0.0105
-0.044623
-0.024213
-0.014964
-0.04558
-0.009224
-0.0089051
-0.033461
-0.095968
-0.11351
-0.10458
-0.1033
-0.084806
-0.076514
-0.074919
-0.091503
-0.13934
-0.12722
-0.10681
-0.10266
-0.085762
-0.09246
-0.069817
-0.060887
-0.045899
-0.044623
-0.063758
-0.047174
0.0089539
0.0099106
0.0028946
0.015332
0.061255
0.065082
0.10208
0.083579
0.081984
0.083898
0.14066
0.11515
0.10558
0.1177
0.099524
0.088362
0.081346
0.078157
0.11579
0.081665
0.038294
0.01023
-0.0015702
0.022029
-0.015602
-0.011137
-0.0012513
0.038931
-0.0053971
-0.040477
-0.042072
-0.024851
-0.022937
-0.036969
-0.064714
-0.059612
-0.040477
-0.0079484
0.0073593
0.020116
0.028726
-0.028678
-0.018791
-0.025807
-0.031867
-0.030591
-0.03952
-0.026126
-0.041434
0.01884
-0.016559
-0.047174
-0.091184
-0.13487
-0.085762
-0.080341
-0.057061
-0.049407
-0.060569
-0.073325
-0.06599
-0.055466
-0.040158
-0.033461
-0.058336
-0.085443
-0.066628
-0.047174
-0.042391
-0.028678
-0.040158
-0.056423
-0.010819
0.0051269
0.0044891
0.031915
0.037337
0.034786
0.055196
0.078476
0.097292
0.067314
0.067952
0.088044
0.093784
0.10782
0.086449
0.094422
0.052326
0.073374
0.079433
0.090276
0.06859
0.073055
0.051369
0.036061
0.046904
0.078476
0.038612
0.054239
0.03638
0.048818
0.057747
0.024899
0.0070404
-0.023575
-0.009224
-0.010819
-0.012732
-0.021661
-0.044942
-0.073325
-0.096605
-0.08066
-0.10968
-0.11478
-0.11383
-0.075876
-0.087676
-0.12626
-0.12116
-0.1285
-0.12818
-0.099157
-0.068222
-0.067903
-0.081298
-0.07779
-0.04271
-0.046218
-0.045899
-0.041753
-0.030591
-0.023894
-0.038245
-0.018472
0.026813
0.020116
0.0016189
0.055196
0.078157
0.058704
0.04531
0.085811
0.058385
0.1059
0.093465
0.080071
0.11037
0.10718
0.11451
0.11579
0.090276
0.086768
0.091552
0.044034
0.040207
0.03638
0.01597
0.020754
0.025856
-0.009224
-0.035056
-0.063758
-0.069179
-0.079703
-0.06886
-0.061525
-0.058017
-0.041434
-0.043028
-0.032823
-0.012732
0.044353
0.012781
0.0032135
0.016927
0.0089539
0.01884
0.043077
0.0131
0.012143
-0.0095429
-0.0095429
-0.026764
-0.07779
-0.090227
-0.094054
-0.086081
-0.074919
-0.045899
-0.02804
-0.11702
-0.11861
-0.10107
-0.073963
-0.071411
-0.052277
-0.058336
-0.027721
-0.02517
-0.0082673
-0.0098618
-0.027721
-0.016878
0.0022568
-0.0044404
-0.0038025
0.043715
0.026175
0.032553
0.023305
0.011824
0.014694
0.024262
0.060617
0.076882
0.075925
0.030959
0.033829
0.055196
0.082941
0.10208
0.078476
0.073055
0.088362
0.084217
0.080071
0.056153
0.047223
0.034148
0.012143
0.016289
0.015651
-0.0069916
0.0079971
0.026813
0.004808
0.011824
0.042758
0.067314
0.052326
0.055196
0.067314
0.068271
0.048818
0.047223
0.037975
0.020754
0.042121
0.026494
0.015332
-0.0038025
-0.051001
-0.058974
-0.053234
-0.075876
-0.11159
-0.13774
-0.12403
-0.12722
-0.10394
-0.10203
-0.11159
-0.13679
-0.14285
-0.12658
-0.078427
-0.062482
-0.072049
-0.074282
-0.078427
-0.058655
-0.066947
-0.053552
-0.03665
-0.027721
-0.039202
-0.005716
-0.0082673
0.0073593
-0.040158
-0.052596
0.0013
0.044991
0.047542
0.042439
0.024262
0.019159
0.073055
0.072417
0.062212
0.10239
0.12057
0.13237
0.07433
0.06859
0.068271
0.053601
0.059342
0.081028
0.097611
0.048818
0.049774
0.073374
0.068271
0.067314
0.069547
0.063487
0.072098
0.11643
0.10622
0.078476
0.076882
0.070822
0.041483
0.037337
0.070822
0.037656
-0.0053971
0.0035324
-0.009224
-0.011775
-0.048131
-0.084487
-0.098519
-0.11319
-0.10522
-0.11638
-0.088314
-0.10553
-0.12977
-0.12945
-0.11478
-0.087676
-0.0864
-0.10458
-0.098838
-0.085762
-0.066947
-0.047812
-0.044304
-0.037926
-0.057379
-0.023894
-0.029634
-0.036012
-0.041115
-0.025807
0.008635
-0.017835
-0.073644
-0.044623
-0.046855
-0.035694
0.0070404
-0.022299
-0.049407
-0.031867
-0.034737
-0.033142
-0.019429
-0.01624
-0.023894
-0.051001
-0.026126
0.022348
0.014375
-0.00061343
0.0025757
0.0070404
0.014375
0.037656
0.055834
0.08613
0.048499
0.072736
0.08039
0.067952
0.07433
0.13269
0.11292
0.13429
0.1126
0.13747
0.085811
0.034148
0.059661
0.046266
0.10144
0.15374
0.092508
0.034786
0.051369
0.066358
0.068271
0.047542
0.021391
0.029364
0.041483
0.0073593
0.0054459
-0.020067
-0.051001
-0.023575
-0.034737
-0.046536
0.00066221
-0.06599
-0.12148
-0.11319
-0.082892
-0.092778
-0.090865
-0.087676
-0.096605
-0.079703
-0.089589
-0.099157
-0.11638
-0.11702
-0.10681
-0.082254
-0.072049
-0.095649
-0.097243
-0.076195
-0.047812
-0.058017
-0.077152
-0.075557
-0.050044
-0.048769
-0.041434
0.019478
0.00098112
-0.02198
-0.011137
-0.017516
0.0079971
0.014694
-0.014964
-0.0012513
0.0038513
0.026494
0.032553
0.069866
0.065082
0.040526
0.027132
0.031278
0.034148
0.066677
0.044991
0.048818
0.031915
0.065401
0.081346
0.057109
0.038612
0.049137
0.038931
0.053282
0.06285
0.074012
0.051369
0.082303
0.10367
0.082303
0.081028
0.066358
0.067314
0.06859
0.08326
0.030321
-0.0031647
0.00098112
0.0051269
-0.035056
-0.065352
-0.078109
-0.10522
-0.13169
-0.1167
-0.087038
-0.087038
-0.11478
-0.10968
-0.10872
-0.081935
-0.037926
-0.011137
-0.028996
-0.037607
0.016289
0.036061
0.025856
0.022986
-0.0079484
0.028088
0.041802
0.048818
0.035742
-0.0105
-0.012413
-0.014964
-0.036969
-0.013051
0.027451
-0.018791
-0.042391
-0.06599
-0.054509
-0.051001
-0.054828
-0.036969
0.015651
-0.00093234
0.0089539
0.018202
0.0064026
0.036699
0.09187
0.08613
0.09793
0.10654
0.10144
0.048499
0.075925
0.11738
0.10718
0.073374
-0.012413
-0.01911
0.03638
-0.011137
-0.026764
-0.013051
-0.051958
-0.046218
-0.031867
-0.066628
-0.074919
-0.036012
-0.046536
-0.044942
-0.03091
-0.065033
-0.058017
-0.047493
-0.04271
-0.044942
-0.035375
-0.038564
-0.019748
-0.049407
-0.051001
-0.025488
-0.0038025
0.0032135
0.010548
0.022029
0.028726
0.0099106
0.0051269
0.0073593
0.034467
0.021391
0.013738
0.01023
-0.00029452
0.0038513
-0.022299
-0.027721
-0.026126
-0.013689
-0.035694
-0.052915
-0.069498
-0.066947
-0.059931
-0.081617
-0.081298
-0.043347
-0.054509
-0.052277
-0.017516
-0.014645
0.0003433
0.022986
0.078476
0.090595
0.093146
0.066358
0.067314
0.099205
0.13014
0.12057
0.087725
0.10526
0.085492
0.096335
0.071779
0.030959
0.03925
0.014694
0.03638
0.016289
0.0070404
-0.031548
0.0016189
0.026494
-0.015602
-0.03378
-0.021024
-0.043347
-0.0079484
-0.0063538
-0.06025
-0.093735
-0.097562
-0.10107
-0.093735
-0.066947
-0.052915
-0.034099
-0.081935
-0.092778
-0.084806
-0.065352
-0.0105
-0.013051
-0.010181
0.0076782
0.024899
0.027451
0.019797
0.021391
0.0131
0.040845
0.02777
0.015332
-0.0076295
-0.023894
-0.005716
-0.020067
0.00098112
-0.00061343
-0.044942
-0.056104
-0.036331
-0.050044
-0.045899
-0.040158
-0.055466
-0.038883
0.023305
0.033829
-0.023894
0.012781
0.046585
0.084217
0.09187
0.10208
0.10973
0.10526
0.12727
0.13365
0.15916
0.11037
0.09506
0.1311
0.071779
0.06572
0.084854
0.037975
-0.02198
-0.032504
-0.055785
-0.074919
-0.079384
-0.1151
-0.11861
-0.0864
-0.084806
-0.06312
-0.022618
-0.091503
-0.091822
-0.065352
-0.040158
-0.036331
-0.0034836
0.0073593
-0.0050782
-0.015602
-0.0069916
-0.0060349
-0.018153
0.0051269
0.044672
0.041483
0.03638
-0.015602
-0.042072
0.022029
0.05392
0.038612
0.017883
0.0028946
-0.041753
-0.0085862
-0.0098618
-0.01624
-0.018791
-0.051958
-0.053871
-0.03952
-0.033461
-0.053552
-0.027083
-0.029315
-0.044304
-0.0095429
-0.0082673
0.021391
-0.017516
0.01023
0.0032135
-0.014645
-0.063758
-0.06312
-0.085443
-0.051639
-0.060569
-0.081935
-0.06312
-0.056423
-0.076195
-0.11159
-0.11
-0.10139
-0.058336
-0.0069916
0.010867
-0.019748
0.008635
2.4388e-05
2.4388e-05
0.013738
0.048818
0.056471
0.062212
0.090276
0.072098
0.086768
0.13078
0.11101
0.10718
0.08613
0.07433
0.064763
0.11993
0.13301
0.064444
0.035423
0.055196
0.029683
0.037656
0.0076782
0.0022568
-0.0063538
-0.035694
-0.031867
-0.022299
-0.022937
-0.027083
0.0095917
-0.028359
-0.045899
-0.06599
-0.062163
-0.056423
-0.010181
0.0089539
-0.045261
-0.050044
-0.039202
-0.048131
-0.039839
-0.0031647
-0.0095429
0.0022568
0.0038513
0.012781
0.017883
-0.017835
-0.012094
-0.0069916
0.014056
0.0051269
0.014056
-0.018791
-0.0015702
0.020116
-0.032504
-0.048769
-0.012094
-0.079703
-0.078109
-0.059612
-0.065671
-0.072687
-0.064714
-0.081617
-0.086081
-0.074282
-0.10139
-0.079065
-0.062801
-0.064714
-0.027721
-0.025488
-0.013689
-0.0044404
-0.041434
-0.011456
0.022029
0.025218
0.037337
0.039569
0.019478
-0.0012513
0.014056
-0.010181
-0.0073105
0.020116
0.044353
0.096654
0.10016
0.097292
0.050412
0.046266
0.065401
0.10782
0.12121
0.12599
0.13205
0.072098
0.058066
0.025856
0.039888
0.015332
-0.0041214
0.0044891
0.0044891
-0.01624
-0.021024
-0.074601
-0.078427
-0.055147
-0.044623
-0.035375
0.013419
0.01597
-0.055466
-0.0069916
0.012462
0.012143
0.024899
0.03064
0.0076782
0.030002
0.026494
0.045629
0.052326
0.03351
-0.018791
-0.014645
0.00098112
-0.0028458
0.0092728
-0.041434
-0.03665
-0.053552
-0.046218
-0.046218
-0.072368
-0.079065
-0.069498
-0.074601
-0.097562
-0.074282
-0.060569
-0.066947
-0.031548
-0.045899
-0.039202
-0.052915
-0.095649
-0.094692
-0.057698
-0.048131
-0.012094
0.050412
0.025218
2.4388e-05
0.019159
0.013419
0.0032135
0.02777
0.041164
0.040207
0.050093
0.088681
0.073693
0.10112
0.10367
0.065082
0.014375
0.0089539
0.016927
0.037018
0.049137
0.045947
0.035742
-0.0044404
0.0095917
-0.00029452
-0.0063538
0.028407
0.0131
-0.0073105
-0.038245
-0.021024
0.012143
0.016608
0.029683
0.022348
-0.0012513
-0.0053971
0.015651
-0.038883
-0.052915
-0.051001
-0.055466
-0.057698
-0.049407
-0.069817
-0.12435
-0.11989
-0.092778
-0.11574
-0.081935
-0.046855
-0.078746
-0.030591
-0.0038025
-0.023575
-0.009224
0.021391
0.030959
0.020435
-0.0053971
0.047542
0.063487
0.059342
0.052645
0.075287
0.03925
0.004808
-0.036331
-0.044942
-0.019748
0.014375
0.013738
0.046585
0.0099106
0.0067215
0.08326
0.039888
-0.0018891
0.0099106
0.036699
0.067314
0.068271
0.035423
-0.005716
0.024262
0.073374
0.037337
0.040526
0.04818
0.0079971
-0.021024
-0.02804
-0.020386
-0.042072
-0.023575
-0.028996
-0.05419
0.0003433
-0.0079484
-0.042391
-0.051958
-0.056742
-0.046218
-0.04558
-0.058336
-0.01911
-0.02517
-0.053871
-0.039839
-0.051958
-0.052596
-0.052277
-0.038245
-0.063758
-0.041434
-0.036969
-0.031867
-0.029634
-0.043028
0.013419
0.056153
0.065401
0.029045
0.0028946
-0.00093234
-0.0050782
0.04818
0.052645
0.0092728
0.01597
-0.0069916
-0.0069916
-0.010181
-0.02517
-0.013051
-0.023256
-0.0038025
-0.012413
-0.017516
-0.033142
-0.018791
-0.010819
0.014375
0.03638
0.047223
0.055515
0.022348
0.016608
0.020435
0.042121
0.036061
0.020435
0.052963
0.021072
-0.0063538
0.014694
-0.026445
-0.028996
-0.036331
-0.019748
-0.018153
-0.046218
-0.049407
-0.062163
-0.04271
-0.017516
-0.012732
0.0025757
2.4388e-05
-0.041753
-0.03091
0.018521
-0.016878
0.029045
0.019797
0.022029
0.044034
-0.046855
-0.035375
0.01023
0.0044891
0.027451
0.035104
-0.0095429
0.020435
-0.013051
0.035104
0.067314
0.063487
0.069547
0.057747
0.034786
0.037018
0.032872
0.012781
0.0044891
0.0070404
-0.0031647
-0.042072
-0.054509
-0.073325
-0.088314
-0.12052
-0.10904
-0.1202
-0.082573
-0.069179
-0.093097
-0.11064
-0.11032
-0.086719
-0.06599
-0.068222
-0.050044
-0.029953
-0.017197
-0.01624
-0.029634
-0.0098618
0.00066221
0.046585
0.0035324
-0.016559
0.0073593
-0.0044404
-0.00093234
0.004808
0.014694
0.019159
0.040207
0.032872
0.028726
0.017883
-0.0041214
0.017246
0.03064
0.040526
0.055515
0.034148
0.022986
0.018521
0.055196
0.10845
0.089638
0.078795
0.050731
0.099524
0.11388
0.09187
0.11037
0.076563
0.06285
0.055834
0.080071
0.056153
0.042121
0.035104
0.040207
-0.0073105
-0.050044
-0.061525
-0.066947
-0.034418
-0.017197
0.012462
-0.005716
-0.034737
-0.03665
-0.017835
-0.017516
-0.012732
-0.0079484
-0.01624
-0.012413
-0.027402
-0.038883
-0.028678
-0.059293
-0.06886
-0.037607
-0.048131
-0.060569
-0.074919
-0.058017
-0.082573
-0.044623
-0.036331
-0.052277
-0.06025
-0.045261
-0.023894
-0.036012
-0.044623
-0.062482
-0.072368
-0.069817
-0.050044
-0.044623
-0.049407
-0.021024
0.0099106
0.012781
-0.0060349
0.015013
0.0076782
0.031278
0.043077
0.065082
0.094103
0.097292
0.069547
0.048818
0.064763
0.037018
0.064444
0.088044
0.049137
0.025218
0.0060837
-0.0038025
0.015013
0.017246
-0.0031647
-0.0069916
0.012781
-0.02804
-0.050682
-0.0079484
-0.039202
-0.04845
-0.034737
-0.045261
-0.03091
-0.036331
-0.051958
-0.089908
-0.051001
0.022667
0.02777
-0.032186
-0.043347
-0.04845
-0.030591
0.0089539
0.028088
-0.012094
-0.026445
0.016289
-0.0012513
-0.023575
0.0019378
-0.023256
-0.013051
0.015013
0.018202
0.018202
0.00098112
-0.011775
0.021391
0.043715
0.03064
0.022667
0.038294
0.042758
0.064125
0.060298
0.019478
0.022667
0.059661
0.041802
0.057747
0.067633
0.05679
0.023305
-0.032504
-0.034737
-0.031867
-0.022618
-0.016559
-0.0105
-0.014964
-0.017516
-0.021024
-0.039202
-0.049407
-0.063758
-0.049407
-0.0063538
-0.024851
-0.065352
-0.055466
-0.055147
-0.038564
-0.041115
-0.054509
-0.086081
-0.095968
-0.059612
-0.044304
-0.03952
-0.052915
-0.06025
-0.060569
-0.033142
-0.01911
-0.0060349
0.0067215
0.016289
0.035423
0.016289
0.010867
-0.0050782
0.024899
0.034148
0.027132
0.048818
0.033191
0.028088
0.022348
0.029683
0.049137
0.02777
0.012143
0.018202
0.026813
0.057747
0.037975
0.013738
-0.00093234
0.052963
0.081028
0.10112
0.084536
0.057109
0.083579
0.10622
0.094103
0.090276
0.063487
0.087725
0.10144
0.13269
0.063487
-0.0038025
-0.00029452
-0.0079484
0.011824
-0.017835
-0.0098618
-0.023575
-0.072368
-0.10139
-0.080979
-0.094054
-0.12084
-0.083849
-0.096286
-0.13041
-0.088314
-0.096605
-0.12435
-0.15273
-0.15082
-0.13487
-0.10426
-0.10107
-0.070136
-0.086719
-0.095968
-0.058655
-0.043985
-0.05132
-0.043347
-0.013051
-0.017516
-0.029315
0.0076782
0.03925
0.047223
0.056471
0.052963
0.088362
0.077838
0.069866
0.07146
0.075925
0.09793
0.10112
0.068909
0.035423
0.058385
0.025856
-0.0015702
-0.021661
-0.036012
-0.049407
-0.032823
-0.03091
-0.040477
-0.068541
-0.071411
-0.049088
-0.01624
0.017246
0.014056
0.03351
0.029683
0.059979
0.094741
0.06859
0.055196
0.064763
0.071141
0.044991
0.048818
0.083579
0.059023
0.034148
0.021391
0.041164
0.026494
0.037656
0.022029
0.029045
0.047542
0.034148
0.015651
0.03351
0.037018
0.041802
0.013419
0.029045
0.022986
-0.0095429
0.0054459
-0.01337
-0.022299
-0.020386
-0.022618
-0.041434
-0.059293
-0.10171
-0.070774
-0.013051
-0.043028
-0.06025
-0.022299
-0.014327
-0.033461
-0.02517
-0.016559
0.011824
-0.00029452
0.019478
-0.0098618
-0.039202
-0.031548
-0.022618
-0.0095429
0.016608
-0.017835
0.0019378
0.018202
-0.00093234
-0.024851
-0.043347
-0.023894
-0.015921
-0.020705
-0.01911
0.031278
0.062212
-0.0063538
-0.017516
-0.034099
-0.041115
-0.062163
-0.069817
-0.08066
-0.057379
-0.023894
-0.07779
-0.10426
-0.097243
-0.053234
-0.044623
-0.04845
-0.043347
-0.058017
-0.053871
-0.04845
-0.043347
-0.032823
-0.0073105
0.02171
0.027451
0.022348
0.043715
0.04818
0.038294
0.084217
0.10558
0.11993
0.14959
0.10718
0.10399
0.11547
0.13556
0.11419
0.10495
0.10303
0.09793
0.059023
0.038294
2.4388e-05
-0.0073105
0.0022568
-0.0085862
-0.023256
-0.040158
-0.020386
-0.020067
-0.019748
-0.041115
-0.037926
-0.0069916
0.027451
0.01884
-0.028678
0.00098112
0.055834
0.031278
0.025537
0.035423
0.038612
0.050412
0.057109
0.013419
-0.018791
0.017564
0.02458
0.0064026
-0.032186
-0.026126
-0.070455
-0.058655
-0.059612
-0.09246
-0.053234
-0.070774
-0.087357
-0.086719
-0.095011
-0.070136
-0.052915
-0.061844
-0.081298
-0.044304
-0.031229
-0.045899
-0.052277
-0.049088
-0.050363
-0.041434
-0.015921
-0.0079484
-0.0038025
0.008316
-0.0079484
-0.017835
-0.002208
-0.043985
-0.034099
-0.0073105
0.022986
2.4388e-05
-0.015602
-0.0038025
-0.014964
-0.024213
-0.023575
-0.019748
0.0070404
0.035104
0.008635
0.015013
0.01597
0.036061
0.03638
0.017564
0.065401
0.076563
0.10526
0.086449
0.047542
0.026175
0.049455
0.031915
0.029683
0.039569
0.039888
0.044034
0.050731
0.0044891
0.0019378
0.014375
0.0095917
0.019159
0.0131
-0.0089051
0.0013
-0.02198
-0.010181
0.010548
0.031596
-0.019429
-0.00093234
0.019478
0.0013
-0.0034836
0.016608
-0.0095429
0.0095917
0.015332
-0.0047593
-0.039202
-0.009224
0.017883
-0.034418
-0.03378
-0.027721
-0.029634
-0.052277
-0.055147
-0.06025
-0.066309
-0.043347
-0.0085862
-0.036969
-0.024532
-0.034418
-0.037607
-0.031229
-0.059931
-0.055466
-0.059612
-0.0076295
0.0070404
-0.0105
-0.056742
-0.086081
-0.065352
-0.046855
0.038612
0.043077
-0.017835
-0.021024
-0.011137
2.4388e-05
-0.002208
-0.00029452
-0.043985
-0.027402
0.0099106
0.01597
0.032234
0.022029
-0.010181
-0.022299
2.4388e-05
0.028407
0.0099106
0.0067215
0.025856
0.041164
0.064444
0.073055
0.099524
0.057747
0.085492
0.10941
0.078476
0.078157
0.082622
0.085173
0.092189
0.13365
0.11324
0.084536
0.058385
0.059342
0.069547
0.058704
0.049137
0.050412
0.041483
0.0019378
-0.0028458
0.0038513
-0.016559
-0.030272
-0.064395
-0.045261
-0.03952
-0.053552
-0.046218
-0.065352
-0.070455
-0.096924
-0.093416
-0.078427
-0.081935
-0.10904
-0.10841
-0.094054
-0.071093
-0.090865
-0.081617
-0.088952
-0.10266
-0.084487
-0.069179
-0.044942
-0.033461
-0.039202
-0.054828
-0.039202
-0.005716
0.018202
0.017883
0.010867
0.061574
0.069866
0.042439
0.060298
0.066358
0.04818
0.054877
0.061574
0.070185
0.11292
0.10463
0.090276
0.064763
0.051369
0.03064
0.075606
0.084217
0.081028
0.065401
0.035742
0.040207
0.037018
0.067952
0.046266
0.019159
-0.038245
-0.058974
-0.039202
-0.044304
-0.079703
-0.070774
-0.082573
-0.094373
-0.10681
-0.089589
-0.095968
-0.079065
-0.061844
-0.049726
-0.033461
-0.047812
-0.042391
-0.029953
-0.027083
-0.0015702
2.4388e-05
0.011186
-0.005716
-0.035056
-0.014645
0.00098112
0.0032135
-0.015921
-0.01337
-0.0044404
-0.018791
-0.0025269
-0.031229
-0.038564
-0.022937
-0.030272
-0.033142
-0.020705
-0.014008
-0.043347
-0.024851
-0.024213
-0.03378
-0.040158
-0.04558
-0.02804
0.0051269
0.008635
0.031596
0.08326
0.079433
0.078795
0.074649
0.033829
0.031915
0.057109
0.043077
0.052645
0.022029
0.04818
0.025537
0.016289
-0.067903
-0.062482
-0.018472
0.025218
0.03351
-0.026126
-0.025807
0.0079971
0.032872
0.042758
0.073374
0.052007
0.063487
0.087725
0.070822
0.050731
0.069547
0.089957
0.056471
0.069547
0.079433
0.067314
0.081984
0.051688
0.068909
0.055196
0.022348
0.025218
0.02458
0.021072
-0.009224
-0.021024
0.01023
-0.044623
-0.042391
-0.03378
-0.022299
-0.035056
-0.078109
-0.087676
-0.067585
-0.046218
-0.03665
-0.043985
-0.058017
-0.030591
0.013738
-0.073963
-0.076833
-0.062163
-0.051958
-0.069817
-0.085762
-0.08927
-0.076514
-0.076833
-0.079384
-0.1049
-0.1033
-0.092778
-0.11638
-0.10522
-0.090227
-0.055785
-0.068541
-0.084168
-0.066628
-0.035056
-0.010819
0.0038513
-0.03091
-0.017197
0.0044891
0.027132
0.047542
0.052007
0.066995
0.073055
0.089319
0.10909
0.098249
0.10335
0.083898
0.11611
0.098886
0.10112
0.097292
0.08613
0.052326
0.074012
0.054558
0.057747
0.021391
-0.031229
-0.019429
-0.011456
-0.0076295
-0.051958
-0.058974
-0.064395
-0.047174
-0.032186
-0.035375
-0.019429
-0.012094
-0.002208
-0.012413
-0.026126
-0.038245
0.017883
0.075925
0.028726
0.02171
0.058066
0.060936
0.044034
0.032872
0.0070404
0.037337
0.088681
0.058704
0.021072
-0.0041214
-0.0038025
-0.022299
-0.052277
-0.054509
-0.088952
-0.076195
-0.06312
-0.080022
-0.098838
-0.12339
-0.11765
-0.1285
-0.11319
-0.099157
-0.10203
-0.11319
-0.098519
-0.070774
-0.066947
-0.067266
-0.047493
-0.031548
-0.02517
-0.029953
-0.025807
-0.0095429
0.011824
0.013738
0.033829
0.093465
0.1177
0.082941
0.090914
0.10303
0.11643
0.13652
0.14194
0.095697
0.089957
0.12663
0.11324
0.089957
0.087725
0.11069
0.075925
0.052963
0.052963
0.013738
-0.0105
-0.0041214
-0.005716
-0.0095429
-0.04845
-0.035056
-0.031229
-0.074601
-0.069817
-0.063439
-0.10298
-0.079703
-0.060569
-0.040158
-0.03091
-0.0069916
-0.015921
-0.012413
0.01023
0.0060837
0.018202
0.042439
0.031278
0.0038513
0.02777
0.056153
0.050412
0.025856
0.010548
0.0070404
-0.0031647
0.02458
0.014694
0.033829
0.026494
-0.0044404
-0.015602
-0.030272
-0.022937
-0.043028
-0.054509
-0.034737
-0.044623
-0.060569
-0.060569
-0.075557
-0.089589
-0.12626
-0.08927
-0.064077
-0.051958
-0.035694
-0.030591
-0.014645
0.0051269
0.012781
-0.00093234
0.014694
0.052007
0.066358
0.067314
0.076563
0.05105
0.042121
0.05392
0.1008
0.091233
0.058066
0.05105
0.058704
0.041164
0.047223
0.032234
0.064763
0.071141
0.068271
0.078476
0.025856
0.018202
0.05105
0.036699
0.066677
0.055196
0.020754
0.019478
-0.0031647
-0.017516
-0.029315
-0.059612
-0.058017
-0.050363
-0.057061
-0.070455
-0.088952
-0.037288
-0.052915
-0.071093
-0.076195
-0.047493
-0.021024
-0.071093
-0.095011
-0.065033
-0.011775
-0.064077
-0.02517
-0.015602
-0.047812
-0.12563
-0.098519
-0.10522
-0.090227
-0.075876
-0.097562
-0.058655
-0.009224
-0.045899
-0.032823
-0.019748
-0.0034836
0.017246
0.071779
0.097292
0.034786
0.022029
0.020754
0.037018
0.063806
0.040207
0.032872
0.017246
0.074012
0.044034
-0.0015702
-0.011775
0.030321
0.017246
0.028088
0.046266
0.03351
0.053282
0.080709
0.070503
0.050093
0.079752
0.07752
0.075925
0.052963
0.068909
0.037656
0.029045
0.023624
0.042121
0.008635
0.0013
0.022029
-0.0044404
-0.00061343
-0.0085862
2.4388e-05
-0.015283
-0.037607
-0.067266
-0.042072
-0.012413
-0.031229
-0.048131
-0.03665
-0.051639
-0.065671
-0.082892
-0.070774
-0.067585
-0.036331
-0.035694
-0.035056
-0.033461
-0.066309
-0.053871
-0.034099
-0.048769
-0.013051
-0.012094
0.0028946
0.010867
0.013738
0.025218
-0.00093234
-0.014964
0.017564
-0.00061343
-0.005716
-0.010819
-0.018791
-0.00093234
0.037975
-0.017516
-0.026126
0.0092728
0.043077
0.064444
0.05679
0.050093
0.032234
0.023624
0.019478
0.016608
0.052007
0.019478
0.0054459
0.031278
0.052007
-0.0079484
-0.049088
-0.02517
-0.03378
-0.062801
-0.049726
-0.03091
-0.054509
-0.047812
-0.066628
-0.051001
-0.018472
-0.044304
-0.045261
-0.02198
-0.037288
-0.046536
-0.028678
-0.034737
-0.027721
-0.0073105
-0.0076295
-0.046536
-0.012413
0.031278
0.044034
0.042121
0.016927
-0.020386
0.040207
0.047542
0.050412
0.019159
0.049455
0.057109
0.017883
0.02777
-0.0038025
-0.017197
-0.0047593
-0.012094
-0.028359
-0.032823
-0.022937
-0.023575
0.020435
0.028726
0.010867
-0.005716
0.013738
0.021391
0.0076782
0.016289
0.037337
0.029683
0.030002
0.059661
0.034786
0.02458
0.0095917
0.0131
-0.027721
-0.029634
-0.019748
-0.014008
-0.050363
-0.03665
-0.045261
-0.048131
-0.015921
-0.013051
-0.050363
-0.032823
-0.03378
-0.017835
-0.026445
-0.026445
-0.013051
-0.014964
-0.0038025
0.040207
0.02171
0.029364
0.042439
0.056471
0.050093
0.059979
0.056153
0.1059
0.10495
0.10622
0.14672
0.10176
0.061255
0.086449
0.07146
0.089319
0.11164
0.12153
0.022348
-0.0044404
0.043077
0.020754
0.0054459
-0.03091
-0.068222
-0.055147
-0.075238
-0.093735
-0.067585
-0.088633
-0.16485
-0.13424
-0.10522
-0.10522
-0.13551
-0.10841
-0.062801
-0.073963
-0.086081
-0.071411
-0.071093
-0.031548
-0.013051
-0.029634
-0.020067
0.02458
-0.0069916
0.0044891
0.013419
-0.01337
0.020754
0.0003433
0.015332
0.0092728
-0.017516
0.01884
-0.0044404
-0.041115
-0.027083
-0.010181
-0.011775
-0.024851
-0.01911
-0.014645
-0.005716
0.0054459
0.0022568
-0.016878
-0.028996
-0.01337
-0.013051
0.0057648
0.033191
0.0013
0.03351
0.0092728
0.012781
0.058066
0.051369
0.017883
0.014375
0.052007
0.042758
0.030959
-0.015283
-0.0034836
0.0095917
0.040845
0.035742
0.010867
-0.0063538
-0.0031647
-0.0050782
-0.013051
-0.011775
-0.014645
0.028407
0.031596
0.0089539
0.030321
0.034786
0.039888
0.082941
0.037975
0.063487
0.074012
0.042758
0.01884
-0.031548
0.03351
0.065082
0.062212
0.045947
-0.036969
-0.035056
-0.043985
-0.039839
-0.05132
-0.041434
-0.018153
-0.02517
-0.03952
-0.022937
-0.061206
-0.080022
-0.053234
-0.041434
-0.024532
-0.031548
-0.046855
-0.056104
-0.04271
-0.043347
-0.053552
-0.078746
-0.10203
-0.084806
-0.032823
-0.005716
0.0019378
-0.013051
-0.061525
-0.058655
-0.031548
-0.023256
-0.020705
-0.023575
-0.015921
-0.012413
-0.009224
0.0073593
0.0070404
0.01597
0.031596
0.0044891
0.010548
0.030002
0.03638
0.063806
0.068909
0.058066
0.053601
0.057747
0.069228
0.044353
0.037018
0.062212
0.040526
0.029045
0.035104
0.021072
0.01884
0.042121
0.01023
0.0067215
0.033829
0.044672
0.048499
0.0092728
0.022029
0.0013
-0.014964
-0.005716
0.00098112
0.014694
0.0079971
-0.02804
-0.047493
-0.035694
-0.0069916
-0.031229
-0.035694
-0.028359
-0.01911
-0.039202
-0.014964
-0.048131
-0.069817
-0.022937
-0.00093234
-0.019429
-0.019748
-0.0105
-0.023256
-0.03091
-0.0085862
-0.028359
-0.020705
-0.017516
-0.041753
-0.033461
-0.012094
-0.03665
-0.032186
-0.011456
-0.022618
-0.04558
-0.064714
-0.063439
-0.057379
-0.059931
-0.034418
-0.0044404
-0.014964
-0.056423
-0.079703
-0.051639
-0.029315
-0.051001
-0.042072
-0.033142
0.0076782
0.0016189
-0.030272
-0.046536
-0.014327
0.025856
0.040845
0.081665
0.10463
0.10622
0.066995
0.081028
0.087087
0.079114
0.077201
0.083579
0.065082
0.056471
0.028088
-0.023256
0.0067215
0.01884
-0.0060349
-0.029315
-0.041115
-0.034737
-0.045261
-0.032186
-0.021024
-0.021024
-0.017197
2.4388e-05
-0.045261
-0.029953
0.012462
0.014056
0.01023
-0.02804
-0.0073105
-0.0044404
-0.022937
-0.0082673
-0.028359
-0.017516
-0.0015702
-0.018472
-0.013051
-0.0028458
-0.009224
-0.002208
0.00066221
-0.03378
-0.010819
-0.014008
-0.027721
-0.022299
-0.009224
0.0035324
0.029045
0.018202
2.4388e-05
0.0041702
0.0022568
-0.0089051
-0.024851
-0.018153
-0.015602
0.028726
0.023305
0.026175
-0.02804
-0.0025269
0.032553
0.024899
0.017246
0.011824
0.015651
0.029045
0.041164
0.069228
0.052645
0.061893
0.051369
-0.0053971
0.066677
0.09187
0.060617
0.013738
-0.064077
-0.037288
0.008316
0.016289
0.0099106
-0.0085862
-0.026126
-0.038245
-0.0053971
-0.014008
-0.022937
-0.05419
-0.026126
-0.032823
-0.034737
-0.040158
-0.026445
-0.01911
-0.038564
-0.048769
-0.027083
-0.044304
-0.078109
-0.04845
-0.055466
-0.060887
-0.047493
-0.0095429
-0.021343
-0.017516
0.016608
0.02777
0.027451
0.012143
0.016927
0.023305
0.013738
0.02777
0.040526
0.025218
0.040207
-0.0015702
-0.012413
-0.012413
-0.021024
-0.0031647
-0.017835
-0.00061343
-0.00093234
-0.05132
-0.044304
0.0057648
0.010548
0.02777
0.0041702
0.0089539
0.0079971
0.0022568
0.0057648
0.02171
0.019159
0.014056
0.031596
0.051688
0.063487
0.04531
-0.02198
-0.052915
-0.037607
0.019478
0.038931
0.0076782
-0.0073105
-0.0050782
-0.041115
-0.043985
-0.017197
-0.021024
-0.046855
-0.026126
-0.040158
-0.00029452
-0.005716
-0.0015702
0.0016189
0.0079971
0.025856
0.01597
0.024262
0.017246
0.029045
0.055515
0.043077
0.038294
0.028726
0.020116
0.014694
0.041164
0.05392
0.05679
0.081346
0.074012
0.091233
0.13588
0.084536
0.083898
0.085492
0.070503
0.11451
0.13269
0.067633
0.041802
0.037656
0.059342
0.017883
0.012462
-0.023894
-0.055466
-0.088952
-0.074601
-0.064395
-0.10235
-0.12499
-0.12818
-0.12882
-0.16039
-0.16039
-0.15847
-0.15497
-0.14285
-0.13998
-0.1623
-0.1674
-0.13105
-0.10649
-0.10362
-0.0864
-0.062482
-0.04845
-0.055147
-0.035056
0.012143
0.03638
0.029364
0.02171
0.026813
0.058385
0.06572
0.067314
0.022029
0.032872
0.06285
0.073374
0.048818
0.013738
0.013419
0.0057648
-0.0069916
-0.0089051
-0.027721
-0.032504
-0.04558
-0.066947
-0.061844
-0.046536
-0.075876
-0.073006
-0.077152
-0.088314
-0.057379
-0.037926
-0.037607
-0.043666
-0.076833
-0.051958
-0.028678
0.022029
0.059979
0.064444
0.066677
0.056471
0.043396
0.080071
0.10112
0.096973
0.092189
0.12982
0.12982
0.10526
0.085492
0.098886
0.096335
0.094103
0.10144
0.080709
0.044672
0.067314
0.078476
0.079433
0.023943
0.020435
0.036699
0.011505
0.030959
-0.016878
-0.035056
-0.0031647
0.013738
-0.021343
-0.054509
-0.056742
-0.059293
-0.076514
-0.073006
-0.072049
-0.074919
-0.06025
-0.076195
-0.060887
-0.041753
-0.025488
-0.0098618
-0.033142
-0.042391
-0.068222
-0.068541
-0.038245
-0.028678
-0.013689
-0.0012513
-0.022618
-0.013689
2.4388e-05
-0.046536
-0.036331
-0.0089051
0.01884
0.029683
-0.012413
-0.030591
-0.013051
0.00098112
0.032872
0.053282
0.069228
0.039569
0.029683
0.036699
0.043715
0.072098
0.063169
0.072736
0.057428
0.044034
0.044034
0.028088
0.034467
0.016289
0.017246
-0.01624
-0.021024
-0.041434
-0.045261
-0.075238
-0.069179
-0.064714
-0.068541
-0.05419
-0.070774
-0.075876
-0.035375
-0.056742
-0.062482
-0.028359
-0.044942
-0.035694
-0.020386
-0.04271
-0.058336
-0.03091
-0.0098618
-0.020705
-0.014008
-0.01337
-0.0034836
-0.020386
-0.030272
-0.043347
-0.02517
-0.011775
-0.0082673
0.0095917
-0.014964
-0.038245
-0.047493
-0.079703
-0.052596
-0.027402
-0.051639
-0.060887
-0.043347
-0.041115
-0.056423
-0.014008
-0.012413
-0.0069916
0.0003433
0.011824
0.018202
0.023624
0.038294
0.043715
0.044991
0.067952
0.088362
0.053601
0.041802
0.055196
0.046266
0.071779
0.063169
0.058066
0.057109
0.090276
0.052645
0.026175
0.087406
0.094422
0.070503
0.075606
0.09793
0.14991
0.079752
0.095378
0.090595
0.071141
0.084217
0.10239
0.068271
0.060298
0.052645
0.03351
0.041164
0.049455
0.0099106
-0.01911
-0.0053971
-0.050363
-0.032186
-0.026445
-0.057379
-0.10075
-0.084168
-0.08066
-0.091822
-0.087357
-0.064077
-0.037288
-0.083211
-0.10394
-0.11797
-0.10777
-0.088314
-0.082254
-0.078746
-0.11128
-0.080341
-0.064714
-0.1033
-0.11542
-0.091184
-0.037926
-0.067266
-0.071093
-0.070774
-0.098519
-0.056742
0.00066221
-0.038883
-0.065352
-0.019748
0.03638
0.0099106
0.02458
0.011186
-0.0073105
0.0054459
0.049137
-0.0012513
0.0073593
0.032872
0.020754
0.037656
0.043077
0.058704
0.054877
0.04818
0.089957
0.085811
0.10909
0.08613
0.074012
0.10335
0.10782
0.11005
0.070185
0.053601
0.054877
0.048499
0.044034
0.025218
-0.0079484
0.028407
0.04531
0.056153
0.046266
0.042758
0.035104
0.030959
0.024899
0.053601
0.076882
0.028088
0.015651
0.027132
0.0016189
-0.0044404
-0.051639
-0.065033
-0.060887
-0.096924
-0.13328
-0.14986
-0.15815
-0.17442
-0.12818
-0.1285
-0.16421
-0.18845
-0.18909
-0.15879
-0.15879
-0.17123
-0.13041
-0.11319
-0.11574
-0.097562
-0.083211
-0.091503
-0.061206
-0.014964
-0.0044404
-0.0076295
0.040207
0.03064
0.029045
0.017883
0.046266
0.064763
0.12631
0.13588
0.085492
0.069228
0.047223
0.052645
0.069866
0.059661
-0.0060349
0.038612
0.059979
0.075925
0.029364
0.03351
0.013419
0.012143
0.0003433
0.00098112
0.035104
0.054239
0.067952
0.074649
0.10016
0.11579
0.10495
0.10973
0.10782
0.12695
0.12567
0.090914
0.065082
0.069547
0.043715
0.057428
0.053282
-0.018791
-0.046536
-0.050044
-0.051639
-0.069498
-0.088633
-0.076195
-0.096286
-0.10777
-0.07173
-0.075876
-0.071411
-0.069817
-0.053234
-0.058017
-0.063758
-0.063439
-0.04558
-0.064714
-0.047812
-0.051639
-0.019429
-0.043666
-0.039202
-0.033461
-0.061844
-0.01624
0.022029
-0.014008
-0.058336
-0.070455
-0.041753
0.0028946
-0.012094
-0.016878
-0.015283
-0.015602
0.0051269
-0.036331
-0.05132
-0.026764
-0.005716
0.026175
0.052963
0.049774
0.008635
-0.005716
0.018202
0.052326
0.050093
0.031915
0.061574
0.072098
0.085811
0.09793
0.052326
0.03064
0.057747
0.027451
0.014375
0.03638
0.045629
0.019478
0.017883
-0.025807
-0.024213
-0.00029452
0.0060837
-0.0050782
-0.061525
-0.027721
0.00066221
-0.0079484
-0.011775
-0.014327
-0.011456
0.022029
0.028407
0.023305
0.015651
-0.0079484
-0.018153
-0.0105
-0.0085862
-0.037926
-0.021343
0.022029
0.035423
0.0070404
-0.029315
-0.017835
-0.013051
0.0019378
0.037656
0.039569
0.0038513
0.025856
0.013419
0.0003433
0.015013
0.0076782
-0.010819
-0.0025269
-0.013689
-0.036969
-0.0095429
-0.047812
-0.078109
-0.10617
-0.072368
-0.075557
-0.052915
-0.065671
-0.029953
-0.011775
-0.011456
-0.061525
-0.082573
-0.044623
-0.0044404
0.0019378
-0.012094
0.025856
0.02171
0.0035324
-0.012413
-0.013051
-0.02804
0.00066221
-0.028359
-0.01911
0.021391
0.025537
0.015013
