-0.00093234
0.0051269
0.0067215
0.0064026
-0.0034836
0.0019378
0.0022568
0.00098112
0.0032135
-0.0047593
-0.018791
-0.0050782
0.0025757
0.00098112
-0.0041214
-0.005716
-0.0060349
-0.002208
0.011824
0.0025757
0.0028946
-0.00061343
0.0041702
0.0038513
0.0019378
0.0016189
-0.0085862
-0.0053971
-0.0041214
0.0054459
-0.0012513
-0.0031647
-0.0015702
-0.0028458
-0.00029452
0.017883
0.0073593
-0.0012513
2.4388e-05
0.0032135
0.0028946
0.0035324
0.00098112
-0.01337
-0.002208
-0.0012513
0.0003433
-0.0053971
-0.0063538
-0.0038025
-0.0031647
0.0028946
0.0067215
0.0041702
-0.0041214
0.00066221
0.0016189
0.00098112
0.0016189
-0.0031647
-0.01911
-0.0041214
0.0025757
0.00066221
-0.0047593
-0.005716
-0.0066727
-0.0041214
0.010548
0.0028946
0.00098112
-0.00093234
0.00098112
0.0032135
-0.00029452
2.4388e-05
-0.0098618
-0.0079484
-0.005716
0.0025757
-0.0031647
-0.005716
-0.0041214
-0.0063538
-0.0044404
0.015651
0.004808
-0.0034836
-0.0012513
0.0016189
0.0013
0.0022568
-0.00093234
-0.014327
-0.0038025
-0.0031647
2.4388e-05
-0.0063538
-0.0073105
-0.0053971
-0.0034836
0.0019378
0.004808
0.0038513
-0.0060349
-0.00061343
0.00066221
0.0013
0.0019378
-0.0041214
-0.020386
-0.0073105
0.0016189
-0.00061343
-0.005716
-0.0063538
-0.0076295
-0.0047593
0.0070404
2.4388e-05
2.4388e-05
-0.0031647
0.00066221
0.0003433
-0.00093234
-0.00029452
-0.0098618
-0.011137
-0.0073105
0.0025757
-0.0041214
-0.005716
-0.005716
-0.0076295
-0.0050782
0.014694
0.0028946
-0.005716
-0.002208
0.0003433
-0.00029452
0.00066221
-0.0018891
-0.014964
-0.0050782
-0.005716
0.0003433
-0.0066727
-0.0085862
-0.0050782
-0.0041214
-0.00061343
0.0057648
0.0028946
-0.0066727
-0.0012513
-0.0015702
-0.0015702
-0.0012513
-0.0047593
-0.023256
-0.0079484
-0.002208
-0.0041214
-0.0076295
-0.010181
-0.0085862
-0.0079484
0.0044891
-0.002208
-0.0015702
-0.0066727
-0.0025269
-0.0012513
-0.0038025
-0.0044404
-0.012094
-0.014327
-0.0095429
-0.00093234
-0.0053971
-0.0089051
-0.0073105
-0.0085862
-0.0063538
0.014056
0.0013
-0.0047593
-0.0038025
0.0013
-0.00061343
0.0003433
-0.0041214
-0.015283
-0.005716
-0.005716
-0.0018891
-0.0073105
-0.0095429
-0.0066727
-0.0066727
-0.00093234
0.0054459
0.00098112
-0.0082673
-0.002208
-0.0025269
-0.0018891
-0.00061343
-0.005716
-0.023256
-0.0076295
-0.0031647
-0.002208
-0.0069916
-0.0095429
-0.0085862
-0.0069916
0.0057648
-0.0015702
-0.0015702
-0.0044404
-0.00029452
0.0003433
-0.0015702
-0.0028458
-0.0105
-0.013689
-0.0085862
0.00098112
-0.0034836
-0.0073105
-0.0073105
-0.0085862
-0.0060349
0.014375
0.0019378
-0.0038025
-0.002208
0.0025757
0.00098112
0.0016189
-0.00029452
-0.012732
-0.0034836
-0.0034836
0.0003433
-0.0041214
-0.0069916
-0.0031647
-0.0041214
0.0003433
0.0092728
0.0051269
-0.0050782
2.4388e-05
0.0025757
0.0025757
0.0019378
-0.0012513
-0.020386
-0.0044404
0.0016189
0.00098112
-0.0031647
-0.005716
-0.0047593
-0.0041214
0.0067215
0.0028946
0.0032135
-0.00061343
0.0025757
0.0028946
0.0022568
0.0025757
-0.0047593
-0.0095429
-0.0038025
0.0054459
-0.00061343
-0.002208
-0.0034836
-0.0038025
-0.0025269
0.017564
0.0054459
-0.00029452
0.0003433
0.0025757
0.0028946
0.0016189
2.4388e-05
-0.011456
-0.0038025
-0.0047593
-0.00029452
-0.0066727
-0.009224
-0.0063538
-0.0069916
-0.0025269
0.0070404
0.0013
-0.0085862
-0.0041214
-0.0034836
-0.0015702
-0.0015702
-0.0053971
-0.022618
-0.0098618
-0.0038025
-0.0034836
-0.0079484
-0.0105
-0.0085862
-0.0079484
0.0038513
-0.00029452
-0.00029452
-0.0041214
-0.00093234
0.00098112
-0.00029452
-0.0012513
-0.009224
-0.014327
-0.0073105
0.0019378
-0.002208
-0.0063538
-0.0063538
-0.0073105
-0.0047593
0.015651
0.0013
-0.0031647
-0.002208
2.4388e-05
0.00098112
-0.00029452
-0.0012513
-0.012094
-0.0038025
-0.0044404
0.0019378
-0.0041214
-0.0063538
-0.0034836
-0.0038025
0.00066221
0.0092728
0.0057648
-0.0050782
-0.0012513
2.4388e-05
0.0019378
0.0016189
-0.00061343
-0.022937
-0.0041214
-0.00029452
-0.00061343
-0.0050782
-0.0069916
-0.0060349
-0.0053971
0.0041702
0.0019378
0.0013
-0.0038025
-0.00029452
0.0016189
2.4388e-05
-0.00061343
-0.0085862
-0.013689
-0.0076295
0.0025757
-0.0018891
-0.0047593
-0.0050782
-0.0073105
-0.0044404
0.017246
0.0044891
-0.00093234
0.0003433
0.0025757
0.0035324
0.0035324
0.0016189
-0.0098618
-0.0018891
-0.00061343
0.0035324
-0.0018891
-0.0041214
2.4388e-05
-0.0028458
0.0025757
0.014056
0.008316
-0.0025269
0.0038513
0.0044891
0.0057648
0.004808
0.0025757
-0.016878
-0.0015702
0.0016189
0.0028946
-0.0025269
-0.0031647
-0.0031647
-0.0034836
0.0067215
0.0041702
0.0044891
-0.00093234
0.0025757
0.0041702
0.0019378
0.0022568
-0.0044404
-0.012413
-0.0038025
0.0041702
0.0013
-0.0025269
-0.0028458
-0.0047593
-0.0012513
0.018202
0.0054459
0.0019378
0.0013
0.0044891
0.0041702
0.004808
0.00098112
-0.0079484
-0.0015702
-0.002208
0.0051269
-0.0018891
-0.0038025
-0.0015702
-0.0012513
0.00098112
0.015332
0.0089539
-0.0031647
0.0019378
0.0044891
0.0035324
0.0051269
0.0032135
-0.015921
-0.0018891
0.0016189
0.0041702
-0.0012513
-0.0034836
-0.0012513
-0.00093234
0.0073593
0.0070404
0.0067215
-0.00029452
0.0051269
0.0060837
0.0032135
0.0035324
-0.0031647
-0.012094
-0.0028458
0.0044891
0.0016189
-0.0025269
-0.0041214
-0.0041214
-0.00093234
0.018202
0.004808
0.00066221
2.4388e-05
0.0028946
0.004808
0.0028946
2.4388e-05
-0.0098618
-0.0038025
-0.0041214
0.0032135
-0.0038025
-0.0044404
-0.0034836
-0.0044404
-0.00093234
0.0131
0.0057648
-0.0041214
2.4388e-05
0.00066221
0.0019378
0.0038513
2.4388e-05
-0.020067
-0.0034836
-0.0012513
0.00098112
-0.0060349
-0.0079484
-0.0047593
-0.0038025
0.0057648
0.0028946
0.0025757
-0.0041214
0.00098112
0.00098112
-0.00029452
-0.00029452
-0.0066727
-0.017197
-0.0060349
0.0025757
-0.00061343
-0.0044404
-0.0063538
-0.0073105
-0.0038025
0.014375
0.0032135
-0.0012513
-0.002208
0.0019378
0.0032135
0.00066221
0.00066221
-0.010819
-0.0044404
-0.005716
0.0019378
-0.0028458
-0.0044404
-0.0041214
-0.0044404
-0.0025269
0.013738
0.0051269
-0.0041214
-0.0015702
0.0013
0.0019378
0.0019378
-0.00093234
-0.018791
-0.0047593
-0.0025269
-0.00061343
-0.005716
-0.0085862
-0.0050782
-0.0044404
0.0022568
0.0019378
0.0022568
-0.0044404
-0.00061343
0.00098112
0.0013
-0.00029452
-0.0073105
-0.017835
-0.0076295
0.0013
-0.0012513
-0.0063538
-0.0060349
-0.0073105
-0.005716
0.012143
0.0028946
-0.0012513
-0.0015702
0.0013
0.0016189
2.4388e-05
-0.00061343
-0.011456
-0.0053971
-0.005716
0.0019378
-0.0031647
-0.005716
-0.0044404
-0.0050782
-0.0012513
0.013738
0.0057648
-0.0044404
-0.0018891
0.0013
0.0025757
0.0038513
0.00098112
-0.016878
-0.002208
-0.00093234
0.0025757
-0.0041214
-0.0063538
-0.0034836
-0.0034836
0.0064026
0.0057648
0.0044891
-0.0025269
0.00098112
0.0003433
-0.00061343
-0.00029452
-0.0063538
-0.018791
-0.0076295
2.4388e-05
-0.0038025
-0.0082673
-0.0085862
-0.011456
-0.0076295
0.0099106
-0.00093234
-0.0044404
-0.0044404
-0.0018891
-0.0015702
-0.0031647
-0.002208
-0.015921
-0.009224
-0.009224
-0.0025269
-0.009224
-0.010181
-0.0073105
-0.0089051
-0.0079484
0.0095917
0.0013
-0.0085862
-0.0050782
-0.0034836
-0.0025269
-0.0012513
-0.0050782
-0.02198
-0.0063538
-0.0066727
-0.0041214
-0.0098618
-0.012413
-0.0095429
-0.0095429
-0.0015702
-0.00093234
-0.0015702
-0.0095429
-0.005716
-0.0041214
-0.0047593
-0.0047593
-0.011137
-0.025488
-0.012094
-0.0034836
-0.0079484
-0.011137
-0.01337
-0.01337
-0.012094
0.0060837
-0.0038025
-0.0066727
-0.009224
-0.005716
-0.005716
-0.0076295
-0.0076295
-0.017197
-0.014645
-0.013689
-0.0060349
-0.012094
-0.014964
-0.014008
-0.015283
-0.012732
0.0044891
-0.0044404
-0.014964
-0.011137
-0.010181
-0.0089051
-0.0089051
-0.012094
-0.029315
-0.015602
-0.015283
-0.011775
-0.018472
-0.020067
-0.016878
-0.017197
-0.010181
-0.0095429
-0.0089051
-0.015921
-0.011775
-0.011137
-0.011137
-0.010819
-0.016878
-0.030591
-0.017835
-0.010181
-0.012413
-0.017197
-0.018791
-0.019748
-0.017516
-0.0015702
-0.010819
-0.011456
-0.015602
-0.011456
-0.0095429
-0.011775
-0.01337
-0.022618
-0.020386
-0.020067
-0.0105
-0.015921
-0.018153
-0.017835
-0.01911
-0.016878
0.0025757
-0.0082673
-0.017516
-0.01337
-0.011137
-0.0098618
-0.0089051
-0.012413
-0.027083
-0.014645
-0.014008
-0.0095429
-0.016878
-0.018153
-0.014327
-0.014008
-0.0073105
-0.0053971
-0.0044404
-0.015921
-0.0098618
-0.0073105
-0.0095429
-0.0105
-0.016878
-0.030591
-0.017835
-0.011137
-0.014008
-0.018153
-0.020386
-0.021661
-0.01911
-0.0047593
-0.012413
-0.013689
-0.01624
-0.012732
-0.011775
-0.013051
-0.012413
-0.023575
-0.022299
-0.018791
-0.010819
-0.01624
-0.018791
-0.019429
-0.018472
-0.016559
0.0044891
-0.0069916
-0.014645
-0.014008
-0.010181
-0.0105
-0.0089051
-0.011775
-0.028996
-0.015602
-0.014645
-0.010181
-0.017197
-0.018472
-0.016878
-0.01624
-0.0098618
-0.0044404
-0.0076295
-0.015921
-0.011775
-0.010181
-0.0098618
-0.0089051
-0.014008
-0.031867
-0.016559
-0.010819
-0.010819
-0.015921
-0.017516
-0.017516
-0.015283
-0.0015702
-0.0089051
-0.0085862
-0.012094
-0.0089051
-0.0069916
-0.0089051
-0.0085862
-0.018472
-0.017516
-0.01624
-0.0089051
-0.013689
-0.015283
-0.014645
-0.016878
-0.014327
0.0054459
-0.0044404
-0.013051
-0.011137
-0.0085862
-0.0089051
-0.0085862
-0.010819
-0.024851
-0.014008
-0.014008
-0.010181
-0.01624
-0.019748
-0.014645
-0.014645
-0.010181
-0.0044404
-0.0073105
-0.016559
-0.0105
-0.010819
-0.0105
-0.0076295
-0.012732
-0.032186
-0.015602
-0.0105
-0.0095429
-0.01624
-0.01911
-0.017516
-0.01624
-0.0028458
-0.0095429
-0.0095429
-0.014327
-0.010181
-0.0098618
-0.010819
-0.0098618
-0.021024
-0.022618
-0.018153
-0.0089051
-0.01337
-0.016878
-0.015921
-0.017197
-0.01624
0.0054459
-0.0073105
-0.014645
-0.013051
-0.0095429
-0.0098618
-0.0076295
-0.010181
-0.025488
-0.015283
-0.015283
-0.009224
-0.015602
-0.016878
-0.013689
-0.015921
-0.009224
-0.0018891
-0.0050782
-0.014327
-0.0098618
-0.0076295
-0.0073105
-0.0063538
-0.010819
-0.029953
-0.014964
-0.0095429
-0.0095429
-0.013689
-0.017197
-0.017197
-0.014327
-0.002208
-0.009224
-0.011137
-0.014008
-0.010819
-0.0095429
-0.012094
-0.010819
-0.021343
-0.025488
-0.020067
-0.011775
-0.014964
-0.019748
-0.019429
-0.020705
-0.019748
0.0013
-0.0098618
-0.016878
-0.016559
-0.013051
-0.012732
-0.011775
-0.014645
-0.027721
-0.016878
-0.017197
-0.012094
-0.018791
-0.020386
-0.016559
-0.017197
-0.012413
-0.0028458
-0.0073105
-0.016878
-0.012094
-0.010819
-0.010819
-0.009224
-0.011775
-0.034099
-0.016878
-0.012094
-0.012094
-0.017197
-0.020386
-0.019429
-0.016559
-0.0060349
-0.010819
-0.0105
-0.015921
-0.013051
-0.0098618
-0.012413
-0.012413
-0.021343
-0.025488
-0.019429
-0.010181
-0.014008
-0.016559
-0.01911
-0.020067
-0.018472
0.0032135
-0.009224
-0.014645
-0.012732
-0.010819
-0.010819
-0.0105
-0.011456
-0.024213
-0.015283
-0.016559
-0.010819
-0.01624
-0.01911
-0.016559
-0.017835
-0.012094
-0.0034836
-0.0085862
-0.018153
-0.012413
-0.011456
-0.011775
-0.011456
-0.012094
-0.034099
-0.01911
-0.014645
-0.011775
-0.017197
-0.021024
-0.019748
-0.017835
-0.0073105
-0.012094
-0.010819
-0.016559
-0.012094
-0.012413
-0.015602
-0.015283
-0.020705
-0.028678
-0.022299
-0.01337
-0.017835
-0.020705
-0.02198
-0.023256
-0.022618
-0.0012513
-0.012732
-0.018153
-0.018153
-0.014327
-0.013689
-0.014645
-0.016559
-0.02804
-0.022937
-0.027083
-0.018791
-0.023894
-0.02517
-0.023894
-0.026126
-0.024213
-0.01337
-0.018472
-0.031229
-0.025807
-0.022937
-0.022299
-0.017516
-0.021024
-0.04558
-0.028678
-0.022299
-0.020386
-0.024213
-0.02517
-0.023575
-0.020705
-0.0105
-0.012413
-0.012094
-0.01624
-0.010181
-0.011775
-0.012094
-0.010819
-0.01911
-0.02517
-0.01911
-0.011137
-0.014645
-0.018153
-0.020067
-0.022299
-0.020067
0.0025757
-0.012094
-0.015921
-0.016878
-0.014327
-0.013051
-0.01337
-0.014327
-0.027083
-0.018791
-0.020386
-0.014327
-0.021343
-0.021343
-0.018153
-0.02198
-0.017516
-0.0050782
-0.010181
-0.019748
-0.015602
-0.015283
-0.014645
-0.012413
-0.015921
-0.035694
-0.018791
-0.015283
-0.014645
-0.020067
-0.023575
-0.022618
-0.019429
-0.010181
-0.011775
-0.011775
-0.017197
-0.012413
-0.010181
-0.012094
-0.016878
-0.01911
-0.024851
-0.016878
-0.0034836
-0.0098618
-0.012094
-0.012413
-0.009224
-0.0025269
0.017246
0.012462
0.0038513
0.0044891
0.015013
0.017564
0.015332
0.015651
0.0057648
0.012143
0.020754
0.02458
0.012143
0.0076782
0.0035324
0.011186
0.0089539
0.020754
0.012143
2.4388e-05
-0.00061343
-0.00029452
2.4388e-05
0.0003433
-0.014327
-0.04271
-0.018472
-0.020705
-0.016559
-0.027083
-0.031229
-0.028359
-0.030272
-0.022618
-0.024213
-0.023894
-0.03091
-0.025807
-0.024213
-0.024532
-0.022299
-0.025488
-0.033142
-0.026126
-0.014327
-0.016878
-0.018153
-0.014645
-0.018153
-0.0089051
0.017246
0.0044891
0.010548
0.0025757
0.0025757
0.012781
0.016927
0.018202
0.0044891
0.01023
0.0064026
0.011505
0.0095917
0.0003433
-0.002208
-0.024213
-0.022937
0.0057648
-0.0028458
-0.022937
-0.026445
-0.028359
-0.018472
-0.014327
-0.011137
-0.020067
-0.00061343
0.00098112
0.0064026
0.01597
0.021072
0.010867
0.016289
0.035423
0.039569
0.020754
0.018521
0.037975
0.017564
0.028407
0.019478
0.00098112
0.018521
0.023624
0.01884
0.035742
0.031596
0.023624
0.020116
0.021391
0.04818
0.045947
0.02777
0.022986
0.021391
0.023305
-0.011456
-0.024851
-0.037288
-0.023256
-0.029953
-0.036331
-0.051639
-0.057061
-0.065352
-0.06886
-0.056742
-0.030272
-0.049726
-0.066947
-0.052277
-0.040796
-0.037607
-0.036969
-0.045899
-0.067585
-0.047174
-0.033142
-0.041434
-0.047493
-0.056104
-0.057061
-0.056104
-0.050044
-0.051001
-0.050044
-0.062801
-0.055466
-0.056423
-0.054509
-0.050044
-0.058336
-0.070136
-0.051001
-0.039202
-0.04271
-0.04271
-0.043985
-0.043985
-0.036969
-0.010181
-0.021343
-0.024213
-0.022299
-0.01624
-0.014645
-0.014964
-0.013689
-0.019748
-0.015921
-0.010819
-0.0034836
-0.009224
-0.014008
-0.0038025
0.016608
0.020435
0.041802
0.028407
0.022986
0.02777
0.043396
0.054877
0.046904
0.041164
0.032234
0.045629
0.057109
0.061574
0.052326
0.050093
0.043077
0.057747
0.07146
0.083579
0.089319
0.071141
0.069228
0.075606
0.082941
0.070503
0.052007
0.039888
0.053282
0.068909
0.044353
0.026175
-0.0060349
-0.013689
-0.020067
-0.0085862
-0.01911
-0.021024
-0.026764
-0.023894
-0.020705
-0.024213
-0.034418
-0.039839
-0.019429
-0.0012513
0.0057648
-0.010819
-0.0082673
-0.011775
-0.032186
-0.020386
0.014694
0.0019378
-0.023256
-0.015283
-0.027721
-0.012732
-0.041753
-0.050682
-0.073006
-0.04845
-0.049088
-0.06025
-0.057698
-0.057379
-0.061525
-0.063758
-0.061844
-0.056104
-0.059293
-0.066947
-0.062163
-0.062163
-0.058655
-0.064077
-0.055466
-0.070455
-0.056104
-0.043985
-0.048769
-0.053234
-0.04558
-0.04271
-0.034737
-0.023575
-0.023575
-0.022618
-0.022937
0.0013
0.010867
-0.0028458
-0.0089051
-0.0063538
0.0025757
0.018202
0.025218
0.028088
0.028088
0.023943
0.027451
0.024899
0.049455
0.040207
0.018202
0.033191
0.042439
0.026175
0.020754
-0.0034836
-0.0089051
0.0003433
-0.0089051
-0.017516
-0.026764
-0.021024
-0.014327
0.0016189
0.015651
-0.0050782
-0.012413
-0.0089051
0.0095917
0.018202
0.013738
0.023305
0.028726
0.022986
0.028407
0.042439
0.037656
0.028407
0.025218
0.023624
0.019159
0.043077
0.02171
0.011824
0.01884
0.018521
0.034467
0.004808
0.0131
0.0067215
-0.0031647
-0.0028458
-0.0025269
-0.020386
-0.024532
-0.020067
-0.002208
-0.0047593
0.0032135
-0.013051
-0.029953
-0.029953
-0.028996
-0.035056
-0.024532
-0.027083
-0.037926
-0.046218
-0.051001
-0.039202
-0.031548
-0.059612
-0.067585
-0.063439
-0.058017
-0.044942
-0.052915
-0.057379
-0.050044
-0.056104
-0.048769
-0.051639
-0.058974
-0.051001
-0.026445
-0.022937
-0.024851
-0.019429
-0.023256
-0.022937
-0.01337
-0.00061343
0.0067215
0.0016189
-0.0034836
-0.005716
-0.017197
-0.0073105
-0.016878
-0.038245
-0.028678
-0.030591
-0.015921
-0.022937
-0.028678
-0.012094
-0.0038025
0.008316
0.047542
0.041164
0.037975
0.056153
0.057428
0.052963
0.054877
0.066677
0.060298
0.054877
0.028407
0.047861
0.05105
0.02171
0.0089539
0.00098112
-0.029315
-0.048769
-0.036969
-0.035694
-0.032186
-0.056742
-0.065033
-0.056742
-0.073006
-0.10553
-0.080341
-0.065033
-0.054509
-0.059293
-0.050044
-0.02517
-0.018791
-0.011775
-0.01337
0.0073593
0.0041702
0.016608
0.01597
0.024899
0.027132
0.0092728
0.011505
0.026494
0.046266
0.042121
0.028726
0.0073593
0.033191
0.02777
0.043396
0.033191
0.02777
0.024262
0.041483
0.016608
0.02458
-0.0085862
-0.021024
0.0038513
-0.033142
-0.036012
-0.048131
-0.061206
-0.078109
-0.073963
-0.084806
-0.069817
-0.071411
-0.078427
-0.085125
-0.081298
-0.082892
-0.078109
-0.071411
-0.082573
-0.070774
-0.061844
-0.058336
-0.054509
-0.052915
-0.042391
-0.037926
-0.029953
-0.041753
-0.028996
-0.033461
-0.029315
-0.019429
-0.025807
-0.035375
-0.059293
-0.04845
-0.053552
-0.021024
-0.014645
-0.049407
-0.053234
-0.044304
-0.049088
-0.038883
-0.04845
-0.057379
-0.041434
-0.040158
-0.025807
0.020754
-0.0098618
-0.038564
-0.028359
0.0057648
0.020754
0.024262
0.030959
0.035742
0.041802
0.054877
0.052963
0.054877
0.015651
0.019797
0.043396
0.03064
0.017883
0.00098112
-0.020386
-0.0041214
0.0067215
0.018202
0.014375
0.0054459
-0.010819
-0.019429
0.0035324
0.0076782
0.0067215
-0.0098618
-0.021343
-0.012094
-0.018472
-0.02804
-0.044304
-0.057061
-0.043347
-0.0085862
-0.026126
-0.050363
-0.053234
-0.046536
-0.029315
-0.011456
-0.0044404
0.013419
0.048499
0.061893
0.06859
0.05679
0.045947
0.027132
0.059661
0.05392
0.059023
0.038612
0.016608
0.043396
0.049774
0.047223
0.03638
-0.0034836
-0.015602
-0.019429
0.008316
-0.015283
-0.014645
-0.0012513
-0.041434
0.022348
0.019159
0.0079971
0.00098112
0.0076782
0.0025757
-0.024532
0.0022568
-0.009224
-0.035375
-0.053234
-0.035375
-0.050682
-0.053234
-0.063758
-0.081617
-0.10075
-0.11223
-0.11191
-0.0982
-0.081617
-0.088314
-0.097562
-0.078746
-0.053234
-0.061844
-0.061525
-0.055147
-0.038883
-0.048769
-0.042072
-0.01337
-0.017516
-0.026764
-0.03952
0.0057648
-0.0085862
-0.019429
-0.014008
-0.012413
0.00098112
0.0035324
-0.010181
-0.052596
-0.023894
-0.017516
-0.04845
-0.010181
-0.017835
-0.02804
-0.018472
-0.036331
-0.02804
-0.038245
-0.030591
-0.029315
-0.019748
0.00098112
0.014694
0.021072
0.0019378
-0.012732
-0.032504
0.0032135
0.0028946
-0.00029452
0.011186
0.069228
0.061255
0.040526
0.028726
0.024262
0.030959
0.029364
0.054239
0.038931
0.053282
0.041164
0.023624
0.011824
0.042758
0.054558
0.046585
0.008635
-0.032504
-0.0025269
0.025856
0.045629
0.069866
0.04818
0.042121
0.06572
0.079752
0.088681
0.045629
0.015332
0.027132
0.043077
0.049774
-0.0038025
-0.02804
-0.049088
-0.041434
-0.061844
-0.065033
-0.061206
-0.089589
-0.082892
-0.097881
-0.11128
-0.10745
-0.086081
-0.077152
-0.069179
-0.056423
-0.06025
-0.072368
-0.074919
-0.060569
-0.052915
-0.054509
-0.055147
-0.053234
-0.062482
-0.04271
-0.043347
-0.036331
-0.026126
-0.024532
-0.049726
-0.033142
-0.011775
-0.029634
-0.015921
0.0073593
0.048499
0.040845
0.02458
0.045629
0.055515
0.053601
0.020435
0.048499
0.064444
0.050412
0.031596
0.015651
0.075606
0.068271
-0.02517
-0.0044404
-0.0028458
-0.016559
-0.028996
-0.015921
-0.018791
-0.0060349
-0.017197
-0.012094
-0.03665
-0.046855
-0.032186
-0.039839
-0.034418
-0.036012
-0.03091
-0.043028
-0.043028
-0.042391
-0.038564
-0.034418
-0.044623
-0.044304
-0.024851
0.0038513
-0.021343
-0.032186
-0.026764
-0.0082673
-0.0018891
0.00066221
-0.0031647
0.01023
0.03638
0.032553
0.036699
0.028407
0.021072
0.026175
0.054877
0.061255
0.053282
0.041164
0.055834
0.05679
0.023943
0.0067215
-0.0085862
0.028088
-0.0038025
-0.014964
-0.031548
-0.017835
-0.034418
0.0032135
0.030321
0.017564
-0.0076295
-0.020386
-0.0105
-0.013051
0.030959
0.023305
0.033191
-0.005716
-0.026126
0.017564
0.063806
0.058704
-0.035694
-0.04558
-0.015602
-0.0053971
-0.0015702
0.0064026
-0.017197
-0.014645
-0.0012513
-0.02517
-0.050682
-0.041115
-0.036331
-0.034737
0.027132
0.057109
0.050412
0.032234
0.041164
0.072098
0.092189
0.12057
0.14353
0.14385
0.13492
0.12504
0.10526
0.11037
0.07146
0.034148
0.012781
-0.021024
-0.046536
-0.086719
-0.10617
-0.12244
-0.14061
-0.1556
-0.16772
-0.18303
-0.14795
-0.16166
-0.15305
-0.14604
-0.14986
-0.13774
-0.12499
-0.11989
-0.073963
-0.056742
-0.055785
-0.038883
-0.020705
-0.020067
-0.018153
0.0003433
0.020435
0.03351
0.013419
0.038612
0.077201
0.058385
0.092189
0.075925
0.034786
0.038294
0.075287
0.075287
0.044353
0.084536
0.066995
0.044034
0.091552
0.089638
0.038931
0.0067215
0.028726
0.052645
0.076244
0.044991
-0.014645
0.0095917
0.02171
0.029364
2.4388e-05
-0.044623
-0.034418
-0.016559
-0.023575
-0.059612
-0.087676
-0.083849
-0.064395
-0.050363
-0.06025
-0.079065
-0.1049
-0.11287
-0.094692
-0.063758
-0.059293
-0.081298
-0.080022
-0.077152
-0.074601
-0.047174
-0.056104
-0.078746
-0.071411
-0.055785
-0.035375
-0.046855
-0.043666
-0.062482
-0.050044
-0.03091
-0.028996
-0.017516
-0.011137
-0.0105
0.0016189
0.0044891
0.040526
0.045629
0.051688
0.052645
0.034467
0.069547
0.095697
0.079752
0.030002
0.080709
0.089319
0.067952
0.084536
0.09793
0.07752
0.079752
0.10558
0.10782
0.10239
0.093784
0.042758
0.052963
0.05679
0.026813
0.017246
0.017564
0.01884
0.045629
0.01023
-0.036012
-0.064077
-0.061525
-0.055147
-0.06886
-0.082573
-0.091503
-0.098519
-0.10043
-0.10107
-0.11064
-0.097881
-0.12116
-0.11191
-0.10394
-0.11446
-0.10745
-0.080022
-0.065033
-0.037288
-0.036012
-0.0082673
-0.012413
0.0131
0.032553
0.025218
0.047542
0.061574
0.059661
0.04531
0.057109
0.06859
0.085492
0.095697
0.07433
0.11324
0.20955
0.18691
0.1362
0.14736
0.12376
0.1193
0.11483
0.089
0.15693
0.20732
0.12727
0.076882
0.064125
-0.012732
-0.061525
-0.070455
-0.059931
-0.039839
-0.080341
-0.11064
-0.12945
-0.1505
-0.15018
-0.14508
-0.12658
-0.12818
-0.14572
-0.16007
-0.11415
-0.10394
-0.091503
-0.10585
-0.090227
-0.082254
-0.055147
-0.020705
0.022029
-0.020386
-0.029634
0.0067215
0.0131
0.030959
0.017564
0.014056
0.033829
0.01023
0.035423
0.013738
-0.025807
2.4388e-05
0.062531
0.016927
0.035742
0.059661
0.03351
-0.00029452
-0.00029452
0.016608
0.031596
0.014694
-0.019429
0.034786
0.027132
0.025218
0.0070404
0.00098112
0.017883
-0.0060349
-0.00061343
0.017246
0.029683
-0.037607
-0.032823
-0.017197
-0.031548
0.0016189
0.017564
0.0016189
0.016608
0.03638
0.02171
0.034148
0.020435
-0.045899
-0.045261
-0.0015702
-0.014964
0.016608
0.016927
0.0079971
-0.009224
-0.0066727
-0.036012
-0.031867
-0.0025269
-0.024851
0.0044891
-0.027721
-0.021024
0.010548
2.4388e-05
0.01023
0.021072
0.020116
0.031278
0.03351
0.017246
0.0079971
-0.0076295
0.0025757
-0.017197
0.008316
0.0032135
-0.014964
0.0070404
0.017883
0.012143
0.0032135
0.014375
-0.010181
-0.0031647
-0.0031647
0.008316
0.0019378
0.00098112
-0.0038025
-0.0069916
0.0019378
-0.0069916
-0.0098618
-0.0079484
0.0076782
0.015651
-0.010181
-0.0105
0.0095917
-0.0047593
0.0076782
0.015013
0.013738
0.008316
-0.002208
-0.0038025
-0.0085862
-0.026764
-0.039202
0.008316
0.0028946
-0.0095429
-0.020705
-0.011137
0.0019378
0.0099106
0.056153
0.037018
0.062212
0.047861
0.067633
0.072098
0.037975
-0.020386
-0.0076295
0.004808
0.018521
-0.013051
0.03351
0.046266
0.012462
-0.029953
0.00098112
-0.047493
-0.032186
-0.032186
0.0070404
0.0073593
0.037018
0.04818
-0.010819
0.01884
0.046904
0.023624
-0.0031647
-0.020067
-0.02198
-0.021661
-0.0015702
-0.023256
-0.028678
-0.0089051
-0.020067
-0.012094
-0.017835
-0.049088
-0.051001
-0.029634
-0.018153
-0.014008
-0.012732
0.00066221
-0.011137
0.0025757
-0.0038025
0.0022568
0.019159
0.01884
0.029364
0.020754
0.01023
0.010867
0.020754
0.008635
0.036699
0.037337
0.026813
0.020435
0.022029
0.019159
0.039569
0.047542
0.024899
0.014694
0.014375
-0.00029452
0.029683
0.014694
-0.0076295
-0.014327
-0.021661
-0.0028458
-0.002208
-0.026445
-0.027083
-0.011137
-0.026445
-0.018472
0.028726
-0.0079484
-0.024213
-0.018153
-0.0012513
0.0003433
0.004808
0.030959
-0.002208
0.0060837
-0.011775
-0.0089051
-0.04558
-0.031229
-0.0034836
-0.0082673
-0.01337
0.0051269
-0.0034836
-0.021661
-0.0095429
-0.0085862
-0.014645
0.00098112
-0.0085862
-0.0095429
-0.0044404
0.017246
0.056471
0.091552
0.10782
0.10431
0.09506
0.098568
0.077201
0.068271
0.056153
0.069866
0.049774
0.052963
0.034148
-0.018791
-0.053234
-0.037607
-0.061525
-0.035056
-0.066947
-0.083849
-0.074601
-0.094373
-0.073963
-0.050363
-0.030591
-0.011137
-0.017197
-0.012732
-0.0069916
-0.005716
-0.017516
-0.0082673
-0.0047593
-0.012413
-0.023575
-0.023256
-0.017835
-0.020386
0.0022568
0.02458
2.4388e-05
-0.034099
-0.028996
-0.019429
0.0054459
0.013419
-0.00093234
-0.035694
-0.020067
-0.0018891
0.0057648
-0.020386
-0.027721
-0.015283
-0.010181
0.0057648
-0.012094
-0.0073105
-0.026445
-0.0105
0.0038513
0.01597
0.03064
0.035742
0.057747
0.055515
0.043396
0.026175
0.016289
0.05679
0.092827
0.080071
0.075606
0.038931
0.031915
0.055515
0.046585
0.026494
0.02777
0.026813
0.0076782
0.02171
0.019159
0.0003433
-0.0095429
-0.018472
0.013738
0.029683
-0.0073105
-0.0063538
-0.005716
0.0035324
0.0016189
0.0016189
-0.0034836
0.0016189
-0.011456
-0.032823
-0.028996
-0.018472
-0.021024
-0.022299
-0.0015702
-0.019748
-0.055466
-0.038245
-0.016878
-0.02804
-0.057061
-0.045899
-0.049088
-0.061844
-0.075557
-0.075238
-0.078109
-0.058974
-0.060887
-0.067585
-0.059931
-0.05132
-0.076514
-0.10107
-0.048769
-0.03952
-0.04271
-0.026445
-0.022299
-0.014327
-0.015602
-0.038245
-0.03378
-0.02198
-0.011775
0.0057648
0.0022568
0.019478
0.008635
0.013738
0.012462
0.044672
0.064125
0.070503
0.089
0.088362
0.096335
0.096016
0.10622
0.066995
0.081984
0.096016
0.11037
0.10909
0.11292
0.033829
0.025218
0.07146
0.069547
0.037656
0.062212
0.020754
0.0044891
0.015013
0.011186
0.013419
-0.018153
0.02458
0.012143
-0.012094
-0.0105
-0.021024
-0.047174
-0.043347
-0.031229
-0.062801
-0.071411
-0.062801
-0.075238
-0.072049
-0.042391
-0.059293
-0.068222
-0.065352
-0.051001
-0.030272
-0.014964
-0.0089051
0.027132
0.058066
0.021072
0.05105
0.035742
0.026813
0.0054459
0.03351
0.03925
0.0044891
0.020116
-0.0034836
0.015651
0.016608
-0.067585
-0.087995
-0.044304
-0.03378
-0.019429
-0.027402
-0.038564
-0.012732
-0.051001
-0.04845
-0.029315
-0.039202
-0.055785
-0.06599
-0.051639
-0.019748
-0.0018891
-0.0066727
-0.036012
-0.043666
-0.0098618
-0.0095429
0.008635
0.0028946
0.0131
0.055196
0.051369
0.042439
0.047542
0.072736
0.041164
0.075925
0.060298
0.066995
0.087725
0.078157
0.078795
0.10048
0.096335
0.087087
0.093465
0.079752
0.049774
0.07433
0.093465
0.069228
0.03351
-0.024851
-0.028996
0.015651
0.029364
0.0060837
-0.01624
-0.012413
-0.021661
-0.0085862
-0.041115
-0.060569
-0.038245
-0.039202
-0.0098618
-0.031548
-0.038883
-0.023894
-0.024851
-0.016559
-0.036331
-0.051958
-0.038245
-0.022618
-0.022937
-0.028359
0.022348
0.028407
0.0016189
-0.0047593
0.03638
0.067633
0.014375
0.0032135
0.0025757
0.025856
0.066358
0.069547
0.054239
0.034467
0.037656
0.039569
0.035423
0.064125
0.029683
0.029045
0.055515
0.049455
0.037018
-0.0082673
-0.025807
-0.043347
-0.021024
-0.0050782
-0.016878
-0.031548
-0.031548
-0.0076295
-0.055147
-0.058336
-0.016559
-0.011775
-0.043028
-0.049088
-0.036012
-0.039202
-0.035056
-0.04845
-0.10872
-0.092778
-0.057379
-0.046536
-0.043985
-0.024851
-0.019429
-0.023256
-0.0038025
-0.0050782
-0.022937
-0.014645
0.055196
0.031278
0.052007
0.043396
0.031278
0.022029
0.034148
0.012781
-0.0050782
-0.026126
-0.016878
-0.042391
-0.045261
-0.01911
-0.039839
-0.052915
-0.055785
-0.04845
-0.051639
-0.028996
-0.053234
-0.073644
-0.051001
-0.023894
-0.02804
-0.041434
-0.02517
-0.014327
-0.016559
-0.0060349
0.010548
0.0060837
2.4388e-05
0.0025757
0.017246
0.024262
0.008635
-0.0034836
2.4388e-05
0.017564
0.014694
0.0022568
-0.0098618
-0.012094
-0.0098618
0.0028946
0.0073593
0.0035324
-0.0012513
-0.0031647
0.008316
0.0079971
0.026813
0.041483
0.03638
0.034786
0.046904
0.054877
0.050093
0.10431
0.096973
0.052326
0.054877
0.067314
0.036061
0.081984
0.06285
0.050412
0.025218
0.055834
0.044991
-0.0050782
-0.024851
-0.031867
0.0054459
-0.0073105
-0.025488
-0.023894
-0.025488
-0.014645
-0.02804
-0.047493
-0.052915
-0.050044
-0.058655
-0.043347
-0.038883
-0.051958
-0.064714
-0.059293
-0.047493
-0.027721
-0.023894
-0.016559
-0.00093234
-0.0028458
-0.011456
-0.0085862
0.010867
0.025218
0.023943
0.035742
0.032553
0.014694
0.011505
-0.005716
0.0022568
0.014375
0.017246
0.011505
-0.0047593
0.0025757
0.018521
0.016289
-0.01337
-0.0069916
0.028726
0.022029
-0.0041214
0.0035324
0.0057648
0.019797
0.041483
-0.0034836
-0.021024
-0.017516
-0.014645
-0.0063538
0.008316
-0.0063538
-0.017197
-0.040477
-0.03091
-0.029634
-0.039202
-0.047174
-0.045261
-0.029953
-0.043028
-0.015921
-0.012094
-0.014645
-0.0066727
-0.0060349
-0.011137
0.0022568
0.041802
0.035104
0.013419
0.011824
0.029045
0.021072
0.025537
0.0067215
-0.025488
-0.039202
-0.033461
-0.014964
-0.031867
-0.029953
-0.022299
-0.03378
-0.048131
-0.034418
-0.035056
-0.039839
-0.032504
-0.039839
-0.034099
-0.031548
-0.032823
-0.00029452
0.030002
0.019159
-0.0066727
0.0032135
0.0067215
-0.00061343
0.01023
0.034148
0.044034
0.0131
0.004808
0.029045
0.049774
0.014694
-0.0015702
-0.033142
-0.040477
-0.0095429
0.012462
0.022348
-0.0038025
-0.017516
-0.00029452
0.013419
0.0060837
0.01023
0.013738
0.038294
0.03638
-0.0044404
-0.018791
0.0064026
-0.016559
-0.031229
-0.017516
-0.015283
-0.0085862
0.01597
0.0095917
0.0067215
0.0028946
-0.014964
-0.027721
-0.012094
0.046266
0.039888
0.008316
0.025856
0.045629
0.019159
0.015332
0.026175
0.017564
-0.0082673
0.010867
0.028407
0.012462
-0.0044404
-0.0066727
0.016927
0.02458
-0.013051
-0.036331
-0.027083
-0.018153
-0.018153
-0.043985
-0.040477
-0.038883
-0.037288
-0.051639
-0.05419
-0.06886
-0.073325
-0.061525
-0.058974
-0.079065
-0.076195
-0.073644
-0.081935
-0.074601
-0.075557
-0.087676
-0.073325
-0.077152
-0.060569
-0.054509
-0.06025
-0.056104
-0.0098618
0.0054459
0.037975
0.042439
0.029045
0.01884
0.019159
0.030002
0.018202
0.031278
0.048818
0.079114
0.089319
0.10399
0.096654
0.069866
0.050093
0.052963
0.097611
0.11228
0.12599
0.087725
0.091233
0.09506
0.10909
0.10112
0.075925
0.055515
0.063169
0.027451
0.027132
-0.0012513
-0.0105
-0.030591
-0.040158
-0.038564
-0.044623
-0.046536
-0.088633
-0.070774
-0.060887
-0.084487
-0.076195
-0.10235
-0.092778
-0.085762
-0.06025
-0.050682
-0.034418
-0.036012
-0.032186
-0.012732
0.030959
2.4388e-05
-0.010819
-0.0034836
-0.0098618
-0.009224
0.019478
0.0038513
-0.038245
-0.0050782
0.02458
0.022986
0.028726
0.02458
0.024899
0.027132
0.046266
0.03638
0.037656
0.010548
0.034148
0.021072
0.021391
0.016289
0.041483
0.0054459
0.0070404
0.0054459
-0.024213
-0.061206
-0.030272
-0.032504
-0.015283
0.02171
0.043396
0.048499
0.052007
0.10016
0.06285
0.048499
0.056153
0.098568
0.069228
0.08326
0.13747
0.11005
0.090595
0.11643
0.090595
0.062212
0.085492
0.053282
0.058066
0.047223
0.0038513
-0.014327
-0.068222
-0.080022
-0.091822
-0.082892
-0.10203
-0.13009
-0.12148
-0.095011
-0.10043
-0.12913
-0.14125
-0.084168
-0.094692
-0.074282
-0.033461
-0.022299
0.0073593
0.0067215
-0.039839
-0.076195
-0.024532
-0.0073105
0.004808
-0.01337
-0.0034836
0.0076782
0.02171
-0.0069916
-0.061206
-0.033142
0.0076782
0.011505
0.042439
0.059023
0.065401
0.06285
0.081028
0.075287
0.096973
0.08326
0.083898
0.076563
0.066039
0.11164
0.13046
0.067952
0.032234
0.074012
0.087087
0.1008
0.071779
0.04818
0.055515
0.04531
0.077201
0.10845
0.034148
0.05392
0.069866
0.072736
0.093146
0.067633
0.077201
0.0099106
-0.013051
-0.017197
-0.022618
-0.018153
-0.027083
-0.084806
-0.071093
-0.08353
-0.067266
-0.075557
-0.11319
-0.13041
-0.13041
-0.097562
-0.082254
-0.075876
-0.080979
-0.07173
-0.080022
-0.054509
-0.061844
-0.059293
-0.069817
-0.042391
-0.030272
-0.059293
-0.086081
-0.057379
-0.036012
-0.036969
-0.050682
-0.032504
-0.010181
-0.013689
-0.011137
0.0060837
0.018521
0.035742
0.044034
0.043396
0.059979
0.090595
0.099205
0.10463
0.12408
0.12249
0.093465
0.094741
0.097611
0.075925
0.032872
0.047542
0.02777
0.024899
0.011824
-0.038564
-0.029953
-0.027721
-0.038564
-0.0018891
-0.0098618
-0.012094
-0.0105
0.0051269
0.029045
0.013419
-0.015283
0.0073593
0.029045
0.046585
0.063806
0.058704
0.041164
0.058704
0.062212
0.051688
0.056153
0.056471
0.038294
0.061893
0.065401
0.047861
0.025856
0.031278
0.062212
0.054877
0.026494
0.037337
0.058066
0.083579
0.019159
-0.021343
-0.0038025
0.022667
0.0099106
0.004808
0.0032135
0.023305
0.020435
0.008635
-0.050363
-0.059612
-0.070136
-0.099476
-0.13392
-0.15018
-0.082573
-0.097881
-0.12499
-0.15401
-0.18175
-0.16772
-0.18239
-0.15082
-0.13073
-0.12212
-0.083211
-0.03378
-0.024532
-0.09533
-0.078109
-0.0079484
0.01023
0.01884
0.044034
0.075287
0.080071
0.10335
0.13811
0.1598
0.14545
0.098886
0.067952
0.10367
0.15023
0.14959
0.1531
0.11356
0.088362
0.10526
0.086449
0.068271
0.05679
0.036699
0.011186
-0.0028458
0.011505
0.023305
0.011505
-0.034099
-0.014964
-0.0038025
0.017564
-0.013051
-0.002208
-0.060887
-0.036331
-0.0034836
0.0051269
0.014375
0.0054459
-0.0050782
-0.011456
0.0076782
-0.0041214
-0.036331
-0.05419
-0.061525
-0.029315
-0.039202
-0.057379
-0.11032
-0.11064
-0.10745
-0.094692
-0.083849
-0.091503
-0.073644
-0.047493
-0.087038
-0.09533
-0.12148
-0.083849
-0.072368
0.01597
0.036061
0.004808
-0.015283
-0.0034836
0.03351
0.016927
-0.014645
0.026813
0.053601
0.085492
0.087725
0.061893
0.075287
0.04531
0.023943
0.031915
0.038294
0.043715
0.049455
0.04531
0.0019378
0.026813
0.038294
0.024899
0.0089539
-0.0047593
-0.012094
-0.01911
-0.0098618
-0.011775
0.0070404
-0.0012513
-0.035056
-0.01624
-0.021024
-0.021343
-0.038564
-0.047493
-0.02804
-0.0079484
-0.0031647
0.0003433
0.010548
0.0095917
0.008316
0.046266
0.063487
0.067952
0.063487
0.094103
0.17032
0.16586
0.12791
0.12567
0.13588
0.14545
0.14513
0.12918
0.1228
0.14003
0.11037
0.10048
0.037656
-0.023256
0.012781
-0.020386
-0.03378
-0.071093
-0.098519
-0.12945
-0.16039
-0.15433
-0.18144
-0.19674
-0.23884
-0.26467
-0.2331
-0.18303
-0.18048
-0.17314
-0.13934
-0.14189
-0.13711
-0.12339
-0.13424
-0.073006
-0.009224
-0.011137
-0.015283
0.045629
0.079752
0.022667
0.0051269
0.055515
0.098249
0.11356
0.053282
0.038612
0.029045
0.057109
0.052645
0.069228
0.069866
0.092508
0.050731
0.052645
0.14736
0.10622
0.073055
0.024262
0.012143
0.051369
0.11419
0.07752
0.11037
0.072098
0.030959
0.046266
0.031278
-0.012094
-0.034418
-0.032504
-0.017197
-0.01337
-0.011775
-0.03665
-0.067585
-0.074919
-0.069179
-0.087357
-0.084806
-0.097562
-0.099157
-0.058974
-0.021024
-0.036969
-0.13456
-0.13328
-0.090546
-0.082892
-0.10171
-0.091822
-0.10649
-0.078109
-0.062163
-0.048769
-0.060887
-0.094692
-0.11446
-0.092778
-0.062482
-0.048769
-0.011775
-0.0050782
0.0016189
0.027451
0.046585
0.02171
0.010548
0.012462
0.041164
0.084217
0.10112
0.06859
0.071141
0.038931
0.0092728
-0.0063538
0.051369
0.070822
0.038931
0.035742
0.041483
0.0070404
0.037337
0.069866
0.10877
0.04531
0.030959
0.070822
0.10495
0.053282
0.04818
0.045947
0.019159
0.0044891
0.020754
0.0092728
0.023305
0.052645
0.030002
-0.0015702
0.0051269
0.0079971
0.073693
0.11419
0.062212
-0.0015702
0.0070404
-0.012732
-0.016878
-0.029953
-0.0034836
-0.0864
-0.086719
-0.018153
-0.021024
-0.10777
-0.13519
-0.14572
-0.10968
-0.056742
-0.069817
-0.057061
-0.073644
-0.046536
0.030002
-0.03091
-0.014964
-0.0044404
-0.018791
-0.0050782
0.0067215
0.019797
-0.0041214
-0.00061343
0.01023
0.029364
0.046585
0.028088
0.023305
0.036061
0.055515
0.05392
0.038612
0.026175
0.025218
-0.023575
-0.031867
-0.014964
-0.015602
0.031596
0.044353
0.011505
-0.028996
-0.025488
-0.056104
-0.054828
-0.050044
-0.033142
0.017883
-0.0018891
-0.0018891
-0.024532
-0.046218
-0.045899
-0.031548
0.019797
0.023624
0.03064
0.046266
0.097292
0.10303
0.078157
0.079114
0.10399
0.12057
0.12504
0.18085
0.20317
0.16044
0.16139
0.14959
0.092189
0.073693
0.080709
0.10367
0.064763
0.070185
0.04818
0.0070404
-0.031229
-0.027402
-0.033142
-0.050044
-0.097562
-0.15752
-0.20216
-0.18526
-0.15624
-0.16421
-0.19451
-0.18175
-0.15305
-0.11032
-0.1269
-0.14317
-0.11191
-0.090546
-0.044942
-0.017516
0.029683
0.023305
0.041802
0.041483
0.10239
0.11132
0.078795
0.047542
0.014694
0.020116
0.0022568
-0.019748
-0.030591
-0.047174
-0.0044404
0.022348
-0.012413
-0.067266
-0.054828
-0.038883
-0.0034836
-0.0095429
-0.0044404
-0.012094
0.018202
0.058704
0.067314
0.031915
0.025218
0.0092728
0.05105
0.031915
0.032872
0.040526
0.052963
0.045947
0.018521
0.018202
-0.0050782
0.015651
-0.0018891
0.010548
0.03064
0.046904
0.07752
0.074012
-0.029315
0.031596
0.083579
0.064763
0.026494
-0.0066727
0.045629
0.034786
0.047861
0.054877
0.011824
-0.032186
-0.038245
-0.01337
-0.027083
-0.0012513
-0.032186
-0.035694
-0.024532
-0.024851
-0.015921
0.0028946
-0.0098618
-0.034418
-0.0018891
0.041164
0.052645
0.025856
0.011505
0.037656
0.051688
0.049455
0.021391
0.035423
-0.0098618
-0.00061343
-0.032823
-0.053871
-0.021661
-0.024213
-0.023894
-0.053552
-0.048769
-0.019429
-0.059293
-0.068541
-0.064714
-0.093416
-0.055785
-0.039839
0.017564
0.025218
0.01884
0.016608
0.0057648
0.055834
0.038612
-0.010819
0.014375
0.0131
0.031915
0.053601
0.036699
0.02777
0.019478
0.014375
-0.005716
-0.047174
-0.0031647
-0.0028458
-0.010181
0.044034
0.035423
-0.01337
-0.022299
-0.029315
-0.012094
-0.026764
0.013738
0.030959
0.034148
0.055834
0.037337
-0.03665
-0.015283
-0.0079484
-0.013051
0.01597
0.0079971
-0.0053971
-0.044304
-0.027721
0.0057648
-0.03665
-0.087995
-0.10968
-0.081935
-0.090865
-0.064395
-0.073963
-0.045899
-0.064395
-0.062801
-0.11733
-0.10936
-0.05419
-0.038564
-0.05419
-0.017835
0.0041702
0.0079971
0.0092728
0.0025757
0.027451
0.02777
0.0016189
0.0041702
0.093465
0.072417
0.072417
0.035423
0.050093
0.065401
0.041164
0.061255
0.092189
0.084854
0.17415
0.12153
0.086768
0.094103
0.11101
0.12504
0.089638
0.07146
0.096335
0.076244
0.038294
0.037018
0.022667
-0.0044404
-0.016559
-0.044942
-0.044623
-0.0073105
0.021391
0.038931
0.040207
0.047223
-0.0085862
0.0131
-0.0031647
0.022029
0.012462
0.061574
0.089319
0.062212
0.03925
0.021391
-0.01337
-0.065671
-0.058974
-0.050682
-0.093735
-0.079065
-0.056742
-0.05419
-0.089908
-0.1387
-0.10745
-0.062482
-0.051001
-0.064714
-0.097243
-0.06886
-0.069498
-0.028678
0.050093
0.042121
0.035742
-0.050363
-0.052596
-0.014645
-0.027721
-0.031548
-0.039202
-0.075238
-0.046855
-0.078427
-0.094692
-0.13424
-0.1167
-0.10075
-0.0982
-0.077471
-0.089589
-0.0031647
0.0073593
-0.025807
-0.059612
-0.025807
0.0076782
0.040845
0.074012
0.042439
0.081984
0.11547
0.076563
0.07433
0.090276
0.10654
0.12185
0.10941
0.16267
0.12312
0.13716
0.086449
0.1295
0.11037
0.11228
0.10782
0.048818
0.045947
0.038612
0.060617
0.049774
0.071779
0.077838
0.055834
-0.018472
-0.012094
0.011824
0.021391
0.044991
0.043396
-0.023256
-0.040796
-0.067903
-0.097562
-0.069817
-0.11574
-0.10266
-0.082892
-0.081617
-0.11032
-0.11191
-0.08066
-0.057698
-0.09246
-0.091822
-0.013051
-0.0041214
-0.009224
0.012781
-0.013051
-0.014008
-0.026126
-0.018153
-0.0018891
0.0025757
0.014694
-0.031548
-0.058017
-0.052596
-0.026126
0.0073593
0.018202
-0.03091
-0.10458
-0.067903
-0.032504
-0.040477
0.0041702
0.018202
0.042758
0.041164
-0.0025269
-0.010819
0.017564
0.064763
0.085811
0.12408
0.18404
0.15661
0.10973
0.11292
0.13046
0.15246
0.12759
0.12823
0.13173
0.13365
0.092508
0.088362
0.075925
0.008635
-0.0044404
0.035423
0.077201
0.03638
0.050412
0.0054459
-0.017516
0.0099106
0.030002
0.016289
0.037975
0.021072
0.039888
0.0038513
0.0057648
-0.013051
-0.0031647
-0.0095429
-0.0050782
-0.018153
-0.037288
-0.055147
-0.095649
-0.065352
-0.075876
-0.072368
-0.11446
-0.10681
-0.030272
-0.045261
-0.074282
-0.094692
-0.10203
-0.087038
-0.074601
-0.073325
-0.054509
-0.053234
-0.089908
-0.087357
-0.057698
-0.062482
-0.020386
-0.0063538
-0.08066
-0.084806
-0.083211
-0.060569
-0.069179
-0.040158
0.037975
-0.0015702
-0.01624
0.042758
0.064444
0.035104
0.05105
0.052963
0.068271
0.074649
0.093146
0.068909
0.092189
0.11005
0.10239
0.1228
0.13843
0.14896
0.17192
0.27748
0.15693
0.10973
0.11579
0.12727
0.12567
0.15087
0.12631
0.11802
0.019159
0.062212
0.023305
-0.027721
-0.025807
-0.029953
-0.084487
-0.13711
-0.090227
-0.078109
-0.12403
-0.12722
-0.080022
0.014375
-0.0044404
-0.017835
-0.027721
-0.021343
0.010548
0.0092728
-0.023256
-0.033461
-0.02198
-0.009224
-0.020705
0.0092728
-0.041115
-0.11159
-0.096286
-0.068222
-0.09246
-0.10777
-0.073325
-0.067585
-0.040477
-0.018472
0.02171
-0.022618
0.0060837
0.055834
0.051369
0.043077
0.040207
0.067952
0.033829
0.038931
0.010867
0.01023
0.011824
-0.056742
-0.076195
-0.030591
-0.080022
-0.080979
-0.06886
-0.087676
-0.088952
-0.025488
-0.030591
-0.050044
0.037656
0.047861
0.072736
0.063487
0.07433
0.10718
0.061255
0.046266
0.03925
0.037018
0.057747
0.016289
0.025856
0.050731
0.028407
0.012143
-0.0050782
-0.083849
-0.080979
-0.0044404
0.029683
0.058704
0.10495
0.12918
0.16267
0.14864
0.18659
0.15055
0.11834
0.10239
0.066358
0.047542
0.11993
0.072417
0.01884
-0.042072
-0.084168
-0.11638
-0.16294
-0.21779
-0.2095
-0.20663
-0.18941
-0.19961
-0.20982
-0.18271
-0.18718
-0.1757
-0.15401
-0.13456
-0.10841
-0.065352
-0.03091
0.0051269
-0.04845
-0.016878
0.013419
0.046266
-0.0066727
0.060617
0.037975
0.0089539
0.03638
0.046266
0.050412
0.036699
0.070503
0.070503
0.066677
0.077838
0.038294
0.026813
0.07433
0.090595
0.18085
0.16713
0.23697
0.19966
0.23187
0.18531
0.13142
0.13779
0.11005
0.093146
0.080709
0.12025
0.070822
0.041164
-0.045899
-0.10904
-0.12945
-0.11446
-0.11829
-0.084487
-0.086081
-0.059612
-0.13392
-0.15497
-0.094054
-0.097562
-0.066947
-0.049726
-0.069817
-0.083849
-0.075876
-0.056742
-0.078427
-0.1049
-0.11383
-0.079384
-0.079065
-0.048131
-0.050044
-0.04845
-0.015921
0.016289
0.0016189
0.050731
0.078476
0.051688
0.05392
0.045947
0.030321
0.014375
0.036699
0.008316
0.0057648
-0.019748
-0.049088
-0.061206
-0.11159
-0.087676
-0.091822
-0.099157
-0.13966
-0.12658
-0.11542
-0.074601
-0.07779
-0.073963
-0.063758
-0.036331
-0.0028458
-0.0031647
0.046585
0.082303
0.057109
0.075925
0.084854
0.13939
0.18978
0.21688
0.15629
0.19552
0.24814
0.21019
0.12153
0.12025
0.17989
0.1598
0.10144
0.036699
0.032234
-0.0089051
0.014694
-0.04845
-0.052277
-0.070774
-0.15784
-0.15273
-0.1218
-0.10235
-0.088952
-0.096605
0.013738
-0.014645
-0.0069916
0.037337
0.14385
0.18404
0.17542
0.13939
0.10495
0.12217
0.10782
0.099843
0.019797
0.062531
-0.027402
-0.0047593
-0.10203
-0.15241
-0.14923
-0.20599
-0.24043
-0.24617
-0.24362
-0.22863
-0.20695
-0.2162
-0.19005
-0.18431
-0.16613
-0.1572
-0.15497
-0.1167
-0.094692
-0.12467
-0.11191
-0.045261
-0.029634
-0.048131
-0.0038025
-0.012413
-0.040477
0.0079971
0.044353
0.029045
-0.0050782
0.014375
0.055196
0.094422
0.075287
0.09187
0.14449
0.14321
0.12695
0.13142
0.069547
0.08326
0.14098
0.11866
0.06285
0.092508
0.11451
0.10877
0.1177
0.1059
0.094422
0.10813
0.075287
0.016608
0.021391
0.043077
0.029364
0.016608
0.032234
0.072417
0.096016
0.028407
-0.050044
-0.08353
-0.087038
-0.060887
-0.0864
-0.1336
-0.13998
-0.18845
-0.1572
-0.1202
-0.14221
-0.15433
-0.11574
-0.11383
-0.12913
-0.10841
-0.1033
-0.080979
-0.060569
-0.058017
-0.0060349
-0.0012513
-0.015283
0.0079971
-0.011137
0.020435
0.017883
-0.011456
-0.015921
-0.0095429
-0.012094
-0.015283
0.010867
-0.012413
-0.012732
0.0057648
-0.018472
-0.026445
-0.032823
-0.013051
-0.0079484
0.03638
0.037656
0.031278
-0.0041214
-0.018791
0.02171
0.14321
0.24367
0.25069
0.23283
0.16841
0.15533
0.1531
0.1598
0.16012
0.16905
0.16235
0.14545
0.14321
0.10782
0.091233
0.047223
0.018202
-0.036012
-0.059612
-0.091822
-0.080979
-0.055147
-0.03665
-0.043985
-0.036331
-0.032186
-0.038883
-0.0085862
-0.044942
-0.059293
-0.086081
-0.064077
-0.066628
-0.11191
-0.07779
-0.054828
-0.080022
-0.0982
-0.096924
-0.08066
-0.10171
-0.082892
-0.080341
-0.10904
-0.075238
0.018202
0.042439
-0.005716
0.026813
0.046904
0.032553
0.058704
0.051369
0.0044891
0.035423
0.045947
0.0095917
0.022348
0.029045
-0.03091
-0.087357
-0.06312
-0.045261
-0.081935
-0.069817
-0.060569
-0.090865
-0.1167
-0.04845
-0.017516
-0.019748
-0.019429
0.055196
0.087725
0.099843
0.10782
0.059023
0.053601
0.077201
0.094103
0.083579
0.12823
0.22199
0.16522
0.14832
0.10558
0.10622
0.051688
0.064763
0.031596
0.033829
0.062212
0.039888
0.044353
0.079114
0.07752
0.064125
0.037018
0.013738
0.010548
0.050731
0.052963
0.016289
0.016289
0.062531
-0.027402
-0.002208
-0.042072
-0.04845
-0.067585
-0.069179
-0.092778
-0.14317
-0.11223
-0.10298
-0.12977
-0.12499
-0.11797
-0.057061
-0.090227
-0.096924
-0.060887
-0.057061
-0.098519
-0.084168
-0.043347
-0.026126
-0.032823
-0.057061
-0.066947
-0.061525
-0.070455
-0.088633
-0.078746
-0.041115
-0.026445
-0.075557
-0.12371
-0.090865
-0.033142
0.022986
0.066995
0.054877
0.055196
0.11069
0.13429
0.15055
0.14194
0.15055
0.21178
0.27524
0.25133
0.15757
0.19966
0.1547
0.12599
0.17798
0.11834
0.1126
0.17064
0.10909
0.10112
0.035423
-0.031229
-0.07779
-0.078746
0.0028946
-0.012732
-0.03665
-0.085762
-0.12148
-0.052915
-0.11765
-0.14636
-0.13647
-0.14189
-0.16198
-0.077152
-0.06025
-0.059612
-0.055466
0.041483
0.071141
0.074649
0.063487
0.068909
0.036699
0.014375
0.075925
0.038294
0.032234
0.065401
0.020435
0.0022568
0.010867
-0.039202
-0.11829
-0.14221
-0.13487
-0.080022
-0.056423
-0.047174
-0.042391
-0.051001
-0.045261
-0.054828
-0.03378
-0.024213
-0.0105
-0.058655
-0.018153
0.083898
0.072098
-0.0063538
-0.010819
0.011505
0.017564
-0.02804
-0.026764
-0.0105
-0.022618
-0.026764
-0.020386
-0.015921
-0.011137
0.024899
0.051369
0.10463
0.19456
0.23379
0.17542
0.13907
0.13301
0.16618
0.12121
0.12153
0.11962
0.14672
0.057109
0.072417
0.022986
-0.076833
-0.10777
-0.14954
-0.15305
-0.17697
-0.18686
-0.16772
-0.081935
-0.011456
-0.013051
0.042758
0.074968
0.12855
0.15119
0.02777
0.066677
0.042758
0.09506
0.041164
0.048499
0.054239
0.0022568
-0.084487
-0.062482
-0.12052
-0.18399
-0.2095
-0.2028
-0.21428
-0.20408
-0.21396
-0.23501
-0.18526
-0.17091
-0.1572
-0.15082
-0.087038
0.030002
0.071779
0.041164
-0.023575
-0.028359
0.0013
0.017883
-0.039202
-0.02198
0.13524
0.067952
-0.044304
0.018202
-0.029953
-0.047493
-0.10171
-0.088314
-0.072368
-0.051001
-0.012732
0.1244
0.41365
0.40185
0.37538
0.35625
0.34285
0.24559
0.20795
0.13173
0.32117
0.41652
0.29597
0.19201
0.11292
0.020754
-0.041434
-0.12595
-0.19898
-0.2264
-0.25542
-0.22672
-0.22034
-0.22098
-0.18399
-0.18558
-0.17123
-0.14508
-0.13966
-0.12818
-0.093416
-0.074601
-0.034418
0.0064026
0.01023
0.0070404
-0.038564
-0.0073105
-0.010181
-0.035694
-0.014327
0.060936
-0.0041214
-0.066309
-0.033461
-0.026126
-0.056423
-0.076833
-0.053234
-0.055785
-0.031548
0.037975
0.086449
0.033829
0.025856
0.046585
0.068909
-0.00061343
0.0099106
0.041483
0.065082
0.11069
0.081028
0.02777
-0.063439
-0.036012
-0.010819
0.029364
0.078795
0.084536
0.070185
0.12025
0.10495
0.055834
0.066039
0.037975
0.11675
0.062212
0.040845
0.043396
0.04818
-0.057698
-0.059612
-0.067266
-0.10872
-0.086719
-0.05132
-0.055785
-0.049088
0.17096
0.16171
0.14832
0.11643
0.10303
0.1295
0.13843
0.033191
0.026494
0.09187
0.18499
0.11738
0.010867
-0.074601
-0.11925
-0.15082
-0.18431
-0.18749
-0.18367
-0.1741
-0.12052
-0.10968
-0.073006
-0.064714
-0.099794
-0.086081
-0.031229
-0.028359
-0.0050782
-0.012413
-0.051958
0.017564
0.026494
-0.011456
-0.010819
-0.042391
-0.059293
-0.077471
-0.051001
-0.041115
-0.065671
-0.085443
-0.076833
-0.017197
-0.048131
-0.07173
-0.043347
-0.0015702
-0.0105
0.027451
0.02171
0.022986
0.087725
0.086768
0.16267
0.14864
0.17351
0.10303
0.11164
0.091552
0.12536
0.093465
0.062212
-0.012413
0.035104
0.096335
0.11611
0.043077
-0.0041214
0.049774
-0.012094
-0.058336
-0.043347
-0.059293
-0.055785
-0.016559
-0.017835
-0.023575
-0.026126
-0.046536
-0.089908
-0.1218
-0.10043
-0.095011
-0.10904
-0.098519
-0.092778
-0.082892
-0.045899
-0.048131
-0.045261
-0.009224
0.016927
0.01597
-0.0050782
0.0092728
0.069228
0.039888
0.02171
-0.0015702
0.036699
0.067314
0.021391
0.01884
0.021391
0.023305
0.042439
-0.012732
0.030002
0.051369
0.044034
0.063169
0.043715
0.046266
0.087725
0.089638
0.1244
0.12121
0.070503
0.05105
0.016608
-0.0079484
0.026813
0.033191
0.012781
-0.018153
-0.059293
-0.084806
-0.043347
-0.013051
-0.03665
-0.038245
0.0028946
-0.018791
-0.0041214
0.045947
0.032553
0.07752
0.11802
0.12823
0.13779
0.13811
0.079114
0.11834
0.11069
0.057109
0.066995
0.061893
0.044353
0.034786
0.0044891
-0.028996
-0.055466
-0.081298
-0.10904
-0.066947
-0.096924
-0.14731
-0.11925
-0.12913
-0.1202
-0.12307
-0.10649
-0.09533
-0.10235
-0.082892
-0.09533
-0.057379
-0.037607
-0.042391
-0.017516
-0.027083
0.008635
0.044991
-0.0066727
0.00098112
0.035742
0.021072
0.042758
0.035423
0.016608
0.035104
0.032553
0.0028946
-0.0063538
0.0073593
-0.043028
-0.0060349
0.034148
0.027451
0.016289
0.069866
0.095378
0.15788
0.11547
0.096973
0.15948
0.095378
0.038294
0.1177
0.086768
0.097611
0.1008
0.019797
0.0095917
-0.0085862
-0.034418
-0.078109
-0.080979
-0.088952
-0.050363
-0.057698
-0.012094
-0.023575
-0.029634
0.028407
0.079752
0.050093
0.017883
0.032872
0.028088
0.0025757
0.035423
0.09506
0.038612
0.03638
0.037975
0.012781
0.031596
0.029045
-0.015283
-0.0012513
0.049137
-0.039202
0.0099106
0.055834
0.017883
0.0076782
0.034467
0.01023
0.039888
0.085811
0.059342
0.029045
0.069228
0.046266
0.00066221
-0.0076295
-0.026445
0.023305
0.012781
-0.028359
-0.0085862
-0.042391
-0.055147
-0.081617
-0.095968
-0.14061
-0.10936
-0.098838
-0.090865
-0.057061
-0.031229
0.029364
0.059023
0.052645
0.094422
0.087087
0.035742
0.015013
0.051369
0.075925
0.054877
0.059661
0.0060837
0.04818
0.0076782
-0.067903
-0.063758
-0.053871
-0.061206
-0.069498
-0.052277
-0.021661
0.027132
0.030959
0.055196
0.098886
0.085492
0.11451
0.13971
0.1311
0.12536
0.09793
0.24208
0.28098
0.21082
0.23092
0.16044
0.14927
0.10941
0.059342
0.040207
0.0022568
0.0057648
0.008316
-0.033142
-0.072368
-0.078427
-0.12307
-0.15752
-0.13806
-0.13264
-0.10458
-0.074919
-0.091184
-0.070455
-0.025807
-0.023575
-0.081935
0.014694
0.029364
0.026813
-0.03091
0.028726
0.043715
-0.0060349
-0.010819
-0.021661
0.0016189
-0.025807
-0.022618
2.4388e-05
0.0028946
-0.050363
-0.032186
-0.011775
-0.017835
0.01884
0.028407
0.10239
0.095378
0.11898
0.11005
0.079752
0.12344
0.10782
0.044991
0.092189
0.13939
0.11419
0.12025
0.074968
0.062531
-0.0031647
0.021072
0.049774
-0.0018891
0.055515
0.05392
0.067314
0.046585
0.062212
0.10271
0.045947
-0.021024
-0.0076295
0.064444
0.080709
0.015651
-0.0050782
0.022667
-0.014327
-0.047493
-0.097243
-0.069498
-0.069179
-0.04558
-0.080022
-0.054828
-0.029953
0.030002
0.060936
0.025218
0.087725
0.12057
0.13524
0.19839
0.16331
0.097611
0.08613
0.13142
0.13429
0.12823
0.085492
0.056153
0.058385
0.0035324
-0.036969
-0.055785
-0.089589
-0.10777
-0.1454
-0.15943
-0.14859
-0.12435
-0.1336
-0.11989
-0.077152
-0.057061
-0.068541
-0.065033
-0.058336
-0.04558
-0.027721
-0.047812
-0.009224
0.0095917
-0.051958
-0.04845
-0.02517
-0.028359
-0.071411
-0.064077
-0.060887
-0.044623
0.008635
0.056471
0.068271
0.17415
0.18786
0.19105
0.21465
0.19456
0.2188
0.2054
0.19584
0.23697
0.27524
0.20381
0.20732
0.13811
0.13492
0.10973
0.045947
0.01597
0.012143
0.0028946
0.043715
0.040845
0.010867
0.019797
0.01023
0.0070404
-0.0050782
-0.0082673
-0.050044
-0.0031647
0.0070404
-0.03952
-0.022618
-0.026445
-0.016878
-0.031867
-0.048769
-0.054828
-0.048131
-0.048769
-0.061525
-0.029953
-0.045899
-0.055147
-0.053234
-0.033142
-0.078427
-0.06886
-0.062482
-0.069179
-0.080979
-0.06312
-0.067266
-0.059612
-0.024213
-0.0031647
0.050093
0.069228
0.070503
0.077838
0.083898
0.10367
0.16426
0.15884
0.12121
0.15725
0.20891
0.19743
0.15629
0.10271
0.10941
0.13237
0.051688
0.07752
0.21082
0.19296
0.12312
0.15661
0.1193
0.05392
0.070503
0.10048
0.081346
0.05679
0.051369
0.093784
0.048499
-0.0095429
-0.029315
-0.080022
-0.091503
-0.10458
-0.13456
-0.13519
-0.13456
-0.14125
-0.13679
-0.13232
-0.1049
-0.11064
-0.10043
-0.0982
-0.061525
-0.045899
-0.030591
-0.037288
-0.02517
-0.0047593
-0.027402
-0.011775
-0.017197
-0.014008
-0.029634
-0.015602
0.00066221
-0.0041214
0.0051269
0.0041702
-0.0079484
-0.041115
-0.049088
-0.0028458
0.0067215
0.015651
0.062212
0.054558
0.012143
0.097292
0.12886
0.14704
0.18754
0.18276
0.17766
0.19679
0.15597
0.20445
0.23506
0.19233
0.17192
0.16873
0.32053
0.25196
0.2121
0.19424
0.19169
0.16267
0.15342
0.13811
0.14545
0.093465
0.12759
0.037656
0.023305
0.054877
-0.018472
-0.086081
-0.065352
-0.10777
-0.13456
-0.15943
-0.18941
-0.18654
-0.19706
-0.22449
-0.21747
-0.20248
-0.18048
-0.19802
-0.2197
-0.18494
-0.14349
-0.10394
-0.1151
-0.13456
-0.1623
-0.15879
-0.12977
-0.11829
-0.095011
-0.093735
-0.069179
-0.014964
-0.037288
-0.053552
-0.063758
-0.059612
-0.024851
-0.033461
-0.017516
0.028088
-0.0018891
-0.00093234
-0.0044404
0.050412
0.02171
0.055196
0.075925
0.057109
0.06859
0.044034
0.13747
0.21912
0.19934
0.16777
0.1885
0.17542
0.1818
0.20445
0.19424
0.17415
0.18499
0.1464
0.16554
0.11579
0.076244
0.077838
0.064444
-0.00061343
0.014694
0.018202
-0.0082673
0.012781
0.0044891
0.0016189
-0.028359
-0.040477
-0.06599
-0.068222
-0.083849
-0.084806
-0.074601
-0.051001
-0.014008
-0.10809
-0.16772
-0.16039
-0.13169
-0.10777
-0.13711
-0.14859
-0.14125
-0.13679
-0.14859
-0.15401
-0.132
-0.11383
-0.16677
-0.15273
-0.075238
-0.069817
-0.083849
-0.08927
-0.098838
-0.058974
0.017246
0.028726
0.02458
0.058385
0.071779
0.073374
0.072736
0.10399
0.2003
0.1767
0.18691
0.17351
0.19934
0.20604
0.23697
0.2172
0.27365
0.23538
0.20445
0.17032
0.14449
0.14959
0.22358
0.18244
0.12599
0.078476
0.027451
0.032872
0.062531
0.064444
0.066039
0.064125
0.0073593
0.017246
0.023624
-0.00029452
0.0013
-0.0053971
0.023943
0.020435
-0.01337
-0.016559
-0.020067
-0.011456
-0.031229
-0.049407
-0.058974
-0.057698
-0.043985
-0.062482
-0.072049
-0.0864
-0.070136
-0.082573
-0.082254
-0.093416
-0.094054
-0.089589
-0.10171
-0.11446
-0.0982
-0.094054
-0.08927
-0.094054
-0.089908
-0.072368
-0.082573
-0.062482
-0.057061
-0.066309
-0.059612
-0.071411
-0.032823
-0.011137
-0.0031647
-0.050682
-0.013689
-0.022618
0.0131
0.013419
-0.020386
0.01023
0.04818
0.062531
0.091552
0.12536
0.15246
0.25005
0.20891
0.24814
0.26281
0.27811
0.23921
0.26408
0.30618
0.26982
0.29534
0.27716
0.27971
0.23155
0.18754
0.14385
0.086768
0.043715
0.040207
0.0131
0.010548
0.0044891
-0.055785
-0.084487
-0.072687
-0.081298
-0.08353
-0.10394
-0.10649
-0.15273
-0.13456
-0.12658
-0.15337
-0.12307
-0.14189
-0.16517
-0.14986
-0.16836
-0.18973
-0.19834
-0.16932
-0.14954
-0.12882
-0.13934
-0.13456
-0.10585
-0.11383
-0.11893
-0.10936
-0.088314
-0.084487
-0.063758
-0.065671
-0.055147
-0.0076295
-0.00061343
-0.019748
0.010548
0.013738
0.038612
0.025856
0.020754
0.052326
0.040526
0.069866
0.12663
0.078157
0.036699
0.11611
0.16458
0.1346
0.11005
0.1228
0.12249
0.15055
0.18372
0.14672
0.20859
0.17766
0.1228
0.13779
0.13524
0.14768
0.14768
0.16331
0.1413
0.12089
0.10463
0.032872
-0.002208
0.032553
0.086449
0.027451
-0.00029452
-0.0060349
-0.032186
-0.059612
-0.10171
-0.077471
-0.081298
-0.169
-0.18686
-0.1808
-0.18431
-0.2079
-0.18877
-0.20822
-0.20822
-0.20982
-0.1859
-0.20982
-0.21205
-0.1859
-0.17027
-0.17442
-0.13487
-0.10266
-0.095968
-0.095011
-0.085762
-0.079065
-0.085762
-0.090865
-0.096286
-0.03091
-0.01337
-0.020067
0.0057648
0.020754
0.008635
0.024899
0.083579
0.1295
0.14832
0.1059
0.12025
0.14481
0.17383
0.19328
0.2188
0.27811
0.20763
0.22613
0.16139
0.19807
0.16394
0.15884
0.1834
0.2003
0.14098
0.11834
0.14162
0.12312
0.069228
0.041483
0.046585
0.027451
0.019478
0.025218
-0.01911
-0.043347
-0.081617
-0.10362
-0.12276
-0.083849
-0.08353
-0.10394
-0.14636
-0.16007
-0.15305
-0.17155
-0.18207
-0.17219
-0.17346
-0.16485
-0.14859
-0.20982
-0.19419
-0.19929
-0.20727
-0.17665
-0.13392
-0.18749
-0.17314
-0.16421
-0.14093
-0.13169
-0.097881
-0.088633
-0.087357
-0.057698
-0.038564
-0.0015702
0.015651
0.042121
0.10526
0.08613
0.089
0.10718
0.10558
0.097611
0.11834
0.13014
0.11292
0.09187
0.10431
0.097292
0.11547
0.043715
0.03351
0.013738
0.037975
0.058704
-0.029634
-0.019429
0.024899
0.057109
0.064444
0.094422
0.1295
0.17957
0.12153
0.066358
0.096654
0.16522
0.22358
0.17925
0.16012
0.19615
0.14672
0.12695
0.15087
0.1362
0.093784
0.067314
0.025856
-0.0098618
-0.015602
-0.049726
-0.024851
-0.064714
-0.085762
-0.093735
-0.091184
-0.11702
-0.11638
-0.11159
-0.11542
-0.096286
-0.10649
-0.11478
-0.10745
-0.094692
-0.036012
-0.060887
-0.12531
-0.15114
-0.12595
-0.11191
-0.096286
-0.070774
-0.083849
-0.11702
-0.17888
-0.15752
-0.16932
-0.169
-0.13806
-0.12084
-0.11191
-0.12913
-0.055785
-0.058974
-0.080022
-0.11574
-0.084806
-0.04558
0.010548
0.036699
0.012462
0.043715
0.048499
0.052645
0.078795
0.1008
0.10239
0.11515
0.1228
0.15661
0.081028
0.11132
0.1059
0.1311
0.12121
0.10686
0.12536
0.1464
0.13142
0.14736
0.13173
0.1177
0.099843
0.12025
0.13333
0.15725
0.1413
0.10941
0.12312
0.11451
0.12567
0.038612
0.023943
0.024899
-0.0047593
0.0095917
0.0060837
-0.022618
-0.11064
-0.13583
-0.13647
-0.12658
-0.13041
-0.10617
-0.14157
-0.13296
-0.17314
-0.17123
-0.13902
-0.094692
-0.11223
-0.14412
-0.12786
-0.12882
-0.11383
-0.10649
-0.11606
-0.14061
-0.11446
-0.075238
-0.10522
-0.091822
-0.085443
-0.070455
-0.052277
-0.061844
-0.02804
-0.052277
0.0019378
0.033191
0.0067215
0.050412
0.011824
0.023305
0.022667
0.022348
0.024262
0.023943
0.01884
0.0054459
0.031915
0.039888
0.038294
0.011505
0.03638
-0.0028458
-0.0050782
0.048818
0.055196
0.019478
0.025218
0.07752
0.052645
0.11643
0.096335
0.01023
0.0022568
0.072098
0.061574
0.048818
0.082622
0.080071
0.063806
0.059661
0.033829
0.055196
0.017246
-0.028359
-0.018791
-0.040477
-0.043028
-0.030591
-0.047493
-0.056742
-0.10553
-0.11064
-0.10171
-0.093735
-0.10681
-0.069817
-0.050682
-0.023575
-0.03665
-0.078109
-0.078109
-0.067266
-0.039839
-0.030591
-0.011775
-0.033142
-0.014645
-0.014645
-0.041753
-0.080022
-0.043985
-0.041115
-0.035375
-0.043985
-0.037288
-0.03665
-0.02517
0.0003433
-0.00093234
0.041483
-0.038883
-0.030591
-0.012413
-0.041753
-0.021661
0.012781
0.0019378
0.087087
0.11228
0.062212
0.061574
0.069547
0.066677
0.050093
0.079752
0.084536
0.10048
0.069228
0.10526
0.12025
0.057109
-0.033142
-0.050682
0.0044891
-0.015921
-0.043347
-0.071411
-0.070136
-0.071411
-0.078746
-0.11893
-0.095968
-0.10107
-0.094373
-0.04558
-0.04845
-0.026764
-0.026764
-0.047174
-0.034099
-0.043028
-0.02804
0.0051269
0.0044891
-0.005716
-0.036969
-0.033461
-0.034418
-0.04845
-0.057379
-0.091822
-0.092141
-0.084168
-0.059293
-0.074282
-0.09533
-0.12754
-0.10841
-0.072049
-0.083849
-0.076195
-0.096286
-0.091503
-0.079384
-0.062801
-0.023894
-0.056423
-0.064077
-0.024851
-0.02198
-0.010181
0.025537
0.035104
0.0032135
-0.0012513
0.042121
0.031278
0.062531
0.079752
0.069547
0.077201
0.10399
0.071779
0.066995
0.084854
0.10495
0.11483
0.10048
0.07146
0.064125
0.089319
0.085173
0.1193
0.12599
0.073693
0.045629
0.061893
0.05105
0.046904
0.056153
-0.016878
-0.011775
0.017883
-0.015283
-0.043347
-0.025807
-0.055785
-0.040158
-0.066309
-0.086081
-0.092778
-0.11574
-0.11191
-0.11893
-0.13105
-0.096605
-0.075238
-0.15624
-0.15178
-0.16613
-0.17219
-0.20121
-0.19802
-0.21173
-0.21046
-0.13679
-0.10011
-0.16134
-0.16453
-0.13902
-0.13487
-0.10394
-0.032504
-0.023894
0.00098112
0.0013
0.034786
0.062531
0.080071
0.065082
0.078795
0.084854
0.087406
0.073374
0.06285
0.058704
0.06572
0.032234
0.01597
0.028407
0.03351
0.055196
0.064125
0.081984
0.083898
0.079752
0.064444
0.053601
0.077201
0.077838
0.069547
0.072098
0.071779
0.057428
0.099843
0.060617
-0.00029452
-0.0079484
0.044672
0.029683
-0.00061343
-0.01911
-0.03665
-0.011775
0.016608
0.072736
0.019797
-0.0069916
-0.02517
0.03638
0.058704
0.030002
0.0016189
-0.011137
0.039888
0.043396
0.030321
0.031278
-0.0095429
-0.017835
-0.01911
-0.0076295
0.056153
-0.0012513
-0.042391
-0.024851
2.4388e-05
-0.033461
-0.04271
-0.048769
-0.069498
-0.050682
-0.032186
-0.020705
-0.056104
-0.088314
-0.096286
-0.068222
-0.058336
-0.080979
-0.10043
-0.094054
-0.10936
-0.10553
-0.096286
-0.073006
-0.10043
-0.12148
-0.092141
-0.079384
-0.079065
-0.074601
-0.067585
-0.063758
-0.054509
-0.028678
-0.036331
-0.034099
-0.038245
-0.02804
-0.026126
-0.018472
-0.023894
-0.050682
-0.056742
-0.055466
-0.028359
-0.032186
-0.042072
-0.034737
-0.041434
-0.044942
-0.031548
-0.014645
-0.015283
0.0067215
-0.0028458
0.0131
0.026494
0.014694
-0.012732
-0.0050782
0.050093
0.05392
0.036061
0.022029
0.016927
0.019478
0.017883
0.010548
0.023305
0.027132
0.01597
0.013738
0.017564
0.016927
0.0079971
-0.0079484
-0.0089051
0.0016189
0.0019378
-0.017835
0.014056
0.05105
0.056153
0.056153
0.056471
0.044034
0.038294
0.048499
0.044353
0.03638
0.052645
0.066677
0.064444
0.073055
2.4388e-05
0.0041702
-0.0012513
-0.022937
-0.035694
-0.042072
-0.034099
-0.047174
-0.067903
-0.073006
-0.070774
-0.08353
-0.077152
-0.085762
-0.10872
-0.088633
-0.091184
-0.0982
-0.094692
-0.085125
-0.087357
-0.090546
-0.086081
-0.076195
-0.066309
-0.08066
-0.067903
-0.057061
-0.04845
-0.039202
-0.036969
-0.038564
-0.025488
-0.0085862
-0.016878
-0.010819
-0.0073105
-0.0069916
-0.0041214
0.0079971
-0.0044404
-0.016878
0.0013
2.4388e-05
-0.019429
-0.025807
-0.01911
-0.026445
-0.021024
-0.022937
-0.022937
-0.020705
-0.017197
-0.014964
-0.0012513
-0.0079484
0.013738
0.015651
0.01884
0.037975
0.039569
0.046585
0.055515
0.047861
0.038612
0.057747
0.052645
0.059661
0.043396
0.040526
0.046904
0.021072
0.004808
0.016289
0.02171
-0.0085862
-0.026126
-0.028996
-0.031867
-0.038245
-0.051001
-0.067903
-0.044942
-0.036331
-0.044304
-0.053871
-0.059931
-0.058655
-0.053552
-0.030591
-0.036969
-0.042391
-0.041753
-0.039202
-0.030272
-0.035056
-0.039839
-0.047493
-0.028678
-0.028678
-0.024851
-0.027402
-0.020386
-0.017516
-0.018472
-0.02198
0.0032135
-0.010819
-0.022299
-0.022937
-0.02517
-0.023575
-0.021024
-0.011775
-0.014008
0.01884
-0.0044404
-0.009224
0.012781
0.0016189
0.0016189
0.0060837
0.028407
0.042121
0.04531
0.036699
0.042758
0.03064
-0.0066727
0.00066221
0.015332
-0.00029452
0.0025757
-0.0044404
-0.0066727
-0.020067
-0.025488
-0.030272
-0.027721
-0.009224
-0.024532
-0.013689
-0.022299
-0.018791
-0.015921
0.0064026
0.022029
0.019478
-0.0012513
0.0095917
0.03351
0.029045
0.020435
0.038294
0.031915
0.038294
0.056471
0.028726
0.021391
-0.009224
-0.023256
-0.020386
-0.034099
-0.036012
-0.059293
-0.065352
-0.061844
-0.065033
-0.082254
-0.085125
-0.086081
-0.086719
-0.079384
-0.067903
-0.059293
-0.06599
-0.055785
-0.05132
-0.047174
-0.044623
-0.045261
-0.058974
-0.044304
-0.038564
-0.03952
-0.037607
-0.038564
-0.041115
-0.039839
-0.021024
-0.026126
-0.020705
-0.023894
-0.026445
-0.027083
-0.028678
-0.025488
-0.020067
-0.018472
-0.017835
-0.011137
-0.015283
-0.016559
-0.012732
-0.011775
-0.0053971
0.015013
0.0003433
-0.0041214
-0.00093234
0.0022568
0.0038513
0.0070404
0.0070404
-0.0076295
-0.00093234
-0.0041214
0.0041702
0.0076782
0.00098112
-0.002208
-0.00061343
0.018202
0.020754
0.025856
0.035104
0.049774
0.049137
0.044353
0.049137
0.038612
0.012143
0.035423
0.060298
0.075925
0.067952
0.050093
0.037975
0.008316
0.021072
0.043715
0.031278
0.0060837
0.016927
0.0038513
-0.0018891
-0.0015702
-0.014008
-0.025488
-0.015921
-0.02517
-0.04271
-0.040477
-0.062482
-0.074282
-0.066947
-0.048769
-0.061525
-0.091503
-0.087995
-0.057061
-0.067266
-0.082254
-0.077152
-0.093416
-0.080022
-0.062801
-0.049088
-0.04845
-0.047493
-0.039202
-0.041115
-0.027083
-0.015602
-0.017835
-0.032823
-0.021661
-0.01911
-0.015283
-0.015602
-0.020386
-0.031548
-0.017835
-0.017197
-0.018472
-0.021343
-0.02198
-0.023894
-0.020067
-0.010819
-0.0076295
-0.01337
-0.028678
-0.01911
-0.0076295
-0.015283
-0.01337
-0.020705
-0.023256
-0.014327
-0.00093234
-0.0053971
-0.0038025
-0.0018891
0.0013
0.0025757
0.023305
0.014056
0.012143
0.018202
0.022986
0.020754
0.015013
0.0079971
0.0032135
0.015013
-0.0034836
0.0095917
0.008316
-0.0066727
-0.0047593
-0.0053971
-0.014645
0.0022568
0.0028946
-0.0076295
-0.009224
-0.012732
0.00098112
0.012462
-0.00029452
-0.01624
0.0067215
2.4388e-05
-0.005716
-0.0095429
-0.0038025
-0.0060349
-0.018791
0.004808
-0.013689
-0.033142
-0.029315
-0.019429
-0.026764
-0.028996
-0.030591
-0.044942
-0.050044
-0.043347
-0.03091
-0.029315
-0.038564
-0.031229
-0.031229
-0.023575
-0.00029452
-0.028996
-0.038564
-0.026445
-0.022937
-0.021661
-0.024851
-0.029634
-0.036969
-0.031867
-0.034737
-0.026126
-0.03378
-0.038245
-0.033461
-0.03378
-0.027402
-0.01337
-0.020386
-0.029953
-0.025488
-0.022618
-0.021024
-0.020386
-0.017835
-0.035375
-0.018791
-0.018472
-0.014008
-0.017516
-0.018791
-0.014645
-0.013689
-0.0028458
-0.0066727
-0.0044404
-0.009224
-0.0034836
-0.0038025
-0.0066727
-0.0034836
-0.009224
-0.014645
-0.0047593
0.0054459
0.0013
0.0092728
0.023305
0.0070404
0.013419
0.023305
0.011186
0.013738
0.023624
0.025856
0.035104
0.023943
0.012781
0.0060837
0.0089539
-0.0031647
-0.0050782
-0.0073105
-0.0085862
-0.0082673
-0.026126
-0.028359
-0.0066727
-0.014964
-0.025807
-0.01337
-0.025488
-0.029634
-0.020705
-0.022937
-0.041753
-0.02198
-0.012094
-0.016559
-0.019748
-0.026445
-0.01624
-0.02804
-0.013051
-0.01911
-0.023894
-0.031229
-0.035375
-0.033142
-0.032504
-0.033461
-0.038883
-0.052596
-0.045261
-0.034418
-0.03665
-0.038245
-0.038245
-0.038564
-0.035056
-0.014008
-0.027083
-0.03091
-0.027083
-0.024851
-0.023256
-0.024213
-0.023575
-0.03378
-0.027402
-0.028359
-0.019429
-0.02517
-0.026445
-0.023894
-0.023575
-0.019748
-0.0044404
-0.012413
-0.021343
-0.01624
-0.013689
-0.012732
-0.012094
-0.0098618
-0.027402
-0.011137
-0.010181
-0.0073105
-0.010181
-0.01337
-0.0073105
-0.0073105
0.0025757
0.00098112
0.0013
-0.0063538
-0.0012513
-0.00029452
-0.0018891
0.0003433
-0.0085862
-0.017835
-0.0098618
-0.0063538
-0.0085862
-0.011137
-0.009224
-0.009224
-0.009224
0.0095917
-0.0063538
-0.014645
-0.016878
-0.0050782
-0.0053971
-0.015921
-0.014964
-0.026126
-0.022618
-0.025488
-0.018153
-0.020067
-0.023894
-0.024851
-0.032504
-0.032823
-0.011456
-0.017516
-0.023575
-0.020067
-0.021024
-0.021024
-0.018472
-0.02198
-0.03952
-0.024213
-0.017835
-0.016878
-0.025807
-0.027083
-0.022937
-0.018791
-0.011775
-0.012094
-0.0079484
-0.014645
-0.0089051
-0.0079484
-0.0082673
-0.0069916
-0.020386
-0.035375
-0.01337
0.00066221
-0.0034836
-0.010819
-0.018791
-0.018791
-0.017197
-0.00029452
-0.0098618
-0.014008
-0.016878
-0.014964
-0.01337
-0.015921
-0.016559
-0.024851
-0.016878
-0.017197
-0.013689
-0.020386
-0.024851
-0.013051
-0.0089051
-0.009224
0.0070404
-0.00061343
-0.010181
-0.0018891
0.0013
0.00098112
-0.002208
-0.0018891
-0.011775
-0.0098618
-0.024213
-0.016878
-0.0076295
-0.017516
-0.024851
-0.022618
-0.016878
-0.023256
-0.023575
-0.033461
-0.027721
-0.026126
-0.02804
-0.026445
-0.031867
-0.043666
-0.031229
-0.023575
-0.022618
-0.02804
-0.028996
-0.02804
-0.026126
-0.0073105
-0.017516
-0.019429
-0.019429
-0.013689
-0.012732
-0.014327
-0.015602
-0.025488
-0.017835
-0.019429
-0.011456
-0.017197
-0.017516
-0.012094
-0.014008
-0.0098618
0.0095917
0.0013
-0.0079484
-0.0015702
0.00098112
-0.00061343
0.0003433
2.4388e-05
-0.015602
-0.005716
-0.0079484
0.0019378
-0.0105
-0.019429
-0.012732
-0.009224
-0.005716
-0.0082673
-0.0089051
-0.01911
-0.014008
-0.011775
-0.016559
-0.015921
-0.020067
-0.033142
-0.020705
-0.01337
-0.015921
-0.021024
-0.016878
-0.011775
-0.014645
0.0038513
-0.0044404
-0.0044404
-0.0050782
0.0028946
0.0057648
0.0060837
0.0076782
-0.0034836
-0.0047593
-0.0031647
0.0016189
-0.012732
-0.014327
-0.0063538
-0.012094
-0.015283
-0.00061343
-0.014008
-0.025807
-0.024851
-0.021343
-0.02198
-0.020386
-0.023894
-0.038564
-0.024851
-0.024851
-0.020067
-0.023575
-0.024851
-0.020386
-0.019748
-0.013689
-0.0105
-0.0085862
-0.010181
-0.0073105
-0.0063538
-0.005716
-0.0038025
-0.0079484
-0.022299
-0.0073105
-0.002208
-0.0038025
-0.0044404
-0.0053971
-0.013689
-0.012094
0.0041702
-0.0028458
-0.0095429
-0.015602
-0.0105
-0.012413
-0.014327
-0.011137
-0.022937
-0.021024
-0.019429
-0.0085862
-0.016559
-0.015921
-0.014327
-0.013051
-0.009224
0.0092728
0.00098112
-0.010819
-0.010819
-0.0105
-0.011775
-0.0105
-0.011456
-0.027721
-0.014964
-0.020067
-0.018153
-0.025488
-0.027721
-0.025488
-0.025488
-0.018153
-0.013689
-0.015921
-0.024851
-0.01911
-0.017835
-0.01624
-0.015921
-0.021343
-0.037288
-0.020386
-0.013689
-0.015283
-0.01911
-0.022299
-0.021024
-0.017197
-0.0028458
-0.011456
-0.013051
-0.015921
-0.0089051
-0.0066727
-0.012094
-0.0105
-0.018791
-0.019429
-0.014964
-0.0053971
-0.011775
-0.01337
-0.012094
-0.013689
-0.010819
0.0095917
-0.0031647
-0.009224
-0.005716
-0.0038025
-0.0034836
-0.0031647
-0.0018891
-0.015921
-0.0053971
-0.0047593
-0.00029452
-0.0038025
-0.0038025
-0.00093234
-0.005716
-0.002208
0.0035324
0.0013
-0.0069916
-0.0031647
-0.0015702
-0.0069916
-0.0089051
-0.013689
-0.026764
-0.012732
-0.010181
-0.0098618
-0.015921
-0.016559
-0.01624
-0.009224
0.0025757
-0.0050782
-0.0060349
-0.0066727
0.0032135
0.0028946
-0.0025269
-0.0044404
-0.013051
-0.012732
-0.0073105
2.4388e-05
-0.0079484
-0.011456
-0.011456
-0.015283
-0.014008
0.0064026
-0.0085862
-0.015602
-0.011775
-0.0095429
-0.0105
-0.011456
-0.013051
-0.023575
-0.012094
-0.012094
-0.0060349
-0.014645
-0.017197
-0.0082673
-0.011456
-0.0063538
0.0044891
-0.0018891
-0.014008
-0.0047593
-0.0025269
-0.0041214
-0.012732
-0.0066727
-0.019748
-0.00061343
-0.0069916
0.0032135
0.0013
-0.0034836
-0.00029452
0.00098112
0.014375
0.0057648
0.01023
0.0041702
2.4388e-05
-0.0050782
-0.0025269
-0.0038025
-0.018472
-0.027083
-0.026764
-0.017516
-0.028359
-0.036331
-0.032186
-0.037288
-0.038245
-0.019429
-0.030591
-0.03378
-0.031548
-0.029315
-0.023894
-0.023575
-0.021661
-0.032823
-0.02198
-0.023256
-0.012413
-0.020067
-0.021024
-0.01911
-0.023894
-0.015921
-0.0063538
-0.0085862
-0.021661
-0.018153
-0.019748
-0.023575
-0.020386
-0.023256
-0.043666
-0.022937
-0.020386
-0.019748
-0.024213
-0.024213
-0.021343
-0.017835
-0.0069916
-0.012094
-0.0095429
-0.014964
-0.010181
-0.010181
-0.0015702
-0.00061343
-0.013051
-0.016559
-0.011137
-0.00061343
-0.0053971
-0.0044404
-0.005716
-0.005716
-0.0031647
0.01597
-0.0047593
-0.0069916
-0.0044404
-0.0041214
-0.0089051
-0.01337
-0.01337
-0.025488
-0.019748
-0.022299
-0.020067
-0.025488
-0.025488
-0.024213
-0.026764
-0.01911
-0.011137
-0.016878
-0.02517
-0.016878
-0.016559
-0.015921
-0.014645
-0.017516
-0.034418
-0.015921
-0.012094
-0.012094
-0.017197
-0.017197
-0.014327
-0.012094
-0.0028458
-0.0069916
-0.0047593
-0.009224
-0.0060349
-0.005716
-0.0069916
-0.0050782
-0.014327
-0.01624
-0.0098618
-0.0031647
-0.0089051
-0.0098618
-0.0098618
-0.014645
-0.011137
0.013419
-0.002208
-0.0079484
-0.0098618
-0.0069916
-0.0044404
-0.0098618
-0.010819
-0.021661
-0.011775
-0.012094
-0.0085862
-0.015921
-0.017835
-0.013689
-0.016559
-0.011137
0.0028946
-0.002208
-0.012413
-0.0066727
-0.0028458
-0.0015702
0.0025757
-0.002208
-0.023256
-0.0044404
0.0032135
0.0035324
-0.0015702
-0.0018891
0.0013
0.0019378
0.0079971
0.0025757
0.0044891
2.4388e-05
0.0032135
-0.0015702
0.0025757
0.0067215
-0.0047593
-0.012094
-0.0079484
0.00098112
-0.0018891
0.0041702
0.0025757
0.0044891
0.0044891
0.054877
0.042758
0.034467
0.033191
0.037337
0.041802
0.049774
0.047861
0.032553
0.032872
0.022029
0.025537
0.017246
0.010867
-0.0041214
-0.01337
-0.01624
-0.01911
-0.035375
-0.047812
-0.044623
-0.047493
-0.050363
-0.051639
-0.058336
-0.08066
-0.063758
-0.055785
-0.054828
-0.059612
-0.06025
-0.055466
-0.055147
-0.045899
-0.047493
-0.047174
-0.047812
-0.040158
-0.035056
-0.032186
-0.026764
-0.029315
-0.037288
-0.024213
-0.002208
-0.0038025
-0.010181
-0.0047593
-0.0018891
0.008635
0.032553
0.018202
0.017883
0.021072
0.01597
0.020435
0.0057648
0.012781
-0.00061343
-0.0012513
-0.0053971
0.0032135
-0.0089051
-0.017835
-0.021024
-0.02517
-0.021024
-0.009224
-0.017835
-0.03091
-0.027721
-0.022937
-0.019429
-0.017835
-0.018153
-0.043028
-0.026126
-0.028678
-0.020067
-0.020386
-0.014327
-0.0085862
-0.01337
-0.0076295
-0.0105
-0.0031647
-0.0073105
0.00098112
0.0092728
0.0051269
0.004808
0.011186
-0.0015702
0.0016189
0.008316
2.4388e-05
-0.005716
0.0044891
-0.00061343
0.0041702
0.025218
0.0064026
0.0003433
-0.005716
-0.0105
-0.0073105
-0.0085862
-0.0053971
-0.013689
-0.010181
-0.014964
-0.0031647
-0.0089051
-0.01624
-0.019429
-0.01337
-0.0063538
0.0079971
-0.0038025
-0.017516
-0.0085862
-0.014327
-0.0066727
-0.0018891
-0.017197
-0.037607
-0.026126
-0.031548
-0.026764
-0.030591
-0.035375
-0.033461
-0.024851
-0.028996
-0.034099
-0.03378
-0.034737
-0.01624
-0.0031647
-0.0069916
-0.013689
-0.013051
-0.017835
-0.0018891
0.012781
0.015013
0.022986
0.020754
0.01884
0.026813
0.046585
0.02777
0.020435
0.02458
0.02777
0.027451
0.017246
0.01023
0.0057648
0.0067215
-0.0041214
0.0013
-0.0063538
-0.010819
0.0028946
-0.009224
-0.018472
0.0076782
0.0038513
-0.0044404
0.0038513
0.0060837
0.016608
0.018202
0.013738
-0.0012513
0.021391
0.031915
0.039569
0.033829
0.028407
0.029364
0.027451
0.028726
0.027451
0.037018
0.031278
0.01884
0.026494
0.018202
0.024899
0.0131
-0.0079484
-0.00061343
0.0073593
0.0095917
0.0064026
0.0089539
0.012781
0.019159
0.023305
-0.010181
0.0016189
0.00066221
-0.00061343
0.00098112
-0.0034836
-0.015921
-0.024851
-0.017516
-0.0095429
-0.0073105
-0.016559
-0.013689
-0.011137
-0.012094
0.0060837
0.048818
0.026175
0.0131
0.027132
0.035423
0.023305
0.028726
0.019159
-0.0082673
0.012143
0.012462
0.0095917
-0.016878
-0.0047593
-0.00093234
-0.024213
-0.023575
-0.01911
-0.015283
-0.01337
-0.014964
-0.01624
-0.0069916
-0.015283
-0.023256
-0.040158
-0.022618
-0.0082673
-0.015283
-0.0079484
-0.0095429
-0.027721
-0.031229
-0.027402
-0.020705
-0.0079484
-0.021661
-0.023894
-0.026126
-0.018153
-0.023894
-0.010819
-0.019429
-0.02517
-0.015921
-0.0069916
-0.0095429
-0.0025269
0.00066221
0.0064026
0.018521
0.0013
-0.01337
-0.0034836
-0.0025269
-0.0018891
-0.0028458
0.0079971
0.0060837
-0.0095429
-0.0038025
0.017564
0.008316
-0.0028458
0.017564
0.024899
0.030321
0.033191
0.041483
0.039569
0.038612
0.038612
0.042758
0.028726
0.01597
0.023943
0.041483
0.047223
0.04531
0.032872
0.030002
0.021391
0.026175
0.040845
0.035742
0.034786
0.034786
0.028726
0.017246
0.01597
0.0067215
-0.032504
-0.033142
-0.024851
-0.02517
-0.039202
-0.050363
-0.047174
-0.04845
-0.017835
0.0054459
-0.014327
-0.043985
-0.038883
-0.013051
-0.0015702
0.00098112
0.0041702
-0.0085862
-0.00061343
0.0095917
-0.0015702
-0.0089051
0.01884
0.0064026
-0.034737
-0.015283
-0.01337
-0.0105
-0.040158
-0.03665
-0.02517
-0.026126
-0.0041214
-0.009224
-0.027402
-0.040477
-0.0105
-0.0060349
-0.011775
-0.015283
-0.0105
-0.0031647
0.024262
0.012781
0.014694
-0.0012513
0.0032135
0.0038513
0.015651
0.034148
0.023305
-0.0050782
0.0079971
0.02171
-0.0012513
-0.0012513
0.0095917
0.0022568
0.018202
0.040526
0.0054459
-0.011456
-0.015283
-0.018791
-0.014645
-0.009224
-0.002208
-0.015602
-0.013689
-0.013689
0.015332
0.024262
0.0057648
-0.02517
-0.028678
0.0044891
0.013419
0.023305
0.0070404
-0.00029452
0.0019378
-0.0031647
0.012462
-0.017516
-0.034099
-0.0085862
-0.016878
-0.036969
-0.036012
-0.018791
-0.018472
-0.015921
-0.022618
-0.020067
-0.047812
-0.056423
-0.055785
-0.047812
-0.059931
-0.056742
-0.032504
-0.019429
-0.04845
-0.043666
-0.042072
-0.032823
-0.024851
-0.017197
-0.018153
-0.0041214
-0.020705
-0.021343
0.012462
0.026175
0.037975
0.043715
0.031278
-0.013051
0.025856
0.06572
0.052007
0.025856
0.0060837
0.020754
0.02777
0.033191
0.034148
0.018202
-0.0105
-0.019748
-0.010819
-0.010819
-0.04271
-0.037607
-0.075876
-0.06599
-0.03378
-0.037607
-0.044304
-0.022618
-0.020705
-0.016878
-0.015921
-0.032823
-0.0063538
-0.024532
-0.020705
-0.034099
-0.026126
0.0099106
-0.0085862
-0.061206
-0.055466
-0.055785
-0.073325
-0.085443
-0.070774
-0.057061
-0.052596
-0.060887
-0.052277
0.0079971
-0.025488
-0.036969
-0.080022
-0.055466
-0.037288
-0.028996
0.0092728
0.0041702
0.020754
0.00098112
-0.011137
0.0044891
0.013738
-0.012732
-0.019748
-0.043985
-0.028359
-0.036969
-0.02804
-0.010819
-0.0041214
-0.0012513
-0.03952
-0.037607
-0.0089051
-0.044942
-0.047812
-0.052277
-0.038245
-0.015283
0.015332
0.013738
-0.021024
-0.015283
0.017246
0.023305
0.030002
-0.0060349
-0.043985
-0.026126
-0.0034836
0.011505
0.016927
0.0016189
0.023624
0.043396
0.074968
0.10208
0.069228
0.092508
0.086449
0.059979
0.088362
0.10208
0.12982
0.077201
0.10558
0.1193
0.10941
0.052326
0.037975
0.03351
0.021072
-0.0050782
0.020435
-0.021661
-0.033461
-0.037288
-0.01911
-0.032823
-0.058017
-0.10043
-0.12116
-0.099794
-0.071093
-0.071093
-0.081617
-0.099476
-0.087357
-0.069817
-0.10107
-0.13232
-0.14285
-0.093735
-0.06025
-0.039202
-0.050682
-0.048769
-0.024851
-0.00061343
0.0025757
0.022348
-0.017516
0.0013
0.034786
0.031278
0.035104
0.11802
0.079114
0.012781
0.044353
0.01884
-0.023256
-0.032186
-0.0079484
-0.012094
-0.030591
-0.019429
-0.0028458
-0.014008
-0.06312
-0.063439
-0.023894
-0.027083
-0.026126
-0.032823
-0.063758
-0.026445
-0.042391
-0.051958
-0.10266
-0.16677
-0.15879
-0.17251
-0.1505
-0.13679
-0.094692
-0.085125
-0.14859
-0.11032
-0.073963
-0.11351
-0.050044
0.0067215
0.13588
0.12886
0.1126
0.13014
0.1547
0.13397
0.14577
0.16745
0.14258
0.13429
0.13811
0.14736
0.13971
0.10495
0.041164
0.0060837
0.0060837
0.01023
0.017246
0.008316
0.01597
0.011824
0.019797
0.022667
0.028088
0.0064026
0.0060837
0.028726
0.025218
-0.016878
-0.0018891
0.0095917
0.004808
-0.014008
-0.037288
-0.058336
-0.018472
-0.040158
-0.064714
-0.051001
-0.038883
-0.028678
-0.02198
-0.060569
0.015332
0.012462
0.0095917
0.026175
0.070822
0.037018
0.046266
0.057109
0.0131
0.024262
0.0022568
-0.059293
-0.091822
-0.12339
-0.11287
-0.13296
-0.12307
-0.18909
-0.19547
-0.14731
-0.17123
-0.15656
-0.14508
-0.16103
-0.16453
-0.10681
-0.069498
-0.072687
-0.083211
-0.094692
-0.073644
-0.014645
-0.022618
-0.012094
-0.026126
-0.049088
-0.021024
0.0064026
0.034467
0.054877
0.050731
-0.0066727
-0.017197
0.011824
0.043715
0.084854
0.093465
0.076244
0.065082
0.05679
0.070503
0.059023
0.050412
0.014375
0.03638
0.066358
0.038294
0.089957
0.16426
0.11866
0.10144
0.10686
0.10526
0.14066
0.1767
0.2408
0.18627
0.19105
0.18148
0.19552
0.13907
0.11324
0.090276
0.066995
0.023305
0.06285
0.016608
-0.089589
-0.14157
-0.15752
-0.13966
-0.12339
-0.094054
-0.062482
-0.084806
-0.12786
-0.087676
-0.11032
-0.089908
-0.043666
-0.049088
-0.0079484
-0.009224
0.0073593
-0.0038025
0.019159
-0.00029452
-0.023256
-0.068541
-0.077471
-0.071093
-0.088952
-0.048131
-0.04558
-0.055785
-0.058336
-0.071093
-0.087357
-0.062163
-0.071411
-0.1285
-0.11574
-0.085125
-0.071411
-0.048131
-0.02198
-0.01624
-0.01337
0.0051269
0.030002
0.054239
0.042439
0.022986
0.027451
0.075606
0.077838
0.087406
0.11611
0.13078
0.11675
0.12121
0.074012
0.037656
0.025218
0.061574
0.079114
0.13588
0.075925
0.056471
0.077201
0.057747
0.023624
0.02458
0.030959
0.032234
0.025856
0.022348
0.025537
0.090914
0.089957
0.013419
0.03064
0.0067215
-0.05419
-0.069817
-0.067266
-0.11128
-0.1336
-0.10266
-0.088633
-0.057061
-0.060569
-0.13679
-0.21811
-0.15082
-0.12913
-0.094692
-0.062163
-0.024213
-0.00061343
0.032553
0.075287
0.059342
0.062531
0.081028
0.13716
0.084854
0.066995
0.10526
0.063806
0.092189
0.031915
0.011505
0.016608
0.0131
0.020754
0.043077
-0.043347
-0.026445
-0.076195
-0.10553
-0.11893
-0.12754
-0.10522
-0.094373
-0.10872
-0.10011
-0.10362
-0.12116
-0.1741
-0.1623
-0.12435
-0.10171
-0.11925
-0.075876
-0.094054
-0.099794
-0.04271
0.008316
0.019797
0.040207
0.03638
0.071779
0.06572
0.066995
0.092508
0.069866
0.10718
0.093146
0.11324
0.11132
0.080071
0.039888
0.08613
0.069228
0.056471
0.055515
0.072736
0.074649
0.044353
0.080709
0.069547
0.072417
0.12217
0.10718
0.012462
0.048499
0.047223
0.09793
0.041164
0.021391
-0.019748
0.0035324
-0.025807
-0.084487
-0.058336
-0.10394
-0.11542
-0.12212
-0.10809
-0.12563
-0.14476
-0.15911
-0.10872
-0.10522
-0.058017
0.028407
-0.095649
-0.13073
-0.071093
-0.084168
-0.038883
0.033829
0.049137
0.050093
0.027451
-0.013689
0.014375
-0.0034836
0.0095917
0.0028946
0.079114
0.12727
0.070185
0.066995
0.023943
0.023943
0.036699
0.063806
0.046266
0.07752
0.028407
-0.036012
-0.029315
-0.01911
0.03925
0.069547
0.011824
0.013419
-0.012413
0.019478
0.040207
0.0003433
0.043396
0.022667
0.071779
0.10367
0.11388
0.084217
0.06285
0.053601
0.01023
-0.018472
-0.017835
-0.041753
0.030959
0.025856
-0.0089051
0.0079971
-0.053234
-0.08066
-0.087676
-0.074919
-0.038564
-0.0085862
-0.019748
-0.067585
-0.051639
-0.073644
-0.072049
-0.060887
-0.060887
-0.058655
-0.052277
-0.132
-0.1674
-0.17601
-0.20727
-0.18112
-0.18558
-0.14508
-0.11733
-0.085125
-0.056104
-0.064714
-0.070136
-0.058017
-0.046536
0.0038513
0.026494
-0.002208
-0.0076295
0.022986
0.017883
-0.014964
0.055834
0.050412
0.0038513
-0.00061343
0.0057648
0.024899
-0.011456
0.0038513
0.016608
0.048818
0.046266
0.082622
0.099205
0.14864
0.23825
0.22199
0.14066
0.19456
0.19552
0.17224
0.19615
0.17032
0.23092
0.26472
0.21625
0.25834
0.20827
0.078476
0.1126
0.084217
0.057428
0.024262
0.019159
0.04531
-0.010819
-0.095968
-0.11255
-0.20886
-0.22257
-0.14093
-0.12467
-0.087995
-0.094054
-0.13456
-0.16772
-0.17952
-0.1269
-0.11064
-0.12882
-0.10298
-0.04271
-0.040477
-0.084168
-0.10394
-0.078746
-0.051958
-0.058017
-0.068222
-0.053871
-0.022618
-0.064077
-0.014964
-0.022618
-0.036331
-0.053234
-0.053234
-0.054509
-0.023894
-0.010181
-0.0095429
-0.034737
-0.057379
-0.02198
-0.009224
-0.04271
-0.036969
-0.011137
0.0016189
0.032234
0.028088
0.028726
0.08613
0.10813
0.081346
0.062531
0.089319
0.071141
0.10845
0.10048
0.11675
0.11834
0.10845
0.092189
0.12089
0.17925
0.064125
0.063806
0.092189
0.084536
0.043077
0.041802
0.057428
0.026175
0.016608
-0.013689
-0.015921
-0.06025
-0.065033
-0.03091
-0.066309
-0.12212
-0.10713
-0.12786
-0.070455
-0.053234
-0.025807
-0.087357
-0.068541
-0.066309
-0.0025269
0.025218
0.010867
0.020116
0.043715
0.070822
0.041483
-0.029634
0.027451
0.051688
0.028088
0.041802
0.0073593
-0.02517
-0.098519
-0.10777
-0.11319
-0.10522
-0.16581
-0.15465
-0.073325
-0.048131
-0.026445
-0.094054
-0.14954
-0.082573
-0.03952
-0.059293
0.01597
0.0089539
0.004808
0.015651
0.081665
0.047223
0.055515
0.067952
0.097292
0.089319
0.070822
0.043715
0.12791
0.086449
0.071779
0.087725
0.099843
0.12344
0.089319
0.10909
0.12982
0.039888
0.082303
0.066358
0.026813
0.061574
0.047223
-0.031548
-0.0015702
0.033191
0.0095917
0.013738
0.022986
0.0051269
-0.069498
-0.089589
-0.032823
-0.058974
-0.043985
-0.046855
-0.042391
-0.043666
-0.052596
-0.079384
-0.038564
-0.058974
-0.041753
-0.012413
-0.040158
-0.021343
-0.027083
-0.027402
-0.064714
-0.061525
-0.060569
-0.076833
-0.072049
-0.10362
-0.16198
-0.15911
-0.20025
-0.21237
-0.18941
-0.18112
-0.15592
-0.1572
-0.13679
-0.15082
-0.16677
-0.13264
-0.055785
0.035742
0.06859
0.082303
0.10973
0.18085
0.1783
0.19265
0.2003
0.17861
0.20221
0.24559
0.24399
0.17798
0.19615
0.16139
0.064125
0.078157
0.15119
0.11993
0.098568
0.074012
0.072098
0.063487
0.13492
0.14194
0.097292
0.084217
0.082622
0.014056
0.023305
0.012781
0.010548
0.050412
-0.014327
-0.10968
-0.084487
-0.056742
-0.016559
-0.074919
-0.14189
-0.13456
-0.098519
-0.081298
-0.027402
-0.0028458
-0.042391
-0.0044404
0.037337
-0.072687
-0.10617
-0.023575
-0.038245
-0.061525
-0.06599
-0.06025
-0.093735
-0.071093
-0.13296
-0.18718
-0.18941
-0.14954
-0.16103
-0.12626
-0.11829
-0.13519
-0.10553
-0.098838
-0.095968
-0.0864
-0.06312
-0.028678
-0.029953
-0.081298
-0.055147
-0.049407
-0.021024
0.027132
-0.011456
-0.056742
0.0095917
-0.0079484
-0.026126
-0.014964
-0.026445
-0.002208
0.0044891
0.059023
0.092508
0.12057
0.059979
0.10845
0.12631
0.19584
0.25483
0.23219
0.14321
0.14321
0.18308
0.15852
0.13269
0.13237
0.12344
0.060298
0.053601
0.0019378
0.026494
0.043715
-0.051001
-0.05419
-0.053552
-0.022618
-0.028359
-0.05419
-0.061844
-0.070774
-0.005716
0.042439
0.10144
0.099205
0.090914
0.038294
0.033191
0.093146
0.12536
0.061893
0.043715
0.079433
-0.019748
-0.052915
-0.02198
-0.011775
-0.036331
-0.07173
-0.12052
-0.16549
-0.16134
-0.19419
-0.20982
-0.17027
-0.21014
-0.21811
-0.21939
-0.18462
-0.18718
-0.21333
-0.20472
-0.19387
-0.20153
-0.21811
-0.17251
-0.13328
-0.10235
-0.058017
-0.022937
-0.031548
-0.0095429
0.028088
0.07433
0.08039
0.081028
0.096654
0.16554
0.22549
0.19201
0.15183
0.15246
0.19839
0.16873
0.13014
0.15501
0.13397
0.14353
0.24112
0.207
0.14959
0.1767
0.17383
0.13078
0.086449
0.050412
0.14609
0.12918
0.093465
0.040526
-0.0031647
-0.010181
-0.068222
-0.095011
-0.093735
-0.15433
-0.12722
-0.14125
-0.15656
-0.21492
-0.18686
-0.18239
-0.12467
-0.090546
-0.081935
-0.088314
-0.085762
-0.068222
-0.019429
-0.0073105
-0.030272
-0.03665
-0.027721
-0.0053971
0.011824
0.0051269
-0.032504
-0.020067
-0.016559
-0.051001
-0.041434
-0.027721
-0.014327
-0.0053971
-0.016559
-0.040796
-0.036331
-0.070136
-0.044942
0.012781
-0.017197
-0.020705
-0.069179
-0.063758
-0.044304
0.028407
0.0095917
0.028726
0.0131
0.073374
0.12249
0.093146
0.090595
0.1177
0.088362
0.148
0.22422
0.17128
0.049137
0.076244
0.073055
0.043396
0.046585
-0.015921
-0.00061343
0.038612
0.038612
0.049137
-0.0012513
0.028407
0.025856
0.051369
0.096973
0.16012
0.16171
0.14353
0.098568
0.11356
0.095697
0.12759
0.1059
0.081665
0.083579
0.079752
-0.002208
-0.034099
-0.050363
-0.074282
-0.091503
-0.10553
-0.11925
-0.17059
-0.19292
-0.19706
-0.19898
-0.19451
-0.20057
-0.21237
-0.13137
-0.13679
-0.132
-0.10777
-0.10298
-0.055785
-0.031548
-0.040158
-0.016559
0.018202
-0.020386
-0.035694
0.0035324
-0.026126
-0.040158
-0.051001
-0.05419
-0.038883
-0.06312
-0.078427
-0.081935
-0.061525
-0.024851
-0.042072
-0.08066
-0.065033
-0.0038025
-0.0038025
-0.025488
-0.0095429
-0.010819
0.028088
0.052645
0.0038513
0.061893
0.10367
0.17032
0.26918
0.20987
0.22103
0.20413
0.21178
0.21242
0.17542
0.2408
0.23506
0.18563
0.085811
0.12217
0.063806
0.024899
-0.03378
-0.08066
-0.082573
-0.11159
-0.063439
-0.047493
-0.044623
-0.0034836
-0.015921
-0.056742
-0.037926
-0.035694
-0.027083
0.071141
0.026175
-0.070136
-0.01337
-0.046218
-0.038564
-0.044942
-0.1336
-0.12563
-0.15082
-0.17059
-0.10458
-0.024213
-0.067585
-0.096286
-0.10266
-0.10139
-0.13743
-0.13679
-0.14349
-0.09533
-0.093735
-0.16326
-0.1202
-0.083849
-0.098838
-0.15752
-0.15114
-0.13456
-0.099794
-0.087038
-0.051958
0.0057648
0.041483
0.062531
0.11866
0.21433
0.18946
0.17255
0.1582
0.18021
0.19105
0.1413
0.148
0.17989
0.15151
0.073055
0.045629
0.041802
-0.0098618
-0.073963
-0.050363
-0.012732
-0.065352
-0.034737
0.012462
0.037975
0.0095917
0.013419
0.045947
0.081984
0.1244
0.029683
-0.0066727
0.060617
0.081665
-0.042391
-0.0864
-0.061844
-0.081298
-0.064714
-0.095649
-0.083211
-0.12116
-0.14572
-0.11383
-0.088633
-0.054509
-0.052277
-0.064395
-0.056104
-0.024851
-0.041115
0.0073593
-0.028996
-0.010181
-0.0085862
0.037018
0.013419
0.046266
0.078157
0.026813
0.0003433
0.014694
0.034148
0.022348
-0.041753
-0.069817
-0.0098618
-0.010181
0.01023
-0.042391
-0.073006
-0.075238
-0.12467
-0.14412
-0.1757
-0.24299
-0.17761
-0.12403
-0.10649
-0.12595
-0.18335
-0.16995
-0.12371
-0.10809
-0.10553
-0.10649
-0.088633
-0.062801
-0.03091
0.029364
0.051688
0.043396
0.018521
0.070503
0.14003
0.18659
0.1362
0.10303
0.096973
0.12823
0.10239
0.097611
0.13301
0.1008
0.085811
0.063169
0.059661
0.10782
0.1008
0.13843
0.11483
0.074012
0.079114
0.096016
0.047861
0.06572
0.0054459
-0.0098618
-0.010819
-0.012732
-0.050363
-0.040158
-0.090227
-0.13679
-0.15114
-0.12084
-0.086081
-0.10043
-0.1049
-0.094373
-0.082573
-0.05132
-0.048769
-0.094054
-0.053234
-0.036012
0.0022568
-0.057379
-0.088314
0.0022568
-0.037926
-0.047174
-0.031548
-0.041434
-0.064077
-0.056104
-0.062163
0.014694
-0.010181
-0.0063538
-0.0012513
0.021391
0.0131
-0.0028458
0.05392
0.1244
0.18276
0.12153
0.092827
0.094422
0.068271
0.056471
0.094103
-0.0028458
-0.0063538
0.025537
0.067952
0.0022568
-0.069179
-0.13041
-0.16294
-0.13647
-0.12084
-0.066309
-0.02804
-0.017516
-0.067903
-0.10904
-0.045899
-0.002208
0.026175
0.050731
0.10399
0.099205
0.074012
0.1059
0.047542
0.028088
-0.01337
-0.0098618
-0.0066727
0.073055
0.04531
0.026813
0.016927
-0.0038025
0.028407
0.0051269
-0.087038
-0.084487
-0.028359
-0.012094
-0.064714
-0.072049
0.015332
-0.011775
-0.0034836
-0.024213
0.0076782
-0.0044404
-0.024851
-0.033142
-0.051639
-0.064077
-0.049726
-0.0028458
-0.017516
-0.058336
-0.049088
-0.058017
-0.081298
-0.10203
-0.11128
-0.085443
-0.079065
-0.042391
0.004808
-0.028678
-0.016878
0.00098112
-0.0105
-0.050682
-0.041115
0.01023
0.0013
-0.034737
0.0064026
-0.023894
-0.02804
-0.032186
-0.036331
-0.061844
-0.03091
0.074968
0.14066
0.10909
0.10112
0.11802
0.15757
0.14832
0.12472
0.19328
0.27652
0.32212
0.19871
0.19839
0.1464
0.13269
0.10144
0.090595
0.055834
0.0022568
-0.032186
-0.062163
-0.098519
-0.14317
-0.1218
-0.19834
-0.26914
-0.2449
-0.24458
-0.23629
-0.24011
-0.24745
-0.21779
-0.15815
-0.15433
-0.15847
-0.11128
-0.075238
-0.072368
-0.03665
-0.030272
-0.021343
0.026813
0.12823
0.10782
0.0060837
0.038294
0.061574
0.043396
0.07433
0.057109
0.00066221
-0.065352
0.0089539
0.024899
0.031596
-0.043347
-0.065033
-0.077152
-0.08353
-0.070455
-0.068222
-0.081935
-0.084168
-0.04271
-0.041753
-0.035375
0.0051269
0.022986
-0.027083
-0.014327
-0.009224
-0.020386
-0.020067
-0.01337
0.013738
0.1177
0.10622
0.1716
0.1346
0.095697
0.093465
0.10112
0.07146
0.10144
0.16076
0.22964
0.19584
0.20604
0.19265
0.1228
0.096016
0.040526
-0.051958
-0.062163
-0.10235
-0.026764
0.0051269
-0.074282
-0.10968
-0.11446
-0.19802
-0.16326
-0.13966
-0.18686
-0.15592
-0.0982
-0.042391
-0.068222
-0.022299
-0.016878
0.013738
0.039569
0.066039
0.098568
0.022029
0.14672
0.23028
0.12185
0.075925
0.13365
0.09506
0.02458
-0.0041214
0.021391
0.030321
-0.014008
-0.041115
-0.11223
-0.10777
-0.12658
-0.13392
-0.1505
-0.16134
-0.15337
-0.14061
-0.13232
-0.15784
-0.11702
-0.12754
-0.095968
-0.057379
-0.085762
-0.07173
-0.043985
-0.053871
-0.050363
-0.022618
0.013419
0.041483
0.069547
0.066039
0.072736
0.094103
0.11802
0.13333
0.14609
0.15023
0.14034
0.1582
0.11069
0.11611
0.20413
0.19488
0.14321
0.11324
0.12089
0.16394
0.15916
0.10208
0.022029
0.065082
0.096654
0.055834
0.039888
0.0060837
-0.02198
-0.047174
-0.055785
-0.058336
-0.067585
-0.10362
-0.041115
-0.036012
-0.04558
-0.06599
-0.057061
-0.032823
-0.064077
-0.078746
-0.025488
-0.0018891
-0.012094
0.012143
-0.034099
-0.04271
-0.038564
-0.049088
-0.04558
-0.046536
-0.081617
-0.087038
-0.093416
-0.084806
-0.10713
-0.090227
-0.081617
-0.056423
0.010867
-0.009224
-0.027721
0.0095917
0.019159
0.026175
0.046585
0.026175
0.043715
0.11324
0.089319
0.091233
0.16012
0.14959
0.10048
0.044991
0.038612
0.028407
0.029364
0.054877
0.063169
0.032234
0.065082
0.10176
0.07433
0.052326
0.041483
0.019797
0.043396
0.08326
-0.047493
0.0035324
0.071779
0.03638
0.0099106
-0.023575
-0.040158
-0.10713
-0.03378
-0.058974
-0.058655
-0.019429
-0.00029452
-0.0098618
-0.031548
-0.019429
-0.012094
0.035104
0.019159
0.030959
0.061574
0.087087
0.069228
0.05392
0.08039
0.11419
0.082303
0.038294
0.067314
0.067314
0.03638
0.039569
0.039569
0.031915
0.032553
0.010867
-0.015602
-0.035056
-0.041434
-0.029634
-0.024851
-0.015921
-0.0105
-0.0066727
-0.040477
-0.0085862
0.034148
0.034148
0.029045
0.038294
-0.00093234
-0.020705
0.024262
0.055834
-0.0047593
-0.04558
-0.0050782
-0.026126
0.013419
0.026813
0.039569
0.099205
0.1126
0.1413
0.12567
0.10909
0.13014
0.12472
0.070822
0.078795
0.094741
0.12504
0.11611
0.05679
0.0073593
-0.0085862
0.020116
-0.00093234
-0.022937
0.0019378
0.019797
0.030002
0.052645
-0.0082673
0.015651
0.025218
0.10399
0.067633
0.072417
0.046266
0.032872
0.037337
0.015651
0.027132
0.02777
0.083579
0.050412
-0.0089051
0.022029
0.069866
0.060617
0.042439
-0.00029452
0.016608
0.03351
0.0057648
-0.041434
-0.061206
-0.014327
-0.021661
-0.014645
-0.056423
-0.10458
-0.07779
-0.090865
-0.05419
-0.031548
-0.052915
-0.076195
-0.055147
-0.022937
0.040845
0.023624
0.0095917
0.0092728
0.049137
0.099843
0.10909
0.066677
0.13971
0.15055
0.1008
0.12153
0.078795
0.073055
0.084536
0.11898
0.14672
0.11292
0.065401
0.0038513
-0.0095429
-0.0018891
0.032234
0.03925
0.037975
0.042758
0.075925
0.10239
0.091552
0.072417
0.040207
0.042758
0.063487
0.060617
0.038294
0.057747
0.0013
-0.0034836
0.041802
0.078795
0.07433
0.047223
0.023624
0.052645
0.084217
0.066039
0.044991
0.026813
0.030002
0.044672
0.059023
0.025218
0.00066221
-0.034099
-0.031229
-0.0098618
0.0013
-0.03952
-0.049407
-0.045899
-0.10872
-0.047174
-0.079065
-0.05419
0.0003433
-0.03091
-0.10266
-0.052915
-0.040477
-0.032186
-0.023575
-0.050363
-0.055466
-0.043028
-0.0073105
0.023943
0.028088
0.025537
0.040207
0.087087
0.1244
0.044353
0.013738
0.062531
0.053282
0.079752
0.027451
0.021072
0.036699
0.0035324
0.014375
0.039569
-0.002208
0.037337
0.015013
0.010548
0.028088
0.040207
0.12185
0.082941
0.068271
0.11292
0.18244
0.17798
0.12057
0.13971
0.078157
0.040207
0.03925
0.058704
-0.005716
0.028407
0.0089539
0.017246
0.0051269
-0.057061
-0.0982
-0.092778
-0.051001
-0.052915
-0.048131
-0.018791
-0.014008
0.037337
0.047542
0.041164
0.092827
0.10941
0.10877
0.12567
0.13333
0.11547
0.10399
0.081346
0.11962
0.11451
0.1177
0.10495
0.078157
0.085811
0.054877
0.11419
0.13492
0.055196
0.037337
0.15693
0.10399
0.05105
0.020435
-0.0085862
-0.040796
0.0032135
0.019478
-0.031548
-0.068222
-0.048769
-0.081298
-0.14699
-0.16932
-0.1741
-0.1521
-0.10936
-0.13137
-0.12276
-0.13105
-0.1218
-0.084168
-0.085443
-0.063439
-0.019748
-0.053552
-0.042391
0.0131
0.014375
0.011505
0.019159
-0.012094
-0.034099
0.037975
0.073374
0.054239
0.037656
0.020754
0.034786
0.08326
0.096654
0.098249
0.15055
0.14385
0.18818
0.16713
0.15151
0.18978
0.20572
0.18212
0.21465
0.21338
0.18563
0.17192
0.16554
0.16809
0.15246
0.084854
0.020116
0.055834
0.11706
0.057109
0.031278
0.004808
-0.032186
-0.043347
-0.055785
-0.051001
-0.01911
-0.032186
-0.10585
-0.12084
-0.12148
-0.11893
-0.13073
-0.13743
-0.11765
-0.10904
-0.10426
-0.076514
-0.094373
-0.090865
-0.08353
-0.066947
-0.07173
-0.094054
-0.078109
-0.080341
-0.053552
-0.049726
-0.086719
-0.064714
-0.029634
-0.041434
-0.018153
-0.044942
0.0028946
0.066677
0.058066
0.03925
0.041164
0.03925
0.03925
0.09506
0.091552
0.067952
0.10877
0.1649
0.12982
0.14385
0.1547
0.17255
0.14034
0.06285
-0.0050782
0.085173
0.19902
0.17
0.1531
0.10877
0.055834
0.041483
-0.0050782
-0.028678
-0.047493
-0.02198
-0.013689
-0.047812
-0.06025
-0.099157
-0.070136
-0.06312
-0.028678
0.020435
-0.017835
-0.044942
-0.032504
-0.0076295
0.01597
0.014375
0.0067215
-0.0012513
0.03064
-0.054828
0.016289
0.0089539
-0.0034836
-0.024213
-0.053552
-0.081935
-0.073325
-0.048131
-0.065671
-0.036012
-0.06025
-0.058336
-0.038245
-0.020386
-0.045899
-0.044623
-0.028359
-0.032823
-0.018791
-0.021343
0.01023
0.022029
0.0025757
0.012143
0.040845
0.066039
0.12631
0.10271
0.13779
0.15629
0.14226
0.15438
0.12855
0.13046
0.15119
0.17511
0.22007
0.16841
0.16331
0.14449
0.078157
0.023624
0.012143
0.07433
0.051688
0.028407
0.023305
0.077201
0.052007
0.0016189
0.012143
-0.00061343
0.028726
0.040207
0.037975
0.0051269
0.052645
0.020116
-0.050682
0.0003433
-0.017516
-0.03665
-0.049407
-0.084168
-0.12913
-0.094054
-0.077152
-0.10522
-0.11478
-0.11574
-0.10777
-0.12212
-0.12339
-0.1218
-0.076833
-0.055785
-0.055466
-0.099794
-0.095649
-0.05419
-0.042072
-0.056104
-0.063439
-0.050682
-0.023894
-0.034418
-0.031548
-0.043666
-0.026126
-0.010819
-0.043666
-0.018791
-0.0082673
-0.0085862
-0.0060349
0.030002
0.03925
0.079114
0.10239
0.11515
0.14162
0.19488
0.19265
0.19456
0.17319
0.17606
0.18691
0.14034
0.20476
0.24303
0.2424
0.19711
0.17032
0.14385
0.06572
0.1059
0.14449
0.13875
0.1228
0.11196
0.10431
0.073374
0.031915
0.037656
0.050412
-0.025488
-0.026126
0.0019378
-0.072049
-0.095649
-0.11415
-0.1336
-0.17187
-0.14986
-0.15369
-0.17346
-0.19228
-0.16581
-0.18813
-0.14508
-0.16517
-0.16868
-0.15624
-0.14572
-0.14317
-0.1403
-0.12052
-0.14731
-0.14189
-0.15847
-0.13456
-0.085443
-0.042391
-0.032186
-0.03378
-0.071093
-0.031229
-0.017835
-0.0073105
0.023624
0.056153
0.073374
0.050093
0.013738
0.021391
0.069228
0.075925
0.11069
0.14162
0.15374
0.24271
0.1783
0.18627
0.17957
0.19105
0.19934
0.22486
0.22836
0.2542
0.21912
0.1228
0.16267
0.16777
0.23123
0.19041
0.13301
0.09793
0.097611
0.079114
0.12472
0.10526
0.081665
0.040526
0.064444
0.063487
0.078476
-0.015283
-0.024532
-0.087995
-0.11606
-0.088633
-0.10011
-0.13456
-0.17155
-0.17984
-0.17633
-0.11733
-0.13774
-0.169
-0.15305
-0.11255
-0.096286
-0.094054
-0.094373
-0.096286
-0.054509
-0.029634
-0.028996
-0.044304
-0.046218
0.010548
-0.019429
-0.050044
-0.034418
-0.009224
-0.009224
-0.021343
-0.018472
0.0051269
0.0099106
-0.017835
-0.02804
-0.01337
0.037656
0.038294
0.042758
0.067314
0.078795
0.05679
0.10399
0.099843
0.04818
0.057109
0.090595
0.088681
0.087087
0.098568
0.15119
0.16905
0.13205
0.15597
0.15501
0.17479
0.19488
0.20221
0.20158
0.24877
0.23155
0.18531
0.17128
0.14864
0.14194
0.1228
0.09506
0.069547
0.03638
0.037018
-0.0105
-0.026764
-0.078109
-0.11415
-0.12084
-0.076833
-0.10458
-0.10394
-0.14795
-0.13232
-0.11542
-0.12499
-0.13998
-0.14253
-0.13902
-0.13328
-0.13743
-0.12148
-0.13806
-0.15624
-0.12531
-0.093735
-0.077471
-0.087676
-0.074919
-0.072687
-0.07173
-0.11319
-0.091184
-0.057698
-0.041434
-0.067903
-0.062801
-0.040477
-0.042391
-0.043666
-0.02804
-0.034737
-0.027402
0.016608
0.008316
-0.029953
-0.016559
-0.013051
0.011186
0.02171
0.02458
0.032234
0.0060837
0.0057648
0.023305
0.0079971
0.016927
0.039569
0.058704
0.078157
0.085173
0.1193
0.16905
0.18053
0.19392
0.24814
0.22645
0.19647
0.24941
0.25292
0.28354
0.25675
0.22709
0.25898
0.21019
0.16363
0.15342
0.11802
0.083579
0.064763
0.035104
-0.0073105
-0.044942
-0.038564
-0.10553
-0.15879
-0.1202
-0.15018
-0.17378
-0.17314
-0.19292
-0.17474
-0.13711
-0.17857
-0.20631
-0.18749
-0.16932
-0.17219
-0.14636
-0.12307
-0.096286
-0.083211
-0.074601
-0.081617
-0.072687
-0.071411
-0.058655
-0.050363
-0.053871
-0.058017
-0.047493
-0.0044404
-0.027721
-0.011456
-0.038883
-0.040158
-0.0038025
0.016289
-0.022299
-0.032186
-0.014964
-0.033461
0.0070404
-0.0044404
-0.005716
-0.022618
-0.015921
0.0089539
0.047223
0.01023
0.01597
0.03638
0.057747
0.080709
0.059342
0.051688
0.068909
0.1346
0.1531
0.12217
0.12536
0.16076
0.18754
0.14768
0.11802
0.080709
0.06572
0.068271
0.067314
0.19265
0.2054
0.16618
0.10558
0.13588
0.11483
0.078157
0.10239
0.098249
0.090595
0.10686
0.11866
0.043396
0.040845
-0.026126
-0.020705
-0.073325
-0.072368
-0.068222
-0.093097
-0.11893
-0.13934
-0.14317
-0.15401
-0.14604
-0.15401
-0.13551
-0.1049
-0.10522
-0.10075
-0.10426
-0.17538
-0.17059
-0.17123
-0.14444
-0.16581
-0.13009
-0.12435
-0.11415
-0.11319
-0.12244
-0.11574
-0.10266
-0.043028
-0.00093234
-0.022299
0.01884
0.010548
0.01597
0.050093
0.059661
0.08613
0.052326
0.059661
0.075925
0.066358
0.05392
-0.0018891
0.048499
0.037018
0.028088
0.077201
0.12408
0.069547
0.070822
0.09187
0.030321
0.037975
0.061893
0.062531
0.054239
0.07146
0.050093
0.052326
-0.034737
-0.018472
-0.011456
0.028088
0.01597
0.01023
-0.033142
-0.0050782
0.022986
0.031596
0.041164
0.013419
0.0057648
0.040845
0.027451
0.059979
0.061574
-0.0031647
0.0044891
0.015651
0.11483
0.027451
-0.024213
0.012781
0.008316
-0.034099
0.06285
-0.029634
-0.052277
-0.063758
-0.10235
-0.040796
-0.051001
-0.068541
-0.14795
-0.13456
-0.16485
-0.12977
-0.12467
-0.17601
-0.20472
-0.18399
-0.14508
-0.14476
-0.11191
-0.12148
-0.13647
-0.11765
-0.10426
-0.083211
-0.082892
-0.059612
-0.057061
-0.038564
-0.011775
0.0035324
0.017246
0.027451
-0.002208
0.023943
0.10399
0.090595
0.060298
0.059342
0.060617
0.067314
0.097292
0.095378
0.12727
0.11898
0.11069
0.084217
0.10909
0.11834
0.033829
0.06285
0.15501
0.20923
0.1649
0.12567
0.12472
0.15438
0.14066
0.11101
0.099843
0.08039
0.087087
0.029364
0.042439
-0.073325
-0.10362
-0.068541
-0.077152
-0.15401
-0.20854
-0.16517
-0.12052
-0.22513
-0.23884
-0.2905
-0.26021
-0.22353
-0.16995
-0.1556
-0.086719
-0.074282
-0.12499
-0.14125
-0.11096
-0.1033
-0.10809
-0.06312
-0.017197
0.01597
0.010548
0.008635
0.0019378
0.008316
-0.0047593
0.066358
0.084854
0.013419
-0.011456
0.036699
0.0041702
-0.002208
0.029683
0.028088
0.016927
-0.002208
-0.009224
-0.0082673
0.0051269
0.026813
0.023624
0.058385
0.047542
0.034467
0.088681
0.066358
0.072736
0.09793
0.067314
0.064444
0.088681
0.1228
0.1649
0.070185
-0.028678
0.060936
0.037656
0.049455
0.083898
0.093784
0.13173
0.13779
0.024899
-0.081617
-0.066628
-0.032823
-0.017516
-0.035375
0.026175
0.043077
-0.061206
-0.12244
-0.1639
-0.13009
-0.16549
-0.19866
-0.17378
-0.18112
-0.13137
-0.12339
-0.18239
-0.13009
-0.13519
-0.1454
-0.15433
-0.10362
-0.087676
-0.066947
-0.053871
-0.045261
-0.037288
0.014056
0.057109
0.10303
0.049137
0.023624
0.044034
0.030321
0.049137
0.070503
0.043715
-0.024213
0.0022568
0.018202
-0.020386
-0.038245
-0.038564
-0.037607
-0.051639
-0.010181
-0.035375
-0.088633
-0.074919
-0.054828
-0.073644
-0.039202
0.0095917
0.010867
0.047542
0.052326
0.017246
0.040845
0.057428
0.046904
0.059661
0.075606
0.12567
0.13684
0.14321
0.086449
0.061893
0.081984
0.11292
0.061893
0.070503
0.096016
0.051688
0.020754
0.020754
0.047223
0.061255
0.0070404
-0.020705
0.043396
-0.015283
-0.032186
0.021391
-0.0044404
-0.039202
-0.087676
-0.10968
-0.12116
-0.11638
-0.10649
-0.085125
-0.070774
-0.06312
-0.04845
-0.10617
-0.16581
-0.12595
-0.046855
-0.036969
-0.016878
0.0016189
-0.0044404
-0.009224
-0.043028
-0.011775
0.050731
-0.0073105
2.4388e-05
0.039569
0.0013
-0.013689
0.021072
0.049137
-0.018791
-0.022937
-0.013689
-0.02517
-0.046855
-0.058017
0.0025757
-0.059293
-0.0095429
-0.056423
-0.10043
-0.12658
-0.11989
-0.10649
-0.095649
-0.1572
-0.12052
-0.058974
-0.045261
-0.078427
-0.10553
-0.038564
-0.020705
-0.014008
-0.035056
-0.002208
0.039888
0.051369
0.054239
0.093465
0.10048
0.10176
0.10941
0.094741
0.10941
0.11228
0.066358
0.055515
0.049774
0.094741
0.064444
0.014694
0.036061
0.019797
-0.011137
-0.014327
0.0032135
0.0025757
-0.01624
-0.013051
-0.036012
-0.047493
-0.038245
-0.028996
-0.024213
-0.026126
-0.005716
-0.027721
-0.017197
-0.040796
-0.03378
-0.0012513
0.043396
0.034467
0.049137
0.04818
0.058704
0.059661
0.04818
0.064444
0.050412
0.073693
0.089319
0.071779
-0.00093234
0.051369
0.033191
0.0073593
-0.039839
-0.044942
-0.0105
0.036699
0.019159
-0.08066
-0.073644
-0.057698
-0.079703
-0.058974
-0.04558
-0.09533
-0.15784
-0.16294
-0.060569
-0.11096
-0.12307
-0.14093
-0.14954
-0.11925
-0.10968
-0.069179
-0.073325
-0.10968
-0.092778
-0.067585
-0.015283
-0.023256
-0.035694
0.0092728
0.036699
0.03064
0.015332
0.019478
0.032234
0.02458
0.029683
0.040207
0.032553
0.026813
0.023305
0.015013
0.016608
0.019797
0.0019378
-0.0095429
-0.0098618
0.00066221
-0.026764
-0.0044404
-0.0038025
-0.020705
-0.026445
-0.021024
-0.0034836
-0.0063538
-0.0098618
-0.017197
-0.0063538
-0.0069916
0.00098112
0.00098112
-0.0066727
0.0057648
0.0076782
0.016289
0.00098112
-0.002208
0.010548
0.0038513
0.021072
0.072098
0.057109
0.051369
0.042121
0.083579
0.092508
0.044353
0.04818
0.045947
0.09187
0.07146
0.055515
0.061255
0.093146
0.08613
0.068271
0.048499
0.050731
0.055515
0.024899
-0.012413
-0.038245
-0.049088
-0.034418
-0.0038025
-0.040158
-0.018472
-0.051639
-0.049407
-0.055147
-0.065671
-0.093735
-0.084487
-0.03665
-0.030591
-0.035056
-0.060887
-0.077471
-0.059293
-0.053234
-0.058655
-0.084168
-0.11765
-0.10298
-0.096605
-0.098519
-0.08066
-0.099157
-0.13392
-0.11606
-0.072368
-0.058017
-0.06886
-0.076514
-0.063439
-0.051639
-0.048131
-0.04271
-0.043028
-0.032504
-0.028996
-0.02198
-0.029953
-0.022299
-0.031229
-0.033461
-0.019748
0.00098112
0.0076782
-0.00093234
-0.0015702
-0.0025269
-0.0034836
0.0022568
0.0131
-0.0038025
0.021391
0.028407
0.03638
0.044034
0.040845
0.051688
0.055515
0.072417
0.083898
0.087087
0.088362
0.096654
0.098249
0.08039
0.066039
0.09506
0.098568
0.073374
0.08326
0.059979
0.069866
0.065401
0.061255
0.053601
0.051369
0.040526
0.037656
0.036699
0.024899
-0.00061343
-0.018472
0.0019378
0.008635
-0.0025269
-0.028359
-0.0073105
-0.029953
-0.069498
-0.069179
-0.071411
-0.072049
-0.058655
-0.065033
-0.073006
-0.066309
-0.053871
-0.065352
-0.084168
-0.090546
-0.10426
-0.087676
-0.095011
-0.058017
-0.056104
-0.080022
-0.082573
-0.083849
-0.053234
-0.041434
-0.055147
-0.078427
-0.069179
-0.046855
-0.043666
-0.045261
-0.049407
-0.064077
-0.046218
-0.019748
-0.009224
-0.025807
-0.04271
-0.047812
-0.033461
0.0073593
-0.0018891
-0.010181
-0.0047593
0.0092728
0.011824
0.017246
0.008635
-0.002208
0.0095917
0.028407
0.048499
0.041802
0.035423
0.037975
0.065401
0.06572
0.078476
0.067314
0.050731
0.064125
0.054877
0.049137
0.085173
0.081028
0.039888
0.049137
0.050412
0.047223
0.051688
0.063487
0.049455
0.055834
0.054558
0.034786
0.032234
0.045629
0.02458
0.028407
0.028726
0.0003433
-0.0098618
-0.025488
0.01023
-0.027402
-0.027083
-0.037607
-0.054828
-0.057698
-0.049088
-0.034418
-0.046218
-0.05132
-0.053234
-0.052915
-0.080341
-0.081617
-0.071093
-0.072049
-0.061844
-0.068541
-0.059293
-0.067585
-0.053234
-0.04558
-0.064077
-0.053871
-0.029634
-0.046855
-0.036969
-0.026445
-0.012094
-0.014008
-0.0089051
-0.0069916
-0.031867
-0.016559
-0.017197
-0.011775
-0.018153
-0.014964
-0.014008
-0.017197
-0.0047593
-0.015283
-0.014645
-0.014964
-0.01911
-0.029634
-0.021024
-0.02198
-0.030591
-0.041753
-0.030591
-0.02198
-0.022618
-0.020705
-0.018472
-0.019748
-0.011775
0.0079971
0.00098112
0.0073593
0.023305
0.030002
0.024899
0.03638
0.059023
0.045947
0.03925
0.047223
0.077201
0.082941
0.071779
0.081665
0.089319
0.096335
0.079114
0.033829
0.03351
0.064444
0.049137
0.031915
0.058385
0.039569
-0.0053971
-0.016559
-0.013051
-0.030272
-0.071411
-0.047812
-0.042391
-0.048131
-0.053234
-0.064395
-0.059931
-0.075876
-0.081935
-0.085762
-0.08066
-0.072687
-0.075876
-0.093416
-0.073963
-0.056423
-0.051639
-0.05419
-0.052915
-0.04845
-0.039202
-0.019748
-0.023894
-0.018791
-0.018153
-0.018153
-0.024532
-0.017197
-0.0069916
-0.020705
-0.019429
-0.011137
-0.0060349
-0.015283
-0.017516
-0.01337
-0.017197
-0.0095429
0.01023
0.0003433
-0.0085862
-0.0044404
-0.00061343
0.0003433
2.4388e-05
-0.00029452
-0.014645
-0.00061343
-0.0012513
-0.002208
-0.0066727
-0.005716
-0.0095429
-0.010181
0.0019378
0.0038513
0.0016189
-0.00029452
0.0067215
0.0057648
0.0079971
0.011824
0.013419
-0.0031647
0.012462
0.022348
0.025856
0.023943
0.018202
0.018521
0.019797
0.052963
0.038612
0.035104
0.032234
0.03351
0.026175
0.022348
0.0095917
0.0057648
0.024899
0.042758
0.021391
0.0079971
0.0054459
-0.0047593
0.0099106
0.029364
0.011186
-0.015283
-0.010819
-0.00093234
-0.00093234
-0.012094
-0.015283
-0.028678
-0.039839
-0.026126
-0.04271
-0.036969
-0.041115
-0.048769
-0.053871
-0.052596
-0.050682
-0.050682
-0.047812
-0.057698
-0.050363
-0.057698
-0.054828
-0.052596
-0.056742
-0.071093
-0.055466
-0.046855
-0.047812
-0.046855
-0.043028
-0.044304
-0.04271
-0.02517
-0.028359
-0.027083
-0.027721
-0.018153
-0.015283
-0.015921
-0.016559
-0.02198
-0.019748
-0.015921
-0.009224
-0.014008
-0.0031647
-0.0066727
-0.0095429
-0.0063538
0.015013
0.0028946
-0.0047593
-0.002208
2.4388e-05
0.00066221
0.0013
-0.00029452
-0.013689
-0.0031647
-0.0012513
0.0025757
-0.0038025
-0.0063538
-0.0018891
-0.0028458
0.0076782
0.021072
0.022029
0.0092728
0.012143
0.011505
0.013419
0.019478
0.015651
-0.00029452
0.012462
0.022348
0.023943
0.011186
0.0051269
0.0067215
0.0067215
0.040526
0.035742
0.02777
0.015332
0.016608
0.023305
0.027132
0.027451
0.02171
0.021072
0.01023
0.013738
0.012143
-0.027721
-0.026764
-0.011456
-0.022937
-0.0018891
-0.016878
-0.017516
-0.026445
-0.034737
-0.041434
-0.03091
-0.024213
-0.041434
-0.028996
-0.01624
-0.010819
-0.01911
-0.023575
-0.0085862
-0.010819
-0.018472
-0.0047593
-0.011456
-0.023575
-0.0105
-0.012413
-0.013689
-0.014645
-0.020386
-0.03952
-0.027402
-0.017516
-0.01911
-0.029634
-0.028678
-0.029634
-0.031229
-0.014964
-0.018153
-0.021024
-0.023575
-0.017835
-0.014645
-0.015921
-0.012094
-0.022299
-0.025488
-0.014964
-0.0034836
-0.0044404
-0.0012513
-0.0073105
-0.012094
-0.0044404
0.015013
0.0038513
0.0003433
0.0025757
-0.00029452
0.0028946
0.0022568
-0.0069916
-0.022299
-0.0047593
-0.0076295
-0.0044404
-0.011456
-0.014645
-0.010181
-0.010181
-0.0018891
0.0067215
-0.00061343
-0.015602
-0.0073105
-0.00093234
0.00066221
0.0038513
-0.0018891
-0.024851
-0.0031647
-0.0025269
0.0013
-0.0060349
-0.012413
-0.011775
-0.0098618
-0.0053971
-0.014645
-0.0060349
-0.0095429
-0.0082673
-0.013051
-0.015283
-0.014645
-0.024532
-0.029315
-0.022618
-0.014645
-0.018153
-0.021661
-0.020705
-0.021343
-0.018791
0.0060837
-0.0031647
-0.010819
-0.0089051
-0.0044404
-0.0015702
0.0025757
0.0038513
-0.010819
-0.00061343
-0.00029452
0.0051269
-0.002208
-0.00029452
0.0003433
-0.0089051
-0.005716
0.014375
0.0016189
-0.010819
-0.0069916
-0.0085862
-0.009224
-0.0066727
-0.0031647
-0.021024
-0.011137
-0.0082673
-0.0047593
-0.0066727
-0.0076295
-0.0044404
0.00098112
0.0092728
0.0038513
0.0025757
-0.010181
0.0019378
-0.00061343
0.0095917
0.015332
-0.00093234
-0.0089051
-0.0018891
0.0073593
0.00066221
0.0003433
0.0038513
0.008635
0.0079971
0.022348
0.0057648
0.0070404
-0.0069916
0.0019378
-0.0015702
0.0032135
-0.002208
-0.016559
-0.0076295
-0.013689
-0.013689
-0.0044404
-0.0069916
-0.014645
-0.014645
-0.011775
0.0025757
-0.0031647
-0.010819
-0.009224
-0.0079484
-0.0105
-0.005716
-0.018472
-0.040158
-0.02804
-0.020386
-0.015921
-0.026126
-0.031548
-0.03091
-0.02804
-0.020386
-0.025488
-0.028359
-0.03665
-0.028678
-0.024213
-0.023575
-0.026126
-0.032823
-0.041753
-0.031548
-0.020386
-0.022937
-0.023894
-0.023256
-0.025807
-0.022618
-0.0034836
-0.012413
-0.011456
-0.012732
-0.012094
-0.0085862
-0.0105
-0.010819
-0.020067
-0.0073105
-0.0095429
-0.0018891
-0.0063538
-0.011137
-0.01337
-0.010819
-0.0050782
0.011186
0.0051269
-0.010181
-0.0079484
-0.0069916
-0.0031647
-0.0028458
-0.005716
-0.023575
-0.0095429
-0.0073105
-0.0047593
-0.010819
-0.010819
-0.014327
-0.0105
0.00098112
-0.00061343
-0.002208
-0.0098618
-0.005716
-0.0053971
-0.0047593
-0.005716
-0.012094
-0.024213
-0.012413
-0.0044404
-0.0066727
-0.0066727
-0.0082673
-0.0105
-0.0069916
0.0089539
0.00098112
-0.0041214
-0.0089051
-0.0041214
-0.0018891
-0.00061343
-0.00093234
-0.014327
-0.012094
-0.012413
-0.0044404
-0.011775
-0.013051
-0.0105
-0.012094
-0.0089051
0.0051269
-0.0047593
-0.012413
-0.0069916
-0.0031647
-0.0015702
2.4388e-05
-0.0034836
-0.021661
-0.011775
-0.0073105
-0.0025269
-0.0095429
-0.0098618
-0.0066727
-0.0095429
-0.00029452
0.0016189
-0.0031647
-0.0095429
-0.0060349
-0.0076295
-0.0085862
-0.0044404
-0.011137
-0.022937
-0.012094
-0.0063538
-0.01624
-0.0098618
-0.0047593
-0.0053971
-0.010819
0.0022568
-0.015283
-0.01624
-0.011137
0.0019378
-0.002208
-0.0047593
-0.0085862
-0.02198
-0.016559
-0.012732
-0.0069916
-0.014008
-0.015602
-0.01624
-0.019748
-0.01337
0.0028946
-0.0076295
-0.017516
-0.012413
-0.014645
-0.014008
-0.012732
-0.013689
-0.031229
-0.017516
-0.014008
-0.01337
-0.018153
-0.01624
-0.015921
-0.016559
-0.0076295
-0.005716
-0.0095429
-0.01624
-0.013689
-0.009224
-0.009224
-0.011137
-0.017197
-0.027721
-0.017197
-0.013051
-0.014327
-0.012732
-0.012413
-0.013689
-0.01337
0.0003433
-0.0105
-0.011456
-0.0066727
-0.00061343
0.0032135
0.0016189
-0.0034836
-0.018153
-0.013051
-0.0050782
0.0054459
-0.0015702
-0.0041214
-0.00061343
-0.0044404
-0.0031647
0.014375
-0.0038025
-0.0105
-0.0060349
-0.00061343
2.4388e-05
-0.00029452
-0.0066727
-0.023256
-0.012094
-0.0095429
-0.0085862
-0.01337
-0.015283
-0.014327
-0.017516
-0.0047593
-0.0085862
-0.014964
-0.019748
-0.014645
-0.014327
-0.017835
-0.01911
-0.024532
-0.040158
-0.026445
-0.017197
-0.017835
-0.019429
-0.022618
-0.023256
-0.017835
-0.0031647
-0.013051
-0.014008
-0.011775
-0.0063538
-0.0063538
-0.0076295
-0.0060349
-0.018791
-0.011456
-0.009224
-0.00029452
-0.0066727
-0.011137
-0.0066727
-0.012413
-0.012094
0.008316
0.00098112
-0.0098618
-0.0098618
-0.0082673
-0.0041214
-0.0031647
-0.0034836
-0.021343
-0.0060349
-0.009224
-0.0034836
-0.0085862
-0.0105
-0.0044404
-0.0038025
0.0095917
0.0067215
0.0022568
2.4388e-05
-0.0069916
-0.014645
-0.013051
-0.015921
-0.020067
-0.03378
-0.022937
-0.01911
-0.024213
-0.032504
-0.03665
-0.036969
-0.035056
-0.015602
-0.026445
-0.022299
-0.029315
-0.023575
-0.01624
-0.021661
-0.021024
-0.030591
-0.026764
-0.017197
-0.009224
-0.014645
-0.016878
-0.014645
-0.014964
-0.010819
0.0019378
-0.0047593
-0.01337
-0.010181
-0.0063538
-0.0085862
-0.014645
-0.019748
-0.030272
-0.019429
-0.021661
-0.020067
-0.026764
-0.033461
-0.030272
-0.026764
-0.021343
-0.017835
-0.021343
-0.02804
-0.020705
-0.023575
-0.020705
-0.017516
-0.025807
-0.041115
-0.024213
-0.015921
-0.016559
-0.022618
-0.02198
-0.018472
-0.018791
-0.0044404
-0.0098618
-0.0073105
-0.0098618
-0.0047593
-0.0063538
-0.0041214
-0.0038025
-0.0105
-0.0082673
-0.009224
-0.0025269
-0.0034836
-0.0018891
-0.00093234
-0.0044404
-0.0060349
0.012781
0.0038513
0.0038513
-0.0012513
-0.0012513
0.0028946
-0.002208
-0.0012513
-0.015283
0.017246
0.011824
0.0073593
-0.0015702
0.0016189
0.008635
0.012143
0.017564
0.017246
0.012143
0.0041702
0.0089539
0.00098112
-0.00029452
2.4388e-05
-0.0095429
-0.032823
-0.018791
-0.012094
-0.019429
-0.024532
-0.028678
-0.023256
-0.022937
-0.013051
-0.023894
-0.020386
-0.020067
-0.014645
-0.016559
-0.012413
-0.013051
-0.021661
-0.025807
-0.019429
-0.0105
-0.012413
-0.01337
-0.017835
-0.015283
-0.0038025
0.0070404
-0.0095429
-0.013689
-0.0105
-0.0085862
-0.0105
-0.005716
-0.010819
-0.02804
-0.01624
-0.010181
-0.0105
-0.023256
-0.027721
-0.021661
-0.020386
-0.014327
-0.011775
-0.014645
-0.026764
-0.021024
-0.017835
-0.020705
-0.023575
-0.028996
-0.047812
-0.028996
-0.022299
-0.022937
-0.026764
-0.029315
-0.027402
-0.026126
-0.014645
-0.020705
-0.018153
-0.022299
-0.017197
-0.011775
-0.013689
-0.013689
-0.022937
-0.027402
-0.018472
-0.0060349
-0.009224
-0.01337
-0.015602
-0.013051
-0.0089051
0.0131
-0.00029452
-0.0053971
-0.0012513
-0.00061343
-0.0034836
-0.0076295
-0.0089051
-0.015921
-0.0044404
-0.0063538
-0.0066727
-0.014327
-0.017516
-0.011775
-0.014645
-0.0095429
0.00098112
-0.0012513
-0.011456
-0.0050782
0.0064026
0.017883
0.014056
0.008635
-0.0076295
0.0067215
0.017883
0.018202
0.013419
0.014694
0.0131
0.0089539
0.021072
0.010867
0.0067215
-0.0034836
0.008316
0.015013
0.012143
0.0099106
-0.0031647
-0.016878
-0.0069916
0.0025757
0.0060837
0.0070404
-0.0018891
-0.00029452
-0.005716
0.010867
-0.0034836
-0.020067
-0.014008
-0.015921
-0.021024
-0.024213
-0.027083
-0.035375
-0.034737
-0.036969
-0.031867
-0.035375
-0.035056
-0.031867
-0.034099
-0.028996
-0.017516
-0.021661
-0.033461
-0.02517
-0.023575
-0.025488
-0.022937
-0.02517
-0.043347
-0.028996
-0.024851
-0.021343
-0.025488
-0.022299
-0.021024
-0.017835
-0.0041214
-0.0098618
-0.0076295
-0.0073105
0.004808
0.00098112
0.00066221
-0.00061343
-0.011137
-0.012413
-0.0038025
0.0016189
-0.0044404
-0.0095429
-0.011456
-0.0079484
-0.012732
0.0038513
-0.0047593
-0.012094
-0.013051
-0.0105
-0.010819
-0.012094
-0.011456
-0.022618
-0.013051
-0.014008
-0.0085862
-0.012732
-0.012413
-0.0105
-0.010181
-0.0076295
0.0035324
0.00066221
-0.010819
-0.0050782
-0.002208
-0.00061343
-0.00093234
-0.0063538
-0.022618
-0.011137
-0.0012513
-0.002208
-0.011775
-0.014964
-0.0105
-0.0085862
0.0025757
-0.0018891
-0.005716
-0.013051
-0.0069916
-0.0012513
-0.0050782
-0.0047593
-0.014645
-0.023575
-0.019748
-0.0050782
-0.0050782
-0.010181
-0.0105
-0.012732
-0.010181
0.017883
0.0067215
-0.002208
-0.00061343
0.0057648
0.011824
0.014375
0.011186
-0.0038025
0.008316
0.0060837
0.016927
0.0032135
-0.0012513
-0.00061343
-0.0038025
0.0003433
0.01597
0.0022568
-0.011775
-0.010181
-0.0076295
-0.011456
-0.0098618
-0.014645
-0.032823
-0.017835
-0.015283
-0.014327
-0.020067
-0.021024
-0.018791
-0.018153
-0.0063538
-0.012094
-0.011775
-0.012413
-0.0047593
-0.0047593
-0.0060349
-0.0034836
-0.013689
-0.023894
-0.012094
-0.0015702
-0.0069916
-0.0073105
-0.014964
-0.012413
-0.0095429
0.008635
-0.0041214
-0.0098618
-0.011137
-0.0089051
-0.011775
-0.0098618
-0.0050782
-0.020705
-0.012094
-0.011137
-0.0060349
-0.01337
-0.013051
-0.0095429
-0.0082673
-0.0034836
0.0092728
-0.0012513
-0.009224
2.4388e-05
0.0016189
0.0019378
0.0016189
-0.0012513
-0.019748
-0.0015702
2.4388e-05
0.0025757
0.0057648
-0.00061343
0.00066221
2.4388e-05
0.010548
0.008635
0.0013
-0.002208
0.0067215
0.0092728
0.0022568
0.0003433
-0.0073105
-0.015602
-0.0089051
-0.0018891
-0.0079484
-0.019429
-0.015283
-0.014645
-0.0095429
0.01597
0.0019378
-0.0044404
-0.0060349
-0.00061343
0.0013
0.0003433
0.0035324
-0.0050782
-0.00061343
-0.00061343
0.0044891
0.0028946
-0.002208
0.00066221
-0.0047593
-0.0018891
0.013738
-0.00093234
-0.012094
-0.0066727
-0.0041214
-0.0047593
-0.0098618
-0.013051
-0.028678
-0.016559
-0.014645
-0.015602
-0.019748
-0.02198
-0.018791
-0.020705
-0.014645
-0.0076295
-0.009224
-0.018153
-0.0069916
-0.0060349
-0.0079484
-0.0012513
-0.010181
-0.022937
-0.012094
0.0032135
0.00098112
-0.0095429
-0.012413
-0.010819
-0.0098618
0.0032135
-0.0060349
-0.0063538
-0.012413
-0.0079484
-0.011775
-0.015921
-0.011775
-0.021343
-0.018791
-0.016559
-0.009224
-0.015602
-0.016878
-0.013051
-0.015283
-0.0105
0.0095917
0.0022568
-0.0041214
2.4388e-05
-0.0031647
-0.005716
0.0028946
0.0060837
-0.013689
0.0032135
0.0079971
0.010548
-0.00093234
-0.0031647
0.0032135
-0.0047593
-0.0012513
0.008316
0.0057648
-0.00093234
2.4388e-05
-0.0041214
-0.011775
-0.009224
-0.014008
-0.028359
-0.01624
-0.0089051
-0.011775
-0.017516
-0.015921
-0.014645
-0.0098618
0.011186
-0.0015702
-0.0031647
-0.0073105
-0.0028458
0.0057648
-0.0031647
0.0028946
0.0003433
0.0019378
0.0076782
0.0038513
0.0013
-0.0034836
-0.0044404
-0.002208
-0.0041214
0.0044891
-0.0076295
-0.014008
-0.015283
-0.016878
-0.019429
-0.025488
-0.035056
-0.049407
-0.037607
-0.039202
-0.036331
-0.03952
-0.040158
-0.03091
-0.031548
-0.02198
-0.017197
-0.016559
-0.014008
-0.0025269
-0.0012513
-0.002208
0.0003433
-0.0098618
-0.025488
-0.0095429
0.0092728
0.0073593
-0.0012513
-0.0050782
-0.0079484
-0.005716
0.008635
0.0028946
-0.00029452
-0.00061343
-0.0050782
-0.0085862
-0.0073105
-0.0085862
-0.009224
-0.009224
-0.0079484
0.0057648
-0.00061343
-0.011137
-0.0095429
-0.009224
-0.0038025
0.02171
0.026494
0.016927
0.011186
0.018202
0.012143
0.0041702
0.0131
0.0041702
0.0095917
0.0064026
0.008316
-0.0073105
-0.0066727
-0.010819
-0.015602
0.012781
0.014375
0.0079971
-0.0034836
-0.0076295
-0.0012513
-0.0047593
-0.00029452
-0.0028458
-0.016559
-0.0085862
-0.0041214
-0.0034836
-0.0073105
-0.0079484
-0.0018891
-0.0082673
0.0025757
-0.0082673
-0.0047593
-0.0089051
-0.0060349
-0.0015702
0.00066221
0.0013
-0.014964
-0.013689
-0.009224
-0.00029452
-0.012732
-0.017835
-0.0031647
-0.0098618
-0.017197
0.01023
-0.002208
-0.011775
-0.0098618
0.0019378
-0.0015702
-0.0012513
0.0038513
-0.017835
-0.0050782
0.0013
0.0044891
-0.002208
-0.0038025
0.00098112
0.031278
0.035104
0.043715
0.037018
0.03638
0.046266
0.049137
0.063487
0.064125
0.052645
0.043077
0.052645
0.054558
0.052645
0.040845
0.015651
0.0054459
0.022986
0.040526
0.022348
-0.0031647
-0.0060349
-0.018791
-0.032823
-0.027083
-0.022937
-0.049088
-0.051001
-0.036969
-0.029315
-0.036969
-0.03378
-0.032504
-0.026764
0.0019378
0.030959
0.0064026
0.0044891
0.017883
0.017883
0.022348
0.026813
0.02777
0.028726
0.055196
0.042121
0.016289
0.010867
0.012462
0.019797
0.014375
0.021391
0.0073593
-0.002208
-0.027083
-0.018472
-0.0073105
-0.00029452
-0.027721
-0.044623
-0.058655
-0.039202
-0.034099
-0.026126
-0.016878
-0.032823
-0.028996
-0.0105
0.0051269
0.0038513
0.016289
0.0095917
0.020435
0.03925
0.049774
0.060617
0.037656
0.048818
0.059342
0.06285
0.05105
0.042439
0.050412
0.061255
0.059023
0.088681
0.073055
0.061893
0.055196
0.038294
0.0070404
0.008635
0.023624
-0.011775
-0.016559
-0.027083
-0.037288
-0.036969
-0.039839
-0.050044
-0.062163
-0.067266
-0.054509
-0.051001
-0.050363
-0.032823
-0.040477
-0.035694
-0.045261
-0.049088
-0.045899
-0.022299
-0.030591
-0.037607
-0.034737
-0.014645
-0.0053971
0.015651
0.0051269
-0.012094
-0.017516
-0.019429
0.0054459
0.020435
0.0089539
0.015013
-0.011456
-0.018153
-0.013051
-0.021661
-0.023575
-0.016559
-0.03665
-0.058336
-0.060569
-0.022937
-0.043985
-0.052277
-0.039202
-0.043028
-0.02804
-0.018791
-0.0060349
-0.019429
-0.012732
-0.005716
0.032872
0.029364
0.024899
0.0054459
0.020435
0.048818
0.041164
0.043715
0.044991
0.035742
0.020754
0.027451
0.02777
0.0092728
-0.011775
-0.0028458
0.0076782
0.0044891
-0.0079484
0.011824
0.0016189
0.0028946
0.021072
0.017246
0.022986
0.032234
0.045947
0.057428
0.056471
0.048818
0.040526
0.043396
0.071779
0.066039
0.041802
0.040207
0.028407
0.0131
0.0032135
0.012143
-0.0028458
-0.025488
-0.043985
-0.063758
-0.03378
-0.015921
-0.035694
-0.046855
-0.043028
-0.038564
-0.022618
-0.019429
-0.0076295
-0.01337
-0.026126
0.010548
0.022986
0.020754
0.0051269
-0.012413
-0.043666
-0.048131
-0.031548
-0.057061
-0.068222
-0.04845
-0.059612
-0.053871
-0.04845
-0.075876
-0.082254
-0.080341
-0.073006
-0.074919
-0.067903
-0.056742
-0.061844
-0.062801
-0.06312
-0.058655
-0.062482
-0.043028
-0.050682
-0.073644
-0.053234
-0.050363
-0.054509
-0.010819
-0.015602
-0.0038025
-0.0069916
-0.013051
-0.023894
-0.0089051
0.0051269
-0.0044404
-0.00093234
-0.031867
0.036699
0.032553
0.037018
-0.0073105
-0.017197
0.0044891
0.018202
0.046585
0.073055
0.064763
0.077838
0.054877
0.047861
0.061255
0.066358
0.07752
0.057747
0.076882
0.070503
0.056153
0.051688
0.043396
0.0076782
0.012781
-0.0105
-0.0034836
0.0003433
0.022667
0.029364
-0.0012513
-0.059931
-0.023575
-0.0028458
-0.0012513
-0.0031647
-0.036331
0.0073593
0.034467
0.02171
-0.0031647
-0.035694
0.0022568
-0.0034836
-0.031548
-0.031548
-0.029953
-0.048769
-0.044623
-0.029953
-0.026126
-0.019429
-0.014327
-0.03378
-0.070136
-0.048769
0.010867
0.034786
-0.017197
-0.015283
-0.03378
-0.022618
-0.018791
-0.070455
-0.056104
-0.03665
-0.088633
-0.10872
-0.13137
-0.10904
-0.10777
